# k  (h/Mpc)    P(k)  (Mpc/h)^3    P_linear(k)  (Mpc/h)^3
     0.00783031         15943.9         16018.5 
       0.013688         19878.2         20442.1 
       0.019231         20708.2           21067 
      0.0249154           19655         19655.4 
      0.0312784         16830.7         17059.6 
      0.0375637         14178.2         14491.7 
      0.0433917         12459.8         12580.4 
      0.0492413         11015.4         11218.2 
      0.0555754         10137.6         10257.3 
      0.0619321         9176.46         9603.53 
       0.067871         8778.89         9064.06 
      0.0738098         8259.79         8454.24 
      0.0800417         7529.44         7689.61 
      0.0862327         6695.38          6848.8 
      0.0921407         5992.03         6061.44 
      0.0982031         5412.52         5357.78 
       0.104506         4801.47         4794.24 
       0.110769         4455.29         4409.96 
       0.116806         4282.87         4171.73 
       0.122832         4063.62         4009.16 
       0.129052         3871.81         3859.79 
       0.135211         3773.78         3683.17 
       0.141259         3495.61         3461.84 
       0.147318         3230.48         3200.25 
       0.153489          3020.6         2920.07 
       0.159709         2877.63         2656.98 
       0.165845            2622         2441.24 
       0.171974         2546.45         2279.39 
       0.178125         2467.84         2166.49 
       0.184229         2284.68         2088.93 
        0.19034         2262.39         2026.46 
       0.196428         2203.52         1961.52 
       0.202534         2075.44         1882.06 
       0.208729         2031.87         1783.99 
       0.214876         1937.76         1674.84 
       0.220989         1838.92         1564.78 
       0.227147         1784.56         1462.93 
        0.23329         1712.32          1377.6 
       0.239377         1703.29          1311.4 
       0.245482         1625.35         1261.09 
       0.251667         1568.02         1221.12 
       0.257832         1544.28         1185.57 
       0.263955         1477.03         1148.68 
       0.270079         1440.33         1106.92 
        0.27624         1380.66         1059.52 
       0.282372         1364.84         1009.14 
        0.28843         1338.92         959.634 
       0.294538         1279.28         913.313 
       0.300721         1256.15         872.487 
        0.30691         1224.62          838.33 
       0.313033         1179.32         810.415 
       0.319153         1168.17         786.365 
       0.325316         1152.92         763.877 
        0.33145         1127.91         741.231 
       0.337538         1092.06         717.496 
       0.343633         1067.77         692.269 
       0.349808         1048.79          665.99 
       0.355968         1027.88         640.142 
       0.362074         997.242         615.996 
       0.368217         994.591          594.02 
       0.374374         979.315         574.461 
       0.380519         945.665         557.238 
       0.386598         941.213         541.771 
       0.392688         917.061          527.12 
        0.39888         899.392         512.478 
       0.405048         881.562         497.677 
       0.411186         879.352         482.711 
       0.417313         874.365         467.733 
       0.423458         848.341         452.978 
       0.429607         826.331         438.882 
       0.435692         819.455         425.873 
       0.441815         803.708         413.752 
       0.447964         794.741          402.53 
       0.454126         784.323         392.051 
       0.460267         774.995         382.087 
       0.466387         761.453         372.402 
        0.47254           749.8         362.806 
       0.478662         739.282         353.334 
       0.484765         731.505         343.977 
       0.490885          723.91          334.81 
       0.497035         710.365         325.942 
       0.503198         709.425         317.475 
       0.509342         696.362         309.462 
       0.515458         682.598         301.916 
       0.521598         681.572         294.729 
       0.527764         665.603         287.805 
       0.533884         659.004         281.131 
           0.54         654.355         274.601 
       0.546137         644.976         268.185 
       0.552299         641.221         261.889 
       0.558452         633.209         255.756 
       0.564573         629.611         249.829 
       0.570708         622.399         244.091 
       0.576825         610.059         238.598 
       0.582926         608.594         233.352 
       0.589034         600.146         228.301 
       0.595184         594.092         223.385 
       0.601379         585.247         218.576 
       0.607522         576.297         213.928 
       0.613639         575.631         209.419 
       0.619772         571.528         205.014 
       0.625918         562.323         200.718 
       0.632068         559.767         196.535 
       0.638161         552.866         192.508 
         0.6443         546.635          188.57 
       0.650464         542.516         184.738 
       0.656582         538.325         181.055 
       0.662703         532.409         177.487 
       0.668861         525.923         174.003 
       0.675024         523.471         170.612 
       0.681124          513.33         167.343 
       0.687237         513.618         164.146 
       0.693381         505.269         161.009 
       0.699536         505.982         157.944 
       0.705665         498.241         154.971 
       0.711789         497.204         152.078 
       0.717957         490.625         149.244 
        0.72409         486.493         146.505 
       0.730186         485.943         143.857 
       0.736317         478.763         141.263 
       0.742472         473.761         138.726 
       0.748622         472.434         136.254 
        0.75476         466.578         133.847 
       0.760888         464.427           131.5 
       0.767043         461.456         129.199 
       0.773185         457.606         126.957 
       0.779291         453.009          124.78 
       0.785407         449.603         122.652 
       0.791564          447.33         120.561 
       0.797719         440.269         118.521 
       0.803834         441.523         116.543 
       0.809972         434.643         114.605 
       0.816124         431.582         112.707 
       0.822261         428.948         110.859 
       0.828378         427.033         109.059 
       0.834502         420.173         107.298 
       0.840667         419.556         105.564 
       0.846816         414.839         103.874 
       0.852925         414.994         102.232 
       0.859047         410.398         100.623 
       0.865192          408.08         99.0426 
       0.871341         403.216         97.4958 
       0.877463         402.264         95.9894 
       0.883569         398.412          94.519 
       0.889708         394.313         93.0722 
       0.895864         390.228         91.6524 
       0.902008         389.539         90.2657 
       0.908149         385.785         88.9088 
       0.914301         384.499         87.5781 
       0.920448         379.985         86.2762 
       0.926574          378.04         85.0057 
       0.932687         377.152         83.7638 
       0.938823          372.58         82.5425 
       0.944975         371.613         81.3432 
       0.951105         368.452         80.1722 
       0.957225         363.651         79.0266 
       0.963368         364.268         77.8998 
       0.969511         358.805         76.7951 
       0.975621         356.919         75.7181 
       0.981748         355.643         74.6592 
       0.987916         353.305         73.6141 
        0.99406         349.842         72.5932 
        1.00019         346.367         71.5939 
        1.00632         345.975         70.6146 
        1.01246         342.885         69.6523 
        1.01859         339.877         68.7097 
        1.02471         338.117         67.7859 
        1.03085         336.617         66.8761 
        1.03698         334.542         65.9851 
        1.04314         332.415         65.1067 
        1.04929         330.827         64.2465 
        1.05541         327.125         63.4055 
        1.06154         325.165         62.5777 
        1.06769         322.519         61.7636 
        1.07382          320.08         60.9668 
        1.07993         319.341          60.186 
        1.08607         317.454         59.4159 
        1.09222         314.541         58.6586 
        1.09836         313.053         57.9155 
        1.10449         310.798         57.1863 
        1.11063         309.269         56.4689 
        1.11677         305.762         55.7643 
         1.1229         305.173         55.0731 
        1.12903         302.362         54.3931 
        1.13518         300.604         53.7241 
        1.14131         299.119         53.0669 
        1.14745         296.256         52.4212 
        1.15359         293.939         51.7862 
        1.15973         292.568         51.1616 
        1.16584         290.914         50.5502 
        1.17197         289.147          49.948 
        1.17811         286.145         49.3539 
        1.18424         285.211         48.7713 
        1.19038          283.67         48.1965 
        1.19652         280.644         47.6313 
        1.20267         279.876         47.0752 
        1.20881         278.138         46.5282 
        1.21495         276.246         45.9909 
        1.22108         274.687         45.4622 
         1.2272         271.291         44.9431 
        1.23334         270.432         44.4311 
        1.23949         268.746         43.9259 
        1.24562          267.53           43.43 
        1.25174         265.947         42.9425 
        1.25789         263.358         42.4612 
        1.26402         262.679         41.9881 
        1.27014         261.248         41.5235 
        1.27628         259.263         41.0645 
        1.28244         256.955         40.6117 
        1.28858         256.158         40.1664 
        1.29471         254.522         39.7288 
        1.30084          253.91         39.2982 
        1.30697         250.939         38.8734 
        1.31312         249.624         38.4543 
        1.31925         248.366         38.0428 
        1.32537         247.337         37.6377 
        1.33151         244.943         37.2372 
        1.33765         243.181         36.8428 
        1.34378           242.5         36.4549 
        1.34992          239.94         36.0724 
        1.35606         238.942         35.6946 
         1.3622         237.031          35.323 
        1.36833         236.678         34.9576 
        1.37445         235.479         34.5975 
        1.38059         232.604         34.2415 
        1.38675         231.381         33.8898 
        1.39288         230.681         33.5443 
        1.39901         228.403          33.204 
        1.40515         227.503         32.8676 
         1.4113         225.905          32.536 
        1.41742         224.263         32.2103 
        1.42355          223.46         31.8885 
         1.4297         221.936         31.5702 
        1.43585         220.606         31.2564 
        1.44198         219.127         30.9481 
        1.44809         218.133         30.6446 
        1.45423         216.801          30.344 
        1.46036         215.826          30.048 
        1.46649         214.189         29.7559 
        1.47263         212.778         29.4675 
        1.47877         211.529         29.1831 
        1.48491         209.975          28.902 
        1.49104           208.1         28.6253 
        1.49718         207.654         28.3519 
        1.50333         205.932         28.0818 
        1.50947         204.846         27.8157 
         1.5156         203.719         27.5536 
        1.52172         202.448         27.2948 
        1.52787         201.135         27.0389 
          1.534         200.667         26.7865 
        1.54013         198.869         26.5377 
        1.54627             198         26.2916 
        1.55241         196.923         26.0487 
        1.55855         195.593         25.8091 
        1.56467         194.564         25.5733 
         1.5708         192.944         25.3398 
        1.57695         192.315         25.1088 
        1.58308         191.148         24.8813 
        1.58922         189.612         24.6565 
        1.59535         188.283         24.4345 
         1.6015         187.614          24.215 
        1.60764         186.104         23.9984 
        1.61376         184.906         23.7849 
        1.61989         183.832          23.574 
        1.62604          183.04         23.3651 
        1.63218         181.677          23.159 
        1.63831         181.101         22.9558 
        1.64444         179.538         22.7549 
        1.65059         178.644         22.5561 
        1.65673         177.557         22.3598 
        1.66285           176.5         22.1665 
        1.66898         175.644         21.9754 
        1.67512         174.425         21.7861 
        1.68127         173.526          21.599 
         1.6874         172.408         21.4145 
        1.69353          171.75         21.2322 
        1.69967         170.244         21.0517 
        1.70581         169.746         20.8734 
        1.71193         168.484         20.6978 
        1.71806         167.279         20.5239 
        1.72421          166.42         20.3516 
        1.73035         165.372         20.1816 
        1.73649         164.173         20.0135 
        1.74262         163.505         19.8475 
        1.74876         162.664         19.6833 
        1.75489         162.104         19.5212 
        1.76101         160.875         19.3611 
        1.76715         159.812         19.2026 
        1.77329         158.623         19.0456 
        1.77943         157.745         18.8904 
        1.78557         156.743         18.7371 
        1.79171         156.192         18.5856 
        1.79785         154.951         18.4356 
        1.80399         154.277         18.2874 
        1.81012         153.707          18.141 
        1.81625         152.086         17.9963 
        1.82239         151.831          17.853 
        1.82853         150.726         17.7113 
        1.83466         149.466         17.5713 
        1.84078         149.047         17.4329 
        1.84692         148.283         17.2959 
        1.85306         147.142         17.1601 
         1.8592         146.591         17.0261 
        1.86533         145.247         16.8935 
        1.87147         144.427         16.7622 
        1.87761         143.862         16.6323 
        1.88375         142.707         16.5039 
        1.88988         142.174          16.377 
        1.89601         141.513         16.2514 
        1.90215         140.813          16.127 
        1.90829         139.434          16.004 
        1.91442         138.859         15.8823 
        1.92056         138.255         15.7619 
         1.9267         137.282         15.6427 
        1.93284         136.131         15.5247 
        1.93897         135.931         15.4081 
        1.94509         134.916         15.2929 
        1.95123         134.214         15.1787 
        1.95737         133.709         15.0655 
        1.96349         132.615         14.9538 
        1.96964         131.785         14.8429 
        1.97578         131.103         14.7331 
        1.98192           130.6         14.6246 
        1.98805         129.738         14.5172 
        1.99419         128.751         14.4109 
        2.00033          128.17         14.3057 
        2.00647          127.43         14.2015 
         2.0126         126.638         14.0985 
        2.01874         125.928         13.9964 
        2.02488         125.298         13.8952 
        2.03101         124.824         13.7953 
        2.03714         124.053         13.6964 
        2.04328         123.211         13.5983 
        2.04941         122.717         13.5013 
        2.05554         122.056         13.4054 
        2.06167         121.224         13.3102 
        2.06781         120.656          13.216 
        2.07396         119.806         13.1225 
        2.08009         119.266         13.0302 
        2.08622         118.591         12.9388 
        2.09237         117.648         12.8481 
        2.09851         117.325         12.7583 
        2.10464         116.656         12.6695 
        2.11077         115.986         12.5816 
        2.11691          115.35         12.4944 
        2.12305         114.618          12.408 
        2.12918         114.113         12.3227 
        2.13531         113.227         12.2381 
        2.14145         112.899         12.1542 
         2.1476         112.136         12.0709 
        2.15372         111.374         11.9889 
        2.15985         110.851         11.9075 
        2.16599         110.143         11.8267 
        2.17213         109.601         11.7467 
        2.17827         109.069         11.6675 
         2.1844         108.389         11.5891 
        2.19054         107.923         11.5113 
        2.19666         107.072         11.4344 
         2.2028         106.642         11.3582 
        2.20893         106.173         11.2826 
        2.21508         105.324         11.2076 
        2.22122         104.645         11.1333 
        2.22736         104.571         11.0598 
        2.23349         103.983          10.987 
        2.23962         103.184         10.9148 
        2.24577         102.484         10.8432 
         2.2519         101.928         10.7723 
        2.25802         101.603         10.7022 
        2.26417         100.903         10.6326 
        2.27031         100.301         10.5635 
        2.27644         99.8167         10.4952 
        2.28257         99.5113         10.4275 
        2.28872         98.8295         10.3603 
        2.29486         98.3149         10.2937 
        2.30099         97.6264         10.2278 
        2.30712         97.2575         10.1625 
        2.31326         96.6324         10.0976 
         2.3194         96.2653         10.0334 
        2.32553         95.7117         9.96978 
        2.33166         95.2766         9.90678 
         2.3378         94.5365         9.84424 
        2.34394         94.0895         9.78222 
        2.35007         93.5356         9.72083 
        2.35619         92.9716         9.66005 
        2.36233         92.5961         9.59964 
        2.36848         92.0269         9.53963 
        2.37462         91.8297         9.48026 
        2.38075         91.1043         9.42146 
        2.38689         90.6864         9.36311 
        2.39303         90.2872         9.30527 
        2.39916         89.6647         9.24797 
        2.40529         89.3353         9.19117 
        2.41143         88.6605         9.13481 
        2.41757         88.0153         9.07889 
         2.4237         87.7646         9.02355 
        2.42983         87.2008         8.96868 
        2.43598         86.7485         8.91412 
        2.44211         86.3967         8.86011 
        2.44823         85.9186         8.80667 
        2.45437         85.6225         8.75352 
        2.46052         84.9992         8.70078 
        2.46665         84.4748         8.64856 
        2.47279         84.1123         8.59679 
        2.47892         83.7454         8.54542 
        2.48507         83.3685         8.49442 
         2.4912         82.7275         8.44393 
