# k  (h/Mpc)    Pcb(k)  (Mpc/h)^3    Pcb_linear(k)  (Mpc/h)^3
     0.00783031         2210.99          2222.8 
       0.013688         2933.16          2971.4 
       0.019231         3196.56         3217.02 
      0.0249154         3168.47          3169.6 
      0.0312784          2913.2         2925.14 
      0.0375637         2602.79         2621.03 
      0.0433917         2356.76         2358.73 
      0.0492413         2133.44         2145.63 
      0.0555754         1973.37         1974.31 
      0.0619321         1817.98         1847.57 
       0.067871         1734.53         1748.12 
      0.0738098         1638.21         1648.61 
      0.0800417         1526.83         1532.98 
      0.0862327         1395.27         1406.06 
      0.0921407         1271.28         1280.99 
      0.0982031         1157.39         1159.28 
       0.104506         1039.94          1049.8 
       0.110769         956.641         963.592 
       0.116806          905.43         901.524 
       0.122832          851.73         855.751 
       0.129052         817.853         818.524 
       0.135211         788.652         784.447 
       0.141259         746.719         748.372 
       0.147318         699.253           707.3 
       0.153489          658.58         661.122 
       0.159709         617.621         613.238 
       0.165845         564.861         568.515 
       0.171974         539.069         529.485 
       0.178125         509.214         497.579 
       0.184229         478.428         472.987 
        0.19034         464.998         453.916 
       0.196428         449.282         438.159 
       0.202534         426.743         423.244 
       0.208729         416.624         407.158 
       0.214876         401.885         389.367 
       0.220989         375.607         370.047 
       0.227147         364.359         349.931 
        0.23329         347.609         330.517 
       0.239377         333.785         313.068 
       0.245482          316.54         298.035 
       0.251667         302.736         285.445 
       0.257832         297.677         275.116 
       0.263955          283.71         266.298 
       0.270079         275.223         258.084 
        0.27624         264.342         249.721 
       0.282372          256.89         240.904 
        0.28843         253.477         231.667 
       0.294538          241.98         222.064 
       0.300721           231.2         212.483 
        0.30691         226.253         203.454 
       0.313033         216.955         195.393 
       0.319153         212.847         188.306 
       0.325316          204.61         182.091 
        0.33145         198.884         176.587 
       0.337538         193.454         171.529 
       0.343633          188.25         166.597 
       0.349808         182.816         161.556 
       0.355968         177.928         156.402 
       0.362074           174.5         151.215 
       0.368217         170.041         146.036 
       0.374374         166.366         141.021 
       0.380519         159.197          136.33 
       0.386598         155.426         132.056 
       0.392688         151.407         128.152 
        0.39888         148.647         124.521 
       0.405048         145.563         121.144 
       0.411186         142.653         117.931 
       0.417313         139.121         114.789 
       0.423458         135.673         111.649 
       0.429607         133.483         108.521 
       0.435692         131.146         105.455 
       0.441815         126.871         102.441 
       0.447964         123.408         99.5358 
       0.454126         121.167         96.7797 
       0.460267          120.33         94.1944 
       0.466387         117.378         91.7797 
        0.47254         116.044         89.4885 
       0.478662         112.352         87.3083 
       0.484765         110.546         85.2035 
       0.490885         107.862          83.143 
       0.497035         107.035         81.1068 
       0.503198          104.34         79.0985 
       0.509342         101.895         77.1403 
       0.515458         100.866         75.2503 
       0.521598         98.5088         73.4224 
       0.527764         97.4195         71.6616 
       0.533884         96.1287         69.9918 
           0.54         93.9523          68.399 
       0.546137          91.522         66.8653 
       0.552299         90.2735         65.3767 
       0.558452         88.6554         63.9316 
       0.564573         88.2646         62.5295 
       0.570708         85.6854          61.158 
       0.576825         84.8479         59.8226 
       0.582926         83.7828         58.5234 
       0.589034         82.3833         57.2586 
       0.595184         81.3324         56.0256 
       0.601379         79.2419         54.8281 
       0.607522         78.3172         53.6832 
       0.613639         77.4406         52.5813 
       0.619772          76.189         51.5104 
       0.625918         74.9879         50.4677 
       0.632068         74.3105         49.4523 
       0.638161         72.8979         48.4726 
         0.6443         72.2015         47.5106 
       0.650464         70.6804         46.5692 
       0.656582         70.3391         45.6581 
       0.662703         69.5979         44.7704 
       0.668861         67.9933         43.9016 
       0.675024         67.6257         43.0566 
       0.681124         66.8276         42.2451 
       0.687237         65.5341         41.4553 
       0.693381         64.7825         40.6837 
       0.699536         64.4039         39.9311 
       0.705665         63.2901         39.2008 
       0.711789         62.3858         38.4884 
       0.717957         61.4491         37.7878 
        0.72409         60.9454         37.1078 
       0.730186         60.6328         36.4484 
       0.736317         59.5678         35.8015 
       0.742472         58.9195         35.1685 
       0.748622         58.0675         34.5523 
        0.75476         57.0251          33.953 
       0.760888          56.902         33.3695 
       0.767043         55.9888         32.7978 
       0.773185         55.5943         32.2409 
       0.779291         54.9363         31.7001 
       0.785407         54.0947         31.1709 
       0.791564         54.0439         30.6503 
       0.797719          53.177         30.1418 
       0.803834         52.7599         29.6481 
       0.809972         52.0304         29.1637 
       0.816124         51.5551         28.6892 
       0.822261         51.0135         28.2268 
       0.828378         50.6544         27.7762 
       0.834502         50.1539         27.3353 
       0.840667         49.7175         26.9014 
       0.846816         48.8042         26.4784 
       0.852925         48.7582         26.0672 
       0.859047         48.2887         25.6641 
       0.865192         47.6356         25.2683 
       0.871341         47.1393         24.8807 
       0.877463         46.7956          24.503 
       0.883569         46.5992         24.1341 
       0.889708         46.0343          23.771 
       0.895864         45.5107         23.4146 
       0.902008          45.012         23.0662 
       0.908149         44.7106         22.7252 
       0.914301         44.4512         22.3907 
       0.920448         43.9357         22.0632 
       0.926574         43.3845         21.7436 
       0.932687         43.0975          21.431 
       0.938823         42.6453         21.1236 
       0.944975         42.3178         20.8215 
       0.951105         41.9493         20.5266 
       0.957225          41.773         20.2379 
       0.963368         41.2371         19.9538 
       0.969511         40.9222         19.6753 
       0.975621         40.5622         19.4037 
       0.981748         40.1556         19.1365 
       0.987916         39.9436         18.8727 
        0.99406         39.5277          18.615 
        1.00019         39.2643         18.3626 
        1.00632          38.967         18.1152 
        1.01246         38.7059         17.8721 
        1.01859         38.2843         17.6338 
        1.02471         37.9726         17.4002 
        1.03085          37.874         17.1701 
        1.03698         37.5336         16.9447 
        1.04314         37.2005         16.7225 
        1.04929         36.8444         16.5048 
        1.05541         36.7311         16.2918 
        1.06154         36.5124         16.0822 
        1.06769         36.0814         15.8759 
        1.07382         35.7876          15.674 
        1.07993         35.4869         15.4761 
        1.08607         35.3207         15.2808 
        1.09222         35.0315         15.0888 
        1.09836         34.7858         14.9003 
        1.10449         34.5731         14.7152 
        1.11063         34.3324         14.5332 
        1.11677         34.2552         14.3543 
         1.1229         33.9116         14.1788 
        1.12903         33.7188         14.0061 
        1.13518         33.4537         13.8361 
        1.14131         33.2514         13.6691 
        1.14745         32.8533          13.505 
        1.15359         32.6369         13.3436 
        1.15973          32.389         13.1847 
        1.16584         32.2038         13.0292 
        1.17197         31.9188          12.876 
        1.17811         31.7517         12.7249 
        1.18424         31.5224         12.5766 
        1.19038         31.3838         12.4302 
        1.19652         31.1437         12.2863 
        1.20267         30.9709         12.1447 
        1.20881          30.748         12.0053 
        1.21495         30.5174         11.8684 
        1.22108         30.5018         11.7337 
         1.2272          30.281         11.6014 
        1.23334         30.0659         11.4708 
        1.23949          29.855          11.342 
        1.24562          29.582         11.2155 
        1.25174         29.4691         11.0912 
        1.25789         29.3133         10.9683 
        1.26402         29.1751         10.8476 
        1.27014         28.9924          10.729 
        1.27628         28.7038         10.6119 
        1.28244         28.7155         10.4962 
        1.28858         28.3988         10.3825 
        1.29471         28.1787         10.2707 
        1.30084         28.0245         10.1607 
        1.30697         27.9683         10.0522 
        1.31312         27.7033         9.94504 
        1.31925         27.5767         9.83984 
        1.32537         27.4031         9.73627 
        1.33151         27.2481         9.63384 
        1.33765         27.1564         9.53295 
        1.34378         26.9897         9.43373 
        1.34992         26.8438         9.33585 
        1.35606         26.6269         9.23917 
         1.3622         26.4265         9.14404 
        1.36833         26.3688         9.05049 
        1.37445         26.2622         8.95831 
        1.38059         26.0939         8.86714 
        1.38675         25.8846         8.77703 
        1.39288         25.7392         8.68855 
        1.39901         25.6524         8.60133 
        1.40515         25.4952         8.51513 
         1.4113         25.3735         8.43015 
        1.41742         25.2532         8.34667 
        1.42355         25.0538         8.26416 
         1.4297         24.9369         8.18254 
        1.43585         24.8281         8.10206 
        1.44198          24.726         8.02298 
        1.44809         24.5843         7.94511 
        1.45423         24.4283         7.86799 
        1.46036         24.3208         7.79205 
        1.46649         24.1641         7.71709 
        1.47263         24.0951         7.64307 
        1.47877         23.9908         7.57005 
        1.48491         23.8298         7.49788 
        1.49104         23.6969         7.42682 
        1.49718          23.597         7.35662 
        1.50333         23.4925         7.28723 
        1.50947           23.38         7.21888 
         1.5156          23.241         7.15151 
        1.52172         23.1212         7.08501 
        1.52787           22.99         7.01923 
          1.534         22.9462         6.95437 
        1.54013         22.8246          6.8904 
        1.54627         22.6718         6.82713 
        1.55241         22.5381         6.76465 
        1.55855         22.4721         6.70304 
        1.56467         22.3923         6.64237 
         1.5708         22.2964          6.5823 
        1.57695         22.1376         6.52288 
        1.58308         21.9992         6.46433 
        1.58922         21.9268         6.40647 
        1.59535         21.7858         6.34934 
         1.6015         21.6591         6.29284 
        1.60764         21.6119         6.23706 
        1.61376         21.5544         6.18211 
        1.61989         21.3919         6.12778 
        1.62604         21.3364         6.07399 
        1.63218         21.2227         6.02088 
        1.63831         21.1003         5.96854 
        1.64444         21.0073          5.9168 
        1.65059         20.9008         5.86556 
        1.65673         20.8343         5.81498 
        1.66285         20.7052         5.76515 
        1.66898         20.6572         5.71589 
        1.67512         20.5702         5.66711 
        1.68127         20.4101         5.61887 
         1.6874         20.3694         5.57129 
        1.69353         20.2504          5.5243 
        1.69967          20.151         5.47774 
        1.70581         20.1104         5.43175 
        1.71193          19.978         5.38645 
        1.71806         19.9333         5.34159 
        1.72421         19.8173         5.29714 
        1.73035         19.7062         5.25326 
        1.73649         19.6604         5.20989 
        1.74262         19.5015         5.16704 
        1.74876         19.4818         5.12465 
        1.75489         19.3926         5.08283 
        1.76101         19.3017         5.04148 
        1.76715         19.2159         5.00055 
        1.77329         19.1391         4.96002 
        1.77943         19.0154         4.91992 
        1.78557         18.9933         4.88033 
        1.79171         18.8767         4.84118 
        1.79785         18.8522         4.80244 
        1.80399         18.7074         4.76415 
        1.81012         18.6725         4.72632 
        1.81625         18.5283         4.68892 
        1.82239         18.4693         4.65188 
        1.82853         18.4113         4.61525 
        1.83466         18.2906         4.57906 
        1.84078         18.2781          4.5433 
        1.84692          18.219         4.50787 
        1.85306         18.1318         4.47277 
         1.8592         18.0414          4.4381 
        1.86533         17.9418         4.40382 
        1.87147         17.8781         4.36987 
        1.87761         17.7809         4.33626 
        1.88375         17.7386         4.30304 
        1.88988         17.6255         4.27022 
        1.89601         17.5847         4.23772 
        1.90215         17.4821         4.20553 
        1.90829         17.4153          4.1737 
        1.91442         17.3392         4.14219 
        1.92056         17.3449         4.11104 
         1.9267         17.2364         4.08018 
        1.93284         17.2089         4.04962 
        1.93897         17.0863         4.01944 
        1.94509         17.0366         3.98963 
        1.95123         16.9849         3.96004 
        1.95737          16.929         3.93074 
        1.96349         16.7952         3.90182 
        1.96964          16.757          3.8731 
        1.97578         16.7173         3.84466 
        1.98192         16.6136         3.81656 
        1.98805         16.5574         3.78874 
        1.99419          16.503          3.7612 
        2.00033         16.4558         3.73393 
        2.00647         16.3812         3.70693 
         2.0126         16.3262         3.68024 
        2.01874         16.2162         3.65378 
        2.02488         16.1886         3.62756 
        2.03101         16.1046         3.60164 
        2.03714         16.0616         3.57601 
        2.04328         15.9614         3.55059 
        2.04941         15.8922         3.52545 
        2.05554         15.8879         3.50057 
        2.06167         15.8162         3.47589 
        2.06781         15.7344         3.45145 
        2.07396         15.7271         3.42721 
        2.08009         15.6005         3.40325 
        2.08622         15.5818         3.37955 
        2.09237         15.5381         3.35603 
        2.09851          15.438         3.33273 
        2.10464         15.4209         3.30969 
        2.11077         15.3246         3.28689 
        2.11691         15.3085         3.26426 
        2.12305         15.2205         3.24185 
        2.12918         15.1277          3.2197 
        2.13531         15.1212         3.19776 
        2.14145         15.0504         3.17597 
         2.1476         14.9778         3.15436 
        2.15372         14.9373         3.13306 
        2.15985         14.8974         3.11194 
        2.16599         14.8279         3.09095 
        2.17213         14.8032         3.07018 
        2.17827         14.7311         3.04961 
         2.1844         14.6876         3.02924 
        2.19054         14.6379         3.00906 
        2.19666         14.5811         2.98908 
         2.2028         14.5117         2.96928 
        2.20893         14.4777         2.94964 
        2.21508         14.4106         2.93016 
        2.22122         14.3523         2.91085 
        2.22736         14.3251         2.89176 
        2.23349         14.2571         2.87284 
        2.23962         14.2211         2.85408 
        2.24577         14.1679         2.83548 
         2.2519          14.123         2.81707 
        2.25802         14.0176         2.79885 
        2.26417         14.0301         2.78074 
        2.27031         13.9535         2.76278 
        2.27644         13.9112         2.74503 
        2.28257         13.8262         2.72743 
        2.28872         13.8337         2.70996 
        2.29486         13.7769         2.69265 
        2.30099         13.7292         2.67552 
        2.30712         13.6438         2.65854 
        2.31326         13.5808         2.64167 
         2.3194         13.5666         2.62496 
        2.32553         13.4881         2.60843 
        2.33166         13.4534         2.59204 
         2.3378         13.4158         2.57578 
        2.34394         13.3863         2.55965 
        2.35007         13.3126         2.54368 
        2.35619         13.2844         2.52787 
        2.36233         13.2056         2.51215 
        2.36848         13.1861         2.49654 
        2.37462         13.1427         2.48109 
        2.38075         13.1125         2.46579 
        2.38689         13.0648         2.45061 
        2.39303         12.9781         2.43556 
        2.39916         12.9652         2.42065 
        2.40529         12.9193         2.40586 
        2.41143         12.8688         2.39119 
        2.41757         12.8212         2.37664 
         2.4237         12.7843         2.36224 
        2.42983          12.731         2.34795 
        2.43598         12.7054         2.33375 
        2.44211         12.6709         2.31969 
        2.44823         12.6064         2.30578 
        2.45437         12.5655         2.29194 
        2.46052         12.5389         2.27821 
        2.46665         12.4978         2.26461 
        2.47279         12.4585         2.25113 
        2.47892         12.3865         2.23775 
        2.48507         12.3655         2.22447 
         2.4912         12.3099         2.21132 
