# k  (h/Mpc)    Pcb(k)  (Mpc/h)^3    Pcb_linear(k)  (Mpc/h)^3
     0.00783031         12884.6         13062.1 
       0.013688           14369         14261.4 
       0.019231         12886.4         12830.4 
      0.0249154         10279.4         10414.2 
      0.0312784         7748.33         7755.07 
      0.0375637         5841.63         5775.31 
      0.0433917         4608.66         4607.14 
      0.0492413         3981.91         3951.56 
      0.0555754          3566.4          3608.3 
      0.0619321         3467.35         3421.35 
       0.067871         3194.18         3228.27 
      0.0738098         2911.14         2937.78 
      0.0800417         2504.14         2533.64 
      0.0862327         2111.06         2101.12 
      0.0921407         1784.16         1734.75 
      0.0982031         1493.13         1453.55 
       0.104506         1347.93         1273.33 
       0.110769         1249.44         1187.24 
       0.116806         1204.12         1157.53 
       0.122832         1182.58         1142.32 
       0.129052         1121.14         1108.25 
       0.135211          1054.7         1038.66 
       0.141259         976.147         938.692 
       0.147318         876.494         824.713 
       0.153489         768.142         716.073 
       0.159709         695.481         630.193 
       0.165845         647.449         574.408 
       0.171974         610.333         544.298 
       0.178125         590.957         531.138 
       0.184229         575.332         524.071 
        0.19034         546.304         513.022 
       0.196428         533.365         492.036 
       0.202534         509.729         460.356 
       0.208729         471.784         421.486 
       0.214876         436.644         382.535 
       0.220989         409.735         348.953 
       0.227147         385.867         323.416 
        0.23329         367.172         306.506 
       0.239377         358.468         296.305 
       0.245482         335.828         289.562 
       0.251667         334.112         282.955 
       0.257832         322.688         274.092 
       0.263955         310.003         262.098 
       0.270079         294.481         247.452 
        0.27624         286.712         231.668 
       0.282372         274.298         216.751 
        0.28843          262.23         204.125 
       0.294538         248.655         194.147 
       0.300721         245.036         186.629 
        0.30691         233.984         180.956 
       0.313033         228.672         176.104 
       0.319153         219.761         171.117 
       0.325316         214.464         165.331 
        0.33145         206.119         158.747 
       0.337538         201.902         151.646 
       0.343633         193.978         144.512 
       0.349808         186.728         137.754 
       0.355968         183.157         131.849 
       0.362074          178.63         126.927 
       0.368217          173.22          122.78 
       0.374374         166.434          119.18 
       0.380519         164.059         115.801 
       0.386598         159.624         112.429 
       0.392688         156.719         108.886 
        0.39888         152.631         105.095 
       0.405048         148.174         101.261 
       0.411186         144.761         97.5308 
       0.417313         141.351         94.0274 
       0.423458         137.857         90.8453 
       0.429607         134.829         87.9892 
       0.435692         130.391         85.4341 
       0.441815             129         83.0639 
       0.447964         126.192         80.7835 
       0.454126         121.127         78.5143 
       0.460267         119.356         76.2476 
       0.466387         117.554         73.9903 
        0.47254         114.599         71.7407 
       0.478662         113.961         69.5702 
       0.484765         109.831          67.521 
       0.490885          108.04          65.599 
       0.497035         106.331         63.7916 
       0.503198          103.51         62.0917 
       0.509342         101.877         60.4866 
       0.515458         100.156         58.9481 
       0.521598         98.0269         57.4361 
       0.527764         96.8848         55.9373 
       0.533884         95.3613         54.4784 
           0.54         93.3455         53.0596 
       0.546137         92.3766         51.6827 
       0.552299         90.5794         50.3532 
       0.558452         88.9978         49.0831 
       0.564573         87.4505         47.8794 
       0.570708         85.6889         46.7288 
       0.576825         84.6796         45.6277 
       0.582926         82.7322         44.5642 
       0.589034         81.6007         43.5252 
       0.595184         80.4379         42.5037 
       0.601379         78.9642         41.5016 
       0.607522         77.5625         40.5372 
       0.613639         76.9059         39.6079 
       0.619772         75.3498         38.7074 
       0.625918         74.2684         37.8354 
       0.632068         73.3171         36.9919 
       0.638161         72.5414         36.1839 
         0.6443         71.5471         35.3962 
       0.650464         70.7648         34.6305 
       0.656582         69.3561         33.8934 
       0.662703         68.4104         33.1769 
       0.668861          67.277         32.4757 
       0.675024         66.5189         31.7924 
       0.681124         65.8257         31.1344 
       0.687237         64.4876         30.4931 
       0.693381         63.6104         29.8669 
       0.699536         63.0707          29.258 
       0.705665         62.7674         28.6698 
       0.711789         61.4458         28.0993 
       0.717957         61.0562         27.5413 
        0.72409         59.8903          27.002 
       0.730186         59.0059         26.4806 
       0.736317          58.731         25.9699 
       0.742472          58.086         25.4704 
       0.748622         57.2645         24.9842 
        0.75476         56.6906         24.5114 
       0.760888         55.9048         24.0514 
       0.767043         55.4302         23.6013 
       0.773185         54.7548         23.1638 
       0.779291         53.9827         22.7399 
       0.785407         53.5705         22.3263 
       0.791564         53.2287         21.9205 
       0.797719         52.0534         21.5252 
       0.803834          51.792         21.1423 
       0.809972         50.9742         20.7674 
       0.816124         50.6253         20.4009 
       0.822261         50.2124         20.0442 
       0.828378         49.8672         19.6972 
       0.834502         49.2743          19.358 
       0.840667         48.6689         19.0247 
       0.846816         47.9917         18.7002 
       0.852925         47.6283         18.3854 
       0.859047         46.9834         18.0771 
       0.865192         46.7138         17.7749 
       0.871341         46.2803         17.4794 
       0.877463         45.5521          17.192 
       0.883569         45.3502         16.9118 
       0.889708          44.872         16.6364 
       0.895864         44.5248         16.3665 
       0.902008         44.1003         16.1031 
       0.908149         43.7359         15.8457 
       0.914301         43.2786         15.5936 
       0.920448         42.9804         15.3472 
       0.926574         42.4421         15.1069 
       0.932687          42.316         14.8724 
       0.938823         41.7288          14.642 
       0.944975         41.2891          14.416 
       0.951105         40.9503         14.1956 
       0.957225         40.5291         13.9801 
       0.963368         40.2989         13.7685 
       0.969511         40.0143         13.5612 
       0.975621         39.8176         13.3593 
       0.981748         39.2897         13.1611 
       0.987916         38.8861         12.9656 
        0.99406         38.7134         12.7748 
        1.00019          38.364         12.5883 
        1.00632         38.0194         12.4057 
        1.01246            37.8         12.2264 
        1.01859         37.3472          12.051 
        1.02471         37.1231         11.8793 
        1.03085         36.8371         11.7103 
        1.03698         36.5142          11.545 
        1.04314         36.2589         11.3821 
        1.04929         35.9393         11.2228 
        1.05541         35.5515         11.0672 
        1.06154         35.5546         10.9142 
        1.06769         35.1494         10.7638 
        1.07382         34.9795         10.6168 
        1.07993         34.7522         10.4729 
        1.08607         34.4763          10.331 
        1.09222         34.2219         10.1916 
        1.09836         33.8629         10.0549 
        1.10449          33.763         9.92097 
        1.11063          33.356         9.78929 
        1.11677         33.1529         9.66005 
         1.1229         32.8935         9.53337 
        1.12903         32.5273         9.40885 
        1.13518         32.6095         9.28646 
        1.14131         32.3346         9.16632 
        1.14745         31.9879         9.04837 
        1.15359         31.8328         8.93248 
        1.15973         31.4621         8.81857 
        1.16584          31.333         8.70717 
        1.17197         31.1113         8.59753 
        1.17811         30.9898         8.48945 
        1.18424         30.6952         8.38354 
        1.19038         30.4832         8.27914 
        1.19652         30.4187         8.17655 
        1.20267         30.0982         8.07571 
        1.20881         29.9549          7.9766 
        1.21495         29.7017         7.87931 
        1.22108         29.6446         7.78366 
         1.2272         29.2414         7.68982 
        1.23334         29.1101         7.59732 
        1.23949         29.0805         7.50612 
        1.24562         28.7187         7.41668 
        1.25174         28.6488         7.32883 
        1.25789         28.5074         7.24214 
        1.26402         28.2003           7.157 
        1.27014         28.0597         7.07345 
        1.27628         27.8294         6.99098 
        1.28244         27.7571         6.90967 
        1.28858          27.582         6.82976 
        1.29471         27.4656          6.7513 
        1.30084         27.2937         6.67414 
        1.30697         27.1141         6.59807 
        1.31312         26.9405         6.52308 
        1.31925         26.7528         6.44949 
        1.32537         26.6005         6.37711 
        1.33151         26.4354         6.30557 
        1.33765         26.2961         6.23518 
        1.34378         26.1633         6.16599 
        1.34992         25.9666         6.09781 
        1.35606         25.8378         6.03052 
         1.3622         25.7406         5.96435 
        1.36833         25.5313         5.89934 
        1.37445         25.4055         5.83534 
        1.38059         25.2365         5.77208 
        1.38675          25.029         5.70961 
        1.39288         24.9939         5.64832 
        1.39901         24.8567         5.58795 
        1.40515         24.6614         5.52834 
         1.4113          24.514         5.46961 
        1.41742         24.4534         5.41196 
        1.42355         24.2811         5.35504 
         1.4297         24.1719         5.29876 
        1.43585         24.0947         5.24332 
        1.44198         23.8426         5.18888 
        1.44809         23.7933         5.13532 
        1.45423         23.6493         5.08231 
        1.46036         23.5712         5.03015 
        1.46649         23.4047         4.97871 
        1.47263         23.2669         4.92794 
        1.47877         23.1655          4.8779 
        1.48491         23.1572         4.82848 
        1.49104         22.8973         4.77985 
        1.49718         22.7491         4.73186 
        1.50333         22.7779         4.68444 
        1.50947         22.5806         4.63777 
         1.5156         22.4776         4.59181 
        1.52172          22.408         4.54647 
        1.52787         22.2635         4.50165 
          1.534         22.1606         4.45749 
        1.54013         22.0035         4.41396 
        1.54627         21.9528         4.37094 
        1.55241         21.7428         4.32848 
        1.55855         21.7113         4.28665 
        1.56467         21.5099         4.24548 
         1.5708         21.5468         4.20474 
        1.57695          21.376         4.16447 
        1.58308          21.237         4.12482 
        1.58922         21.1691         4.08566 
        1.59535         21.0806         4.04703 
         1.6015         20.9242         4.00883 
        1.60764         20.8203         3.97115 
        1.61376         20.7127         3.93406 
        1.61989         20.6355         3.89741 
        1.62604         20.5474         3.86115 
        1.63218         20.4867         3.82537 
        1.63831         20.3261         3.79012 
        1.64444         20.2491         3.75531 
        1.65059         20.1744         3.72085 
        1.65673         20.0581         3.68686 
        1.66285          19.994         3.65338 
        1.66898         19.8717         3.62032 
        1.67512         19.8091         3.58759 
        1.68127         19.6804         3.55525 
         1.6874         19.5524         3.52337 
        1.69353         19.5185          3.4919 
        1.69967         19.4035         3.46074 
        1.70581         19.3502         3.42998 
        1.71193         19.2866          3.3997 
        1.71806         19.1117         3.36973 
        1.72421         19.0481         3.34006 
        1.73035         18.9509         3.31078 
        1.73649         18.8851         3.28186 
        1.74262         18.8086          3.2533 
        1.74876         18.7275         3.22507 
        1.75489         18.6435         3.19722 
        1.76101         18.5703         3.16972 
        1.76715         18.4869          3.1425 
        1.77329         18.4473         3.11556 
        1.77943         18.3613         3.08893 
        1.78557         18.2145         3.06265 
        1.79171         18.1343         3.03667 
        1.79785         18.0604         3.01099 
        1.80399         18.0445          2.9856 
        1.81012           17.91         2.96055 
        1.81625         17.8813         2.93579 
        1.82239         17.7448         2.91128 
        1.82853         17.7087         2.88706 
        1.83466         17.6209         2.86314 
        1.84078         17.4772         2.83951 
        1.84692          17.455         2.81612 
        1.85306          17.384         2.79296 
         1.8592         17.2993         2.77009 
        1.86533         17.2312         2.74749 
        1.87147         17.1991         2.72512 
        1.87761          17.096         2.70299 
        1.88375         17.0234         2.68113 
        1.88988         16.9615         2.65953 
        1.89601         16.9189         2.63816 
        1.90215          16.826         2.61701 
        1.90829         16.7334          2.5961 
        1.91442         16.6802         2.57542 
        1.92056           16.61         2.55498 
         1.9267         16.5429         2.53474 
        1.93284         16.4313          2.5147 
        1.93897         16.4195         2.49492 
        1.94509         16.3356          2.4754 
        1.95123         16.2701         2.45603 
        1.95737         16.1936         2.43686 
        1.96349         16.1509         2.41795 
        1.96964         16.0804         2.39917 
        1.97578         15.9701         2.38059 
        1.98192         15.9098         2.36225 
        1.98805         15.8869         2.34409 
        1.99419         15.8106         2.32612 
        2.00033         15.7218         2.30834 
        2.00647         15.6699         2.29074 
         2.0126          15.598         2.27336 
        2.01874         15.5509         2.25613 
        2.02488         15.4965         2.23906 
        2.03101          15.452          2.2222 
        2.03714         15.3748         2.20553 
        2.04328         15.3039         2.18901 
        2.04941         15.2453         2.17268 
        2.05554         15.1842         2.15652 
        2.06167         15.1129          2.1405 
        2.06781         15.0663         2.12465 
        2.07396         15.0252         2.10893 
        2.08009         14.9614          2.0934 
        2.08622          14.856         2.07804 
        2.09237         14.8476         2.06281 
        2.09851         14.7795         2.04772 
        2.10464         14.6871         2.03281 
        2.11077         14.6709         2.01807 
        2.11691           14.61         2.00344 
        2.12305         14.5606         1.98895 
        2.12918         14.4817         1.97465 
        2.13531         14.4753         1.96048 
        2.14145         14.3926         1.94642 
         2.1476         14.3439         1.93248 
        2.15372         14.2641         1.91874 
        2.15985         14.2176         1.90513 
        2.16599         14.1621         1.89161 
        2.17213         14.1014         1.87823 
        2.17827         14.0448         1.86499 
         2.1844         13.9823         1.85188 
        2.19054         13.9573          1.8389 
        2.19666         13.8994         1.82606 
         2.2028         13.8348         1.81333 
        2.20893         13.7878         1.80071 
        2.21508         13.7432          1.7882 
        2.22122         13.6379         1.77581 
        2.22736         13.6222         1.76356 
        2.23349         13.5965         1.75142 
        2.23962         13.5445          1.7394 
        2.24577         13.4709         1.72748 
         2.2519         13.4372         1.71568 
        2.25802         13.3651         1.70401 
        2.26417         13.3304         1.69242 
        2.27031         13.2491         1.68093 
        2.27644         13.2319         1.66958 
        2.28257         13.1699         1.65833 
        2.28872         13.1225         1.64716 
        2.29486         13.0813          1.6361 
        2.30099         13.0182         1.62516 
        2.30712         12.9804         1.61432 
        2.31326         12.9539         1.60356 
         2.3194         12.8926          1.5929 
        2.32553         12.8452         1.58236 
        2.33166         12.7898         1.57192 
         2.3378         12.7602         1.56155 
        2.34394         12.6867         1.55128 
        2.35007         12.6639         1.54111 
        2.35619         12.6179         1.53105 
        2.36233         12.5609         1.52105 
        2.36848         12.5244         1.51112 
        2.37462         12.4578          1.5013 
        2.38075         12.4227         1.49158 
        2.38689         12.3751         1.48193 
        2.39303         12.3275         1.47237 
        2.39916         12.2984         1.46291 
        2.40529         12.2804         1.45353 
        2.41143          12.213         1.44422 
        2.41757          12.156         1.43499 
         2.4237         12.1118         1.42586 
        2.42983         12.0592         1.41681 
        2.43598         12.0319         1.40782 
        2.44211         11.9983         1.39891 
        2.44823         11.9657         1.39011 
        2.45437         11.9025         1.38135 
        2.46052         11.8632         1.37266 
        2.46665         11.8347         1.36407 
        2.47279         11.8007         1.35555 
        2.47892         11.7467         1.34709 
        2.48507         11.6889          1.3387 
         2.4912         11.6613          1.3304 
