# k  (h/Mpc)    Pcb(k)  (Mpc/h)^3    Pcb_linear(k)  (Mpc/h)^3
     0.00783031         7472.98         7508.24 
       0.013688         9485.18         9677.17 
       0.019231         10078.2         10192.9 
      0.0249154         9798.15            9796 
      0.0312784         8736.67          8811.1 
      0.0375637         7600.57         7711.65 
      0.0433917         6771.54         6806.53 
      0.0492413         6018.39         6092.52 
      0.0555754         5504.81         5534.22 
      0.0619321         4980.35         5135.74 
       0.067871         4747.46         4835.77 
      0.0738098         4480.87         4544.24 
      0.0800417         4158.22         4208.66 
      0.0862327         3774.24         3839.08 
      0.0921407         3423.88          3472.4 
      0.0982031         3107.72         3113.38 
       0.104506         2758.28         2789.26 
       0.110769         2523.31         2534.22 
       0.116806         2387.19         2352.38 
       0.122832         2231.89         2221.75 
       0.129052         2132.53         2120.49 
       0.135211         2070.53         2032.27 
       0.141259          1949.3         1940.47 
       0.147318         1819.57          1834.6 
       0.153489         1717.89          1712.6 
       0.159709         1628.11         1582.86 
       0.165845         1478.05         1459.02 
       0.171974         1423.43         1349.17 
       0.178125         1351.81         1258.55 
       0.184229         1250.95         1188.99 
        0.19034         1223.15         1136.41 
       0.196428         1186.06         1095.15 
       0.202534         1117.42         1058.24 
       0.208729         1100.32         1019.53 
       0.214876         1059.77         976.427 
       0.220989         994.563         928.418 
       0.227147         969.356         876.881 
        0.23329          928.71         825.683 
       0.239377         907.285         778.567 
       0.245482         858.389         737.316 
       0.251667         823.407         702.621 
       0.257832         813.154         674.603 
       0.263955         771.658         651.571 
       0.270079         748.383         631.124 
        0.27624         718.476         611.087 
       0.282372         704.806         590.168 
        0.28843         699.392         568.017 
       0.294538          664.07         544.451 
       0.300721         643.231         520.286 
        0.30691           631.9         496.939 
       0.313033          604.19         475.674 
       0.319153         593.791         456.819 
       0.325316         582.323          440.33 
        0.33145         569.589         426.046 
       0.337538         549.809         413.323 
       0.343633         534.156         401.312 
       0.349808          521.27          389.29 
       0.355968         511.361         377.039 
       0.362074         496.261         364.606 
       0.368217         492.155         351.945 
       0.374374         482.185         339.465 
       0.380519         463.112         327.558 
       0.386598         457.498         316.583 
       0.392688         447.514         306.545 
        0.39888         435.822          297.25 
       0.405048         428.551         288.774 
       0.411186         425.958         280.877 
       0.417313         419.602         273.282 
       0.423458          407.79         265.797 
       0.429607         397.906         258.334 
       0.435692         391.125         250.965 
       0.441815         384.757         243.651 
       0.447964         375.859         236.506 
       0.454126         370.801          229.64 
       0.460267         365.474         223.181 
       0.466387         359.267         217.146 
        0.47254         354.424         211.444 
       0.478662         345.494         206.087 
       0.484765         341.766         200.988 
       0.490885         337.846         196.037 
       0.497035         332.311         191.164 
       0.503198         330.385         186.371 
       0.509342         321.739         181.684 
       0.515458         317.731          177.12 
       0.521598         311.562         172.669 
       0.527764         307.591         168.368 
       0.533884         306.815         164.287 
           0.54         301.004         160.391 
       0.546137         294.523         156.647 
       0.552299          293.39         153.041 
       0.558452         288.531         149.573 
       0.564573         286.091         146.226 
       0.570708         281.131         142.953 
       0.576825         276.775         139.762 
       0.582926         274.124         136.656 
       0.589034         270.521          133.63 
       0.595184          268.69         130.672 
       0.601379         263.737         127.788 
       0.607522          259.14         125.022 
       0.613639         257.514         122.363 
       0.619772         255.704          119.79 
       0.625918         252.771         117.298 
       0.632068         248.057         114.881 
       0.638161         245.872         112.551 
         0.6443           244.4         110.262 
       0.650464         240.195          108.02 
       0.656582         238.401         105.851 
       0.662703         236.555         103.739 
       0.668861         232.264         101.673 
       0.675024         231.805         99.6646 
       0.681124         228.816         97.7334 
       0.687237         226.257         95.8521 
       0.693381         224.173         94.0138 
       0.699536         221.663         92.2226 
       0.705665         219.304         90.4876 
       0.711789         217.217         88.7999 
       0.717957         214.798         87.1441 
        0.72409         212.971         85.5396 
       0.730186         213.291         83.9845 
       0.736317         209.584         82.4582 
       0.742472         206.939         80.9635 
       0.748622         204.094         79.5067 
        0.75476         204.809         78.0889 
       0.760888         202.339         76.7085 
       0.767043         199.488          75.357 
       0.773185         197.895         74.0422 
       0.779291         195.295         72.7674 
       0.785407         194.279         71.5217 
       0.791564         192.614         70.2978 
       0.797719         189.985         69.1037 
       0.803834         190.411         67.9449 
       0.809972         188.868         66.8084 
       0.816124          186.17         65.6953 
       0.822261         184.421         64.6104 
       0.828378         184.435         63.5532 
       0.834502         181.372         62.5189 
       0.840667         180.994          61.501 
       0.846816         178.944         60.5088 
       0.852925         177.483         59.5451 
       0.859047         175.747         58.6007 
       0.865192         175.199         57.6739 
       0.871341         173.001         56.7668 
       0.877463         171.708         55.8835 
       0.883569         171.526         55.0215 
       0.889708         170.018         54.1735 
       0.895864         168.404         53.3413 
       0.902008         166.883         52.5285 
       0.908149         164.994         51.7331 
       0.914301         164.952         50.9531 
       0.920448         164.025           50.19 
       0.926574         161.706         49.4453 
       0.932687           161.3         48.7174 
       0.938823         160.098         48.0016 
       0.944975         158.529         47.2987 
       0.951105         157.299         46.6125 
       0.957225         156.934         45.9412 
       0.963368         155.329         45.2809 
       0.969511         153.832         44.6337 
       0.975621         152.756         44.0027 
       0.981748         151.616         43.3824 
       0.987916         150.897         42.7702 
        0.99406         150.022         42.1723 
        1.00019         148.795          41.587 
        1.00632         148.022         41.0135 
        1.01246         146.951           40.45 
        1.01859         145.951          39.898 
        1.02471         144.865         39.3572 
        1.03085         143.796         38.8245 
        1.03698         142.787          38.303 
        1.04314         142.141         37.7888 
        1.04929         141.555         37.2854 
        1.05541         140.548         36.7932 
        1.06154         139.583         36.3087 
        1.06769          138.41         35.8323 
        1.07382         137.639         35.3661 
        1.07993         136.879         34.9093 
        1.08607         135.747         34.4587 
        1.09222         135.218         34.0156 
        1.09836         133.991         33.5809 
        1.10449         133.101         33.1544 
        1.11063         132.355         32.7348 
        1.11677         131.585         32.3227 
         1.1229         130.585         31.9184 
        1.12903         130.109         31.5208 
        1.13518         129.227         31.1296 
        1.14131         128.475         30.7453 
        1.14745         127.633         30.3677 
        1.15359         126.303         29.9965 
        1.15973         125.954         29.6313 
        1.16584         125.197         29.2739 
        1.17197         124.516         28.9219 
        1.17811         123.506         28.5747 
        1.18424         122.853         28.2342 
        1.19038          122.48         27.8983 
        1.19652          121.46          27.568 
        1.20267         120.721         27.2431 
        1.20881         119.992         26.9235 
        1.21495         119.505         26.6096 
        1.22108          118.73         26.3008 
         1.2272         117.772         25.9976 
        1.23334         117.487         25.6986 
        1.23949         116.841         25.4035 
        1.24562         115.854          25.114 
        1.25174          115.03         24.8294 
        1.25789         114.801         24.5483 
        1.26402         114.089         24.2722 
        1.27014         113.475          24.001 
        1.27628         112.281         23.7331 
        1.28244         112.162         23.4689 
        1.28858         111.215          23.209 
        1.29471         110.569         22.9537 
        1.30084         109.922         22.7024 
        1.30697         109.717         22.4546 
        1.31312          108.86         22.2101 
        1.31925          108.15         21.9701 
        1.32537         107.677         21.7339 
        1.33151         107.396         21.5003 
        1.33765         106.341         21.2702 
        1.34378         106.176         21.0441 
        1.34992         105.681          20.821 
        1.35606          104.85         20.6007 
         1.3622         104.592         20.3841 
        1.36833         103.512          20.171 
        1.37445         103.075         19.9611 
        1.38059         102.678         19.7536 
        1.38675         101.807         19.5486 
        1.39288         101.543         19.3472 
        1.39901          100.57         19.1489 
        1.40515         100.352         18.9528 
         1.4113         99.8759         18.7596 
        1.41742         99.1212         18.5699 
        1.42355         98.7651         18.3824 
         1.4297         98.1083          18.197 
        1.43585         97.4958         18.0142 
        1.44198         97.0203         17.8346 
        1.44809         96.3714         17.6578 
        1.45423         96.0069         17.4828 
        1.46036         95.2737         17.3104 
        1.46649         94.8137         17.1404 
        1.47263          94.496         16.9725 
        1.47877         93.9757         16.8069 
        1.48491         93.3739         16.6433 
        1.49104         92.5854         16.4822 
        1.49718         92.4771         16.3232 
        1.50333         91.9041          16.166 
        1.50947         91.6121         16.0112 
         1.5156         91.1529         15.8586 
        1.52172         90.4564         15.7081 
        1.52787         89.9359         15.5592 
          1.534         89.6122         15.4124 
        1.54013         89.2407         15.2677 
        1.54627         88.4509         15.1246 
        1.55241         88.0552         14.9833 
        1.55855         87.6744          14.844 
        1.56467         86.8619         14.7069 
         1.5708          86.683         14.5711 
        1.57695         86.2739         14.4369 
        1.58308         85.8202         14.3046 
        1.58922         85.4666         14.1739 
        1.59535         85.1358         14.0449 
         1.6015         84.7411         13.9173 
        1.60764         84.2179         13.7914 
        1.61376         83.6533         13.6674 
        1.61989         83.0569         13.5448 
        1.62604         82.8222         13.4235 
        1.63218         82.5294         13.3037 
        1.63831         82.0194         13.1856 
        1.64444         81.6824          13.069 
        1.65059         81.1861         12.9535 
        1.65673         80.6112         12.8395 
        1.66285         80.1326         12.7272 
        1.66898         79.7069         12.6162 
        1.67512         79.5095         12.5064 
        1.68127         79.1176         12.3977 
         1.6874          78.603         12.2906 
        1.69353         78.2373         12.1848 
        1.69967         77.9514           12.08 
        1.70581         77.5071         11.9765 
        1.71193         77.0746         11.8746 
        1.71806         76.5142         11.7737 
        1.72421         76.3393         11.6738 
        1.73035         76.1003         11.5751 
        1.73649           75.52         11.4776 
        1.74262         74.9432         11.3813 
        1.74876         74.7649          11.286 
        1.75489         74.1957         11.1921 
        1.76101         73.8362         11.0992 
        1.76715         73.7158         11.0073 
        1.77329           73.11         10.9163 
        1.77943          72.913         10.8263 
        1.78557         72.6177         10.7374 
        1.79171         72.1777         10.6495 
        1.79785          71.779         10.5626 
        1.80399         71.4111         10.4767 
        1.81012         71.0425         10.3918 
        1.81625         70.8145          10.308 
        1.82239         70.4921         10.2249 
        1.82853          69.938         10.1428 
        1.83466         69.6928         10.0617 
        1.84078         69.3427         9.98151 
        1.84692         69.0882          9.9021 
        1.85306         68.7114         9.82347 
         1.8592         68.4111         9.74581 
        1.86533         67.9446         9.66904 
        1.87147         67.6359           9.593 
        1.87761         67.2341         9.51776 
        1.88375         66.8879         9.44341 
        1.88988         66.6111         9.36994 
        1.89601         66.2144         9.29721 
        1.90215         65.8642          9.2252 
        1.90829          65.689         9.15398 
        1.91442         65.2955         9.08352 
        1.92056         64.9962         9.01386 
         1.9267         64.6694         8.94486 
        1.93284         64.4687         8.87654 
        1.93897          64.131         8.80907 
        1.94509         63.6953         8.74245 
        1.95123         63.4207         8.67635 
        1.95737         63.0465         8.61088 
        1.96349         62.8029         8.54626 
        1.96964         62.4494         8.48212 
        1.97578         62.1264         8.41861 
        1.98192         61.8547         8.35588 
        1.98805         61.5142         8.29379 
        1.99419         61.2066         8.23232 
        2.00033         60.9337         8.17145 
        2.00647         60.6854         8.11121 
         2.0126         60.3029         8.05168 
        2.01874         60.1521         7.99266 
        2.02488         59.7981         7.93419 
        2.03101         59.4925          7.8764 
        2.03714         59.3191         7.81925 
        2.04328         58.9143          7.7626 
        2.04941         58.5351         7.70656 
        2.05554          58.461         7.65111 
        2.06167         58.2555         7.59614 
        2.06781         57.6934         7.54169 
        2.07396         57.4377         7.48771 
        2.08009         57.3024         7.43434 
        2.08622         56.9593         7.38156 
        2.09237          56.662         7.32919 
        2.09851         56.3615         7.27732 
        2.10464         56.1223         7.22603 
        2.11077         55.9121          7.1753 
        2.11691         55.5556         7.12495 
        2.12305          55.268         7.07508 
        2.12918         55.0226         7.02581 
        2.13531          54.814           6.977 
        2.14145         54.4602         6.92855 
         2.1476         54.2751          6.8805 
        2.15372         54.1073         6.83314 
        2.15985         53.6961         6.78619 
        2.16599         53.4541         6.73954 
        2.17213         53.2292         6.69339 
        2.17827         52.9803         6.64768 
         2.1844         52.6905         6.60243 
        2.19054          52.475         6.55759 
        2.19666         52.1511         6.51324 
         2.2028         51.9277         6.46925 
        2.20893         51.6257         6.42565 
        2.21508         51.3829         6.38241 
        2.22122          51.181         6.33954 
        2.22736          50.856         6.29716 
        2.23349         50.7467         6.25518 
        2.23962         50.4528         6.21356 
        2.24577         50.2307         6.17229 
         2.2519         49.9386         6.13144 
        2.25802         49.7664         6.09103 
        2.26417         49.5276         6.05088 
        2.27031         49.2408         6.01104 
        2.27644         49.1021         5.97169 
        2.28257         48.6946         5.93269 
        2.28872          48.702         5.89396 
        2.29486         48.3752         5.85559 
        2.30099         48.0251         5.81764 
        2.30712         47.9474         5.78001 
        2.31326         47.6195         5.74265 
         2.3194         47.3616         5.70564 
        2.32553         47.2895         5.66902 
        2.33166         46.8796         5.63274 
         2.3378         46.6927         5.59672 
        2.34394         46.4823         5.56101 
        2.35007         46.2492         5.52567 
        2.35619         46.1703         5.49067 
        2.36233         45.7627         5.45589 
        2.36848         45.6326         5.42135 
        2.37462         45.3722         5.38718 
        2.38075         45.2679         5.35333 
        2.38689          45.079         5.31975 
        2.39303         44.8434         5.28646 
        2.39916         44.5845         5.25349 
        2.40529         44.3885          5.2208 
        2.41143         44.1468         5.18837 
        2.41757         43.9919          5.1562 
         2.4237         43.8205         5.12437 
        2.42983         43.5345          5.0928 
        2.43598         43.3159         5.06142 
        2.44211         43.1638         5.03035 
        2.44823         42.9261         4.99962 
        2.45437          42.784         4.96906 
        2.46052         42.4639         4.93872 
        2.46665         42.3244          4.9087 
        2.47279         42.0902         4.87893 
        2.47892         41.9194          4.8494 
        2.48507         41.7985         4.82008 
         2.4912          41.499         4.79105 
