# k  (h/Mpc)    Pcb(k)  (Mpc/h)^3    Pcb_linear(k)  (Mpc/h)^3
     0.00783031         12941.5         13022.8 
       0.013688         14345.4           14677 
       0.019231           13651         13819.5 
      0.0249154         12012.8         11945.6 
      0.0312784         9642.82         9676.47 
      0.0375637         7749.13         7819.02 
      0.0433917         6600.53         6588.17 
      0.0492413         5751.74         5772.73 
      0.0555754         5232.38         5208.35 
      0.0619321          4689.4         4795.14 
       0.067871         4386.94         4420.81 
      0.0738098         4000.45         3999.14 
      0.0800417         3536.37         3511.16 
      0.0862327         3047.97         3029.95 
      0.0921407         2671.22          2626.7 
      0.0982031         2382.54         2302.95 
       0.104506         2110.79         2068.57 
       0.110769         1970.58         1919.18 
       0.116806          1894.3         1822.35 
       0.122832         1786.65         1739.51 
       0.129052         1686.77         1642.96 
       0.135211         1601.58         1525.46 
       0.141259         1454.05         1393.43 
       0.147318         1315.16         1258.43 
       0.153489          1206.7         1133.64 
       0.159709         1133.59         1031.64 
       0.165845         1033.32         957.288 
       0.171974         1007.96         905.127 
       0.178125         968.179         866.851 
       0.184229         903.723         833.725 
        0.19034         881.771         798.158 
       0.196428         846.865         756.796 
       0.202534         781.062         709.865 
       0.208729         758.345         660.184 
       0.214876         715.843         613.287 
       0.220989         666.433         572.529 
       0.227147         646.164         539.032 
        0.23329         618.794         512.762 
       0.239377          609.37         491.894 
       0.245482         577.199         473.635 
       0.251667         554.344         455.567 
       0.257832         545.071         436.513 
       0.263955         513.645         416.235 
       0.270079         492.088          395.24 
        0.27624         470.216         374.508 
       0.282372         457.987         355.377 
        0.28843         451.809         338.624 
       0.294538         427.776         324.052 
       0.300721         414.575          311.34 
        0.30691         406.354         300.006 
       0.313033         387.028          289.48 
       0.319153         380.334         279.098 
       0.325316         372.175         268.532 
        0.33145         361.773         257.923 
       0.337538         347.552          247.53 
       0.343633         336.988         237.554 
       0.349808         327.426         228.127 
       0.355968         320.697         219.543 
       0.362074         309.158         211.802 
       0.368217         306.064         204.668 
       0.374374         299.174         197.973 
       0.380519          286.55         191.567 
       0.386598         282.585         185.385 
       0.392688         274.479         179.289 
        0.39888         267.905         173.222 
       0.405048          261.55         167.369 
       0.411186         259.939         161.798 
       0.417313         255.149         156.549 
       0.423458         248.082         151.605 
       0.429607         240.625         146.955 
       0.435692           236.9          142.61 
       0.441815         232.041         138.437 
       0.447964         225.908         134.396 
       0.454126         222.801         130.472 
       0.460267         219.365         126.677 
       0.466387         214.005         123.008 
        0.47254         211.403         119.448 
       0.478662         205.717         116.052 
       0.484765         202.598         112.816 
       0.490885          199.64         109.715 
       0.497035         196.215         106.738 
       0.503198         194.645         103.882 
       0.509342         189.718         101.143 
       0.515458         186.449         98.5084 
       0.521598         182.332         95.9468 
       0.527764         180.484         93.4575 
       0.533884         178.948         91.0679 
           0.54         175.355         88.7607 
       0.546137         171.268         86.5261 
       0.552299         169.478         84.3645 
       0.558452         166.599         82.2875 
       0.564573         165.732         80.2966 
       0.570708         161.518         78.3701 
       0.576825         159.287         76.5124 
       0.582926         157.707         74.7181 
       0.589034         154.954         72.9775 
       0.595184         153.525         71.2797 
       0.601379         150.925         69.6234 
       0.607522         147.319         68.0324 
       0.613639          146.55         66.4977 
       0.619772         144.982         65.0074 
       0.625918         143.387         63.5612 
       0.632068         140.233         62.1598 
       0.638161         139.454         60.8143 
         0.6443         137.809         59.4996 
       0.650464         135.291          58.219 
       0.656582         134.167         56.9847 
       0.662703         133.126         55.7852 
       0.668861         130.187          54.613 
       0.675024         129.994         53.4735 
       0.681124         127.967         52.3782 
       0.687237         126.723         51.3118 
       0.693381          124.59         50.2707 
       0.699536          123.75          49.257 
       0.705665         122.367         48.2759 
       0.711789         120.552         47.3227 
       0.717957         119.362         46.3887 
        0.72409         117.789         45.4851 
       0.730186         117.919         44.6109 
       0.736317         116.213          43.755 
       0.742472         114.296         42.9184 
       0.748622          112.67         42.1045 
        0.75476         112.987         41.3136 
       0.760888         111.469         40.5444 
       0.767043         109.432         39.7918 
       0.773185         108.234         39.0601 
       0.779291         107.234          38.351 
       0.785407         106.505         37.6586 
       0.791564         105.489         36.9791 
       0.797719         103.762         36.3167 
       0.803834         103.918         35.6747 
       0.809972         102.755          35.046 
       0.816124         100.934         34.4311 
       0.822261         100.291         33.8327 
       0.828378         99.8714         33.2503 
       0.834502         98.8681         32.6811 
       0.840667         98.2492         32.1217 
       0.846816         96.8143         31.5769 
       0.852925           96.05         31.0483 
       0.859047         95.1907         30.5306 
       0.865192         94.5181         30.0231 
       0.871341         93.6739         29.5268 
       0.877463         92.7201          29.044 
       0.883569         92.6593         28.5733 
       0.889708         91.6963         28.1105 
       0.895864         90.7723         27.6569 
       0.902008         89.7106         27.2142 
       0.908149         88.7237         26.7815 
       0.914301         88.3694         26.3575 
       0.920448         88.3497         25.9431 
       0.926574         86.5495         25.5391 
       0.932687         86.4864         25.1445 
       0.938823         85.8827         24.7569 
       0.944975         85.0965         24.3766 
       0.951105         84.2333         24.0056 
       0.957225         83.8158          23.643 
       0.963368         83.0251         23.2867 
       0.969511         82.5102         22.9378 
       0.975621         81.3444         22.5978 
       0.981748         81.0624         22.2639 
       0.987916         80.3973         21.9347 
        0.99406         80.1062         21.6134 
        1.00019         79.2994         21.2992 
        1.00632         78.5589         20.9915 
        1.01246         78.1688         20.6894 
        1.01859         77.7177         20.3938 
        1.02471         77.2009         20.1044 
        1.03085         76.4353         19.8196 
        1.03698         75.8306         19.5409 
        1.04314         75.4152         19.2664 
        1.04929         75.0632         18.9978 
        1.05541         74.3756         18.7354 
        1.06154         73.7426         18.4773 
        1.06769         73.3377         18.2237 
        1.07382         72.8441         17.9757 
        1.07993         72.4778         17.7329 
        1.08607         71.9753         17.4936 
        1.09222         71.4521         17.2585 
        1.09836         70.9234         17.0279 
        1.10449         70.4964         16.8018 
        1.11063         70.0093         16.5796 
        1.11677         69.6737         16.3615 
         1.1229         68.8838         16.1476 
        1.12903         68.5702         15.9374 
        1.13518         68.0566         15.7308 
        1.14131         67.7193         15.5279 
        1.14745         67.4661         15.3287 
        1.15359         66.6457          15.133 
        1.15973         66.4926         14.9406 
        1.16584         66.0523         14.7525 
        1.17197         65.6754         14.5673 
        1.17811         65.1606         14.3847 
        1.18424         64.6419         14.2057 
        1.19038          64.427         14.0293 
        1.19652         64.0856          13.856 
        1.20267         63.5846         13.6856 
        1.20881         63.1135         13.5181 
        1.21495         62.8005         13.3536 
        1.22108         62.5673          13.192 
         1.2272         62.1032         13.0333 
        1.23334         61.8672          12.877 
        1.23949         61.3386         12.7228 
        1.24562         60.8564         12.5716 
        1.25174         60.7911          12.423 
        1.25789         60.3408         12.2764 
        1.26402          59.972         12.1325 
        1.27014         59.5383         11.9912 
        1.27628         59.2654         11.8517 
        1.28244         59.1857         11.7142 
        1.28858         58.6416          11.579 
        1.29471         58.2171         11.4463 
        1.30084         57.7797         11.3157 
        1.30697         57.6754         11.1871 
        1.31312         57.4111         11.0602 
        1.31925         56.8518         10.9357 
        1.32537         56.6233         10.8132 
        1.33151         56.4385         10.6922 
        1.33765         56.0409         10.5731 
        1.34378         55.6777          10.456 
        1.34992         55.4915         10.3406 
        1.35606         55.1265         10.2267 
         1.3622         54.9173         10.1148 
        1.36833         54.5351         10.0047 
        1.37445         54.1911         9.89639 
        1.38059         53.9471         9.78931 
        1.38675         53.5391         9.68356 
        1.39288         53.3367         9.57979 
        1.39901         52.9921         9.47758 
        1.40515         52.7028         9.37663 
         1.4113         52.4888         9.27719 
        1.41742          52.163         9.17956 
        1.42355         52.0362         9.08316 
         1.4297         51.6945         8.98785 
        1.43585         51.5265         8.89394 
        1.44198         51.0581         8.80173 
        1.44809         50.7042         8.71101 
        1.45423         50.7017         8.62122 
        1.46036         50.3942         8.53286 
        1.46649         49.9852         8.44571 
        1.47263         49.7242          8.3597 
        1.47877         49.5407         8.27493 
        1.48491         49.1416          8.1912 
        1.49104         49.0027         8.10881 
        1.49718         48.7336         8.02748 
        1.50333         48.5739         7.94714 
        1.50947         48.2913         7.86807 
         1.5156         48.1349         7.79018 
        1.52172         47.7354         7.71335 
        1.52787         47.5448          7.6374 
          1.534         47.2337         7.56256 
        1.54013          47.193         7.48881 
        1.54627          46.731          7.4159 
        1.55241         46.6967         7.34395 
        1.55855         46.2746         7.27305 
        1.56467         45.9326         7.20328 
         1.5708         45.9744         7.13422 
        1.57695         45.6128         7.06597 
        1.58308          45.428         6.99876 
        1.58922         45.2074         6.93238 
        1.59535         45.1819         6.86688 
         1.6015         44.8819         6.80213 
        1.60764         44.6391         6.73824 
        1.61376          44.419         6.67535 
        1.61989         44.0339         6.61321 
        1.62604          43.949         6.55172 
        1.63218         43.6667         6.49105 
        1.63831         43.5433         6.43128 
        1.64444         43.3736         6.37225 
        1.65059          43.065         6.31381 
        1.65673         42.8884         6.25617 
        1.66285         42.6375          6.1994 
        1.66898         42.3947         6.14332 
        1.67512         42.1563         6.08783 
        1.68127         42.1573         6.03296 
         1.6874         41.8988          5.9789 
        1.69353         41.6377         5.92553 
        1.69967         41.4822         5.87268 
        1.70581         41.2721          5.8205 
        1.71193         40.9954         5.76914 
        1.71806         40.9137          5.7183 
        1.72421          40.658         5.66797 
        1.73035          40.516          5.6183 
        1.73649         40.2743         5.56923 
        1.74262         40.0398         5.52079 
        1.74876         40.0435         5.47289 
        1.75489         39.7594         5.42566 
        1.76101         39.6427           5.379 
        1.76715         39.3724         5.33282 
        1.77329         39.1611         5.28712 
        1.77943         39.1053         5.24194 
        1.78557          38.859         5.19736 
        1.79171         38.6308         5.15328 
        1.79785         38.5115          5.1097 
        1.80399         38.3113         5.06664 
        1.81012         38.0829         5.02413 
        1.81625         37.9574         4.98212 
        1.82239         37.7329         4.94053 
        1.82853          37.624         4.89943 
        1.83466         37.4055         4.85884 
        1.84078         37.2203         4.81874 
        1.84692         37.1619         4.77904 
        1.85306         36.9392         4.73973 
         1.8592         36.6784         4.70092 
        1.86533          36.606         4.66257 
        1.87147         36.3763          4.6246 
        1.87761         36.2554         4.58704 
        1.88375         36.0857         4.54994 
        1.88988         35.8631         4.51328 
        1.89601         35.8094         4.47701 
        1.90215         35.5506         4.44111 
        1.90829         35.4613         4.40562 
        1.91442         35.2319         4.37051 
        1.92056         35.1257         4.33581 
         1.9267         34.9902         4.30146 
        1.93284         34.8662         4.26745 
        1.93897         34.5672         4.23388 
        1.94509         34.5034         4.20074 
        1.95123         34.3252         4.16786 
        1.95737         34.2646         4.13532 
        1.96349         34.0948         4.10321 
        1.96964         33.9069         4.07134 
        1.97578         33.7516          4.0398 
        1.98192         33.5316         4.00865 
        1.98805         33.3612         3.97783 
        1.99419         33.3019         3.94732 
        2.00033         33.1395         3.91713 
        2.00647         32.9673         3.88725 
         2.0126         32.8391         3.85774 
        2.01874         32.7716         3.82849 
        2.02488         32.5381         3.79951 
        2.03101         32.4707         3.77089 
        2.03714         32.2956         3.74259 
        2.04328         32.1986         3.71455 
        2.04941         31.9062         3.68681 
        2.05554         31.8644         3.65938 
        2.06167         31.7026         3.63219 
        2.06781         31.6096         3.60527 
        2.07396         31.3979         3.57859 
        2.08009          31.301         3.55221 
        2.08622         31.2135         3.52614 
        2.09237         31.0367         3.50027 
        2.09851         30.8535         3.47466 
        2.10464         30.7819         3.44935 
        2.11077         30.6532         3.42431 
        2.11691          30.478         3.39947 
        2.12305          30.346         3.37488 
        2.12918         30.2503         3.35058 
        2.13531         29.9802         3.32652 
        2.14145         29.9547         3.30264 
         2.1476         29.8816         3.27897 
        2.15372         29.7567         3.25565 
        2.15985          29.548         3.23253 
        2.16599         29.4046         3.20957 
        2.17213         29.3773         3.18685 
        2.17827         29.2322         3.16436 
         2.1844         29.0387          3.1421 
        2.19054          29.007         3.12006 
        2.19666          28.834         3.09825 
         2.2028         28.6597         3.07663 
        2.20893         28.5933         3.05521 
        2.21508          28.474         3.03396 
        2.22122          28.335         3.01291 
        2.22736         28.1667         2.99211 
        2.23349          28.111          2.9715 
        2.23962         28.0033         2.95108 
        2.24577          27.872         2.93083 
         2.2519         27.7419          2.9108 
        2.25802         27.5781         2.89098 
        2.26417         27.4284          2.8713 
        2.27031         27.3506         2.85177 
        2.27644          27.306         2.83249 
        2.28257         27.1702         2.81339 
        2.28872         27.0219         2.79442 
        2.29486         26.9546         2.77564 
        2.30099         26.8378         2.75706 
        2.30712         26.7019         2.73864 
        2.31326         26.5928         2.72037 
         2.3194         26.4592         2.70226 
        2.32553         26.3896         2.68436 
        2.33166         26.2439         2.66662 
         2.3378         26.1379         2.64902 
        2.34394         26.0371         2.63157 
        2.35007         25.9372          2.6143 
        2.35619         25.8145         2.59721 
        2.36233         25.7197         2.58023 
        2.36848         25.6474         2.56336 
        2.37462         25.5072         2.54668 
        2.38075         25.4153         2.53017 
        2.38689          25.293         2.51379 
        2.39303         25.1911         2.49755 
        2.39916         25.0612         2.48148 
        2.40529         24.9953         2.46554 
        2.41143         24.9261         2.44974 
        2.41757         24.7856         2.43406 
         2.4237         24.6749         2.41855 
        2.42983         24.5363         2.40318 
        2.43598         24.4772          2.3879 
        2.44211         24.3321         2.37278 
        2.44823         24.2672         2.35782 
        2.45437         24.1795         2.34295 
        2.46052         24.0424         2.32819 
        2.46665         23.9927         2.31359 
        2.47279         23.8179         2.29912 
        2.47892         23.8092         2.28476 
        2.48507         23.6788         2.27051 
         2.4912         23.5647          2.2564 
