# k  (h/Mpc)    Pcb(k)  (Mpc/h)^3    Pcb_linear(k)  (Mpc/h)^3
     0.00783031          735.05         742.504 
       0.013688         868.977         870.864 
       0.019231         844.833         844.772 
      0.0249154         748.183         751.092 
      0.0312784         628.579         628.206 
      0.0375637         525.878         524.166 
      0.0433917         453.834         453.752 
      0.0492413          406.36         405.723 
      0.0555754         369.069         370.183 
      0.0619321          342.36         341.161 
       0.067871         312.473         313.183 
      0.0738098         281.394          282.09 
      0.0800417         246.853         247.784 
      0.0862327         215.719         215.747 
      0.0921407         190.554         190.177 
      0.0982031          170.38         170.415 
       0.104506         157.233         156.302 
       0.110769         147.401         146.793 
       0.116806         139.415         139.507 
       0.122832         132.422         132.089 
       0.129052         122.986         123.169 
       0.135211          112.98         113.105 
       0.141259         103.285         102.891 
       0.147318         94.1635         93.4154 
       0.153489         85.9057         85.3762 
       0.159709          79.786         79.2175 
       0.165845         75.7855         74.8083 
       0.171974         71.8806         71.4695 
       0.178125         69.0055         68.5045 
       0.184229          66.012         65.4071 
        0.19034         62.0487         61.9051 
       0.196428         58.5885         58.0781 
       0.202534         55.0881         54.1718 
       0.208729          51.188         50.4711 
       0.214876         47.8419         47.3039 
       0.220989         45.6046         44.7368 
       0.227147         43.1903         42.6671 
        0.23329         41.4609         40.9463 
       0.239377         39.9819         39.3848 
       0.245482         38.1723         37.8067 
       0.251667         36.7695         36.1183 
       0.257832         34.9599         34.3592 
       0.263955         33.2688         32.6116 
       0.270079          31.636         30.9533 
        0.27624         30.3212         29.4497 
       0.282372         29.0166         28.1441 
        0.28843         27.7619         27.0267 
       0.294538         26.7287         26.0273 
       0.300721         25.9343          25.088 
        0.30691         24.8539         24.1713 
       0.313033         23.9555         23.2608 
       0.319153         22.8307         22.3467 
       0.325316         22.2304         21.4387 
        0.33145         21.3084         20.5727 
       0.337538         20.5297         19.7712 
       0.343633         19.7202         19.0359 
       0.349808         19.1035         18.3582 
       0.355968         18.4848         17.7358 
       0.362074         17.8649         17.1567 
       0.368217          17.307         16.5959 
       0.374374           16.69         16.0469 
       0.380519         16.2177         15.5093 
       0.386598         15.7247         14.9899 
       0.392688         15.2787         14.4888 
        0.39888         14.7512         14.0043 
       0.405048         14.3211         13.5497 
       0.411186         13.9096         13.1258 
       0.417313         13.4487         12.7273 
       0.423458          13.089         12.3476 
       0.429607         12.6872         11.9835 
       0.435692         12.3174         11.6351 
       0.441815         11.9956         11.2943 
       0.447964          11.727         10.9626 
       0.454126         11.3139         10.6419 
       0.460267         11.0331         10.3347 
       0.466387         10.6863          10.042 
        0.47254          10.449         9.76151 
       0.478662         10.2137         9.49511 
       0.484765         9.90279         9.24059 
       0.490885         9.65849         8.99513 
       0.497035         9.49749         8.75719 
       0.503198         9.22231          8.5266 
       0.509342         8.99792         8.30391 
       0.515458         8.76024         8.08947 
       0.521598          8.5662         7.88173 
       0.527764          8.3364         7.68082 
       0.533884         8.18518         7.48884 
           0.54         7.98101         7.30404 
       0.546137         7.81172         7.12529 
       0.552299          7.6444         6.95213 
       0.558452         7.42174         6.78511 
       0.564573         7.29457         6.62427 
       0.570708         7.13309         6.46801 
       0.576825         6.95042         6.31704 
       0.582926         6.82029          6.1712 
       0.589034          6.6244         6.02986 
       0.595184         6.50739         5.89221 
       0.601379         6.35861         5.75809 
       0.607522         6.25733         5.62935 
       0.613639         6.15625         5.50514 
       0.619772         5.98426         5.38441 
       0.625918          5.9023         5.26706 
       0.632068         5.80245         5.15316 
       0.638161         5.65617         5.04365 
         0.6443         5.53874         4.93655 
       0.650464         5.41463         4.83218 
       0.656582         5.34889         4.73159 
       0.662703         5.24265         4.63386 
       0.668861         5.15143         4.53835 
       0.675024         5.03867         4.44549 
       0.681124         4.93886          4.3562 
       0.687237         4.86331         4.26921 
       0.693381         4.77822         4.18422 
       0.699536         4.65118         4.10142 
       0.705665         4.58282         4.02123 
       0.711789         4.50766         3.94327 
       0.717957         4.41917         3.86686 
        0.72409         4.34193          3.7929 
       0.730186         4.26989         3.72134 
       0.736317         4.22299         3.65124 
       0.742472         4.14838          3.5827 
       0.748622         4.06687           3.516 
        0.75476         3.98219         3.45114 
       0.760888         3.92152         3.38803 
       0.767043         3.87411         3.32626 
       0.773185         3.79042         3.26617 
       0.779291         3.74503         3.20791 
       0.785407         3.67922         3.15099 
       0.791564         3.62452         3.09511 
       0.797719         3.56678         3.04062 
       0.803834         3.52292         2.98779 
       0.809972         3.46905         2.93604 
       0.816124         3.40057         2.88541 
       0.822261         3.33827         2.83611 
       0.828378         3.29651         2.78813 
       0.834502          3.2623         2.74121 
       0.840667         3.19044         2.69508 
       0.846816         3.14027         2.65015 
       0.852925         3.11161         2.60653 
       0.859047         3.06358          2.5638 
       0.865192         3.02046          2.5219 
       0.871341         2.98184         2.48091 
       0.877463         2.94005         2.44102 
       0.883569         2.88554         2.40211 
       0.889708         2.84148         2.36386 
       0.895864         2.80366         2.32635 
       0.902008          2.7617         2.28974 
       0.908149         2.73022         2.25393 
       0.914301         2.67794         2.21884 
       0.920448         2.64433         2.18454 
       0.926574         2.60512         2.15108 
       0.932687         2.57324          2.1184 
       0.938823         2.54494         2.08628 
       0.944975         2.50876         2.05476 
       0.951105         2.47862         2.02401 
       0.957225         2.45942         1.99394 
       0.963368         2.42108         1.96438 
       0.969511         2.38368         1.93542 
       0.975621         2.34764         1.90721 
       0.981748         2.32575         1.87948 
       0.987916         2.29288         1.85214 
        0.99406         2.25489         1.82544 
        1.00019         2.23289         1.79933 
        1.00632         2.20343         1.77375 
        1.01246         2.17703         1.74863 
        1.01859         2.15118         1.72404 
        1.02471          2.1223         1.69996 
        1.03085          2.0982         1.67625 
        1.03698          2.0688         1.65305 
        1.04314          2.0481         1.63019 
        1.04929         2.02095         1.60781 
        1.05541         1.99815         1.58595 
        1.06154         1.97373         1.56444 
        1.06769         1.95455          1.5433 
        1.07382         1.92667         1.52262 
        1.07993         1.89893         1.50236 
        1.08607         1.88821          1.4824 
        1.09222         1.86084         1.46277 
        1.09836         1.84595         1.44353 
        1.10449         1.82367         1.42466 
        1.11063         1.79666          1.4061 
        1.11677         1.77716         1.38788 
         1.1229         1.75786         1.37002 
        1.12903         1.73601         1.35246 
        1.13518           1.721         1.33519 
        1.14131         1.69623         1.31824 
        1.14745         1.66872         1.30158 
        1.15359          1.6598         1.28522 
        1.15973         1.63387         1.26913 
        1.16584         1.62705         1.25339 
        1.17197         1.60649         1.23789 
        1.17811         1.59173         1.22261 
        1.18424         1.57714         1.20763 
        1.19038         1.55668         1.19286 
        1.19652         1.53925         1.17835 
        1.20267         1.52718         1.16407 
        1.20881         1.50613         1.15004 
        1.21495         1.49467         1.13626 
        1.22108         1.47897         1.12271 
         1.2272         1.46754         1.10941 
        1.23334         1.44771         1.09629 
        1.23949         1.43175         1.08336 
        1.24562          1.4212         1.07068 
        1.25174         1.40474         1.05821 
        1.25789         1.39187         1.04591 
        1.26402         1.37359         1.03382 
        1.27014         1.36059         1.02196 
        1.27628         1.35409         1.01024 
        1.28244         1.33355        0.998688 
        1.28858         1.32307        0.987331 
        1.29471         1.30937        0.976176 
        1.30084         1.29481        0.965203 
        1.30697         1.28554        0.954384 
        1.31312          1.2661        0.943714 
        1.31925         1.25951        0.933242 
        1.32537         1.24733        0.922939 
        1.33151          1.2375        0.912755 
        1.33765         1.22285        0.902731 
        1.34378         1.20996        0.892878 
        1.34992         1.20345        0.883166 
        1.35606         1.18667        0.873577 
         1.3622         1.17974        0.864148 
        1.36833         1.16775        0.854881 
        1.37445         1.15398        0.845754 
        1.38059          1.1458        0.836734 
        1.38675         1.14136        0.827824 
        1.39288         1.12568        0.819079 
        1.39901         1.11466        0.810464 
        1.40515         1.10594        0.801955 
         1.4113         1.09557        0.793571 
        1.41742           1.086        0.785339 
        1.42355         1.08132        0.777209 
         1.4297         1.06636        0.769169 
        1.43585         1.05868        0.761246 
        1.44198         1.05307        0.753466 
        1.44809         1.03889        0.745809 
        1.45423         1.03094         0.73823 
        1.46036          1.0221         0.73077 
        1.46649         1.01328        0.723411 
        1.47263         1.00388        0.716147 
        1.47877        0.994027        0.708985 
        1.48491        0.986193        0.701911 
        1.49104        0.978174        0.694948 
        1.49718        0.972095        0.688074 
        1.50333        0.961383        0.681282 
        1.50947        0.955844        0.674596 
         1.5156        0.946461        0.668009 
        1.52172        0.938419        0.661511 
        1.52787        0.929688        0.655086 
          1.534        0.923865        0.648754 
        1.54013        0.913942        0.642512 
        1.54627        0.906287        0.636341 
        1.55241        0.898665        0.630251 
        1.55855        0.892363        0.624248 
        1.56467        0.886866        0.618341 
         1.5708        0.876523        0.612493 
        1.57695        0.872733        0.606713 
        1.58308        0.865277         0.60102 
        1.58922        0.857852        0.595396 
        1.59535        0.851099        0.589847 
         1.6015        0.844339         0.58436 
        1.60764        0.839088        0.578946 
        1.61376        0.831155        0.573616 
        1.61989        0.825231        0.568348 
        1.62604        0.817886        0.563135 
        1.63218        0.814203         0.55799 
        1.63831        0.805852        0.552922 
        1.64444        0.799385        0.547915 
        1.65059        0.794525        0.542958 
        1.65673        0.786931        0.538067 
        1.66285        0.781187        0.533251 
        1.66898        0.777919        0.528492 
        1.67512        0.768707        0.523782 
        1.68127        0.763341        0.519125 
         1.6874        0.760207        0.514534 
        1.69353        0.752108        0.510003 
        1.69967        0.746333        0.505514 
        1.70581        0.742714        0.501082 
        1.71193        0.736185         0.49672 
        1.71806        0.732229          0.4924 
        1.72421        0.725938        0.488123 
        1.73035        0.719544        0.483901 
        1.73649        0.716391        0.479731 
        1.74262        0.710723        0.475613 
        1.74876        0.704891         0.47154 
        1.75489         0.69857        0.467524 
        1.76101        0.694374        0.463555 
        1.76715        0.689845        0.459628 
        1.77329        0.685513         0.45574 
        1.77943        0.679171        0.451897 
        1.78557        0.674456        0.448103 
        1.79171        0.671299        0.444352 
        1.79785         0.66568        0.440643 
        1.80399        0.661285        0.436977 
        1.81012        0.657483        0.433358 
        1.81625        0.652031        0.429782 
        1.82239        0.648172         0.42624 
        1.82853        0.641128        0.422741 
        1.83466        0.638232        0.419283 
        1.84078        0.633109        0.415869 
        1.84692        0.630711        0.412486 
        1.85306        0.626064        0.409137 
         1.8592        0.622165        0.405831 
        1.86533        0.617425        0.402563 
        1.87147        0.613541        0.399327 
        1.87761        0.609288        0.396125 
        1.88375        0.603748        0.392962 
        1.88988        0.601514        0.389837 
        1.89601        0.596364        0.386745 
        1.90215        0.592876        0.383683 
        1.90829        0.588234        0.380656 
        1.91442        0.584718        0.377661 
        1.92056        0.581457        0.374702 
         1.9267        0.576843        0.371771 
        1.93284        0.574586        0.368869 
        1.93897        0.569892        0.366004 
        1.94509        0.566463        0.363176 
        1.95123        0.562232         0.36037 
        1.95737        0.559245        0.357592 
        1.96349         0.55449         0.35485 
        1.96964        0.551974        0.352129 
        1.97578        0.548018        0.349436 
        1.98192        0.545751        0.346776 
        1.98805        0.540895        0.344143 
        1.99419          0.5385        0.341537 
        2.00033        0.536238        0.338957 
        2.00647        0.531144        0.336405 
         2.0126        0.528308        0.333883 
        2.01874        0.525303        0.331383 
        2.02488        0.522611        0.328906 
        2.03101        0.517694        0.326459 
        2.03714        0.513935         0.32404 
        2.04328        0.512902        0.321642 
        2.04941        0.509174         0.31927 
        2.05554        0.505588        0.316924 
        2.06167        0.502487        0.314599 
        2.06781         0.49877        0.312296 
        2.07396        0.495481        0.310013 
        2.08009         0.49321        0.307757 
        2.08622        0.489958        0.305526 
        2.09237        0.488577        0.303313 
        2.09851        0.485454        0.301121 
        2.10464        0.482691        0.298954 
        2.11077        0.479391        0.296811 
        2.11691        0.476082        0.294685 
        2.12305        0.473488        0.292579 
        2.12918        0.470977        0.290499 
        2.13531        0.467734        0.288439 
        2.14145        0.465401        0.286394 
         2.1476        0.462075        0.284366 
        2.15372        0.460591        0.282369 
        2.15985        0.456695        0.280388 
        2.16599        0.453742        0.278421 
        2.17213        0.451702        0.276475 
        2.17827        0.450066        0.274548 
         2.1844        0.447569        0.272641 
        2.19054        0.444976        0.270751 
        2.19666        0.441675        0.268882 
         2.2028        0.439404        0.267029 
        2.20893        0.437225        0.265192 
        2.21508        0.435022        0.263371 
        2.22122        0.430851        0.261566 
        2.22736        0.429042        0.259782 
        2.23349        0.428104        0.258015 
        2.23962        0.425202        0.256263 
        2.24577        0.421708        0.254526 
         2.2519        0.420015        0.252807 
        2.25802        0.417489        0.251108 
        2.26417        0.414916        0.249419 
        2.27031        0.412635        0.247743 
        2.27644        0.410945        0.246089 
        2.28257        0.408844        0.244449 
        2.28872        0.406313        0.242821 
        2.29486        0.403895        0.241208 
        2.30099        0.401599        0.239614 
        2.30712        0.399822        0.238033 
        2.31326        0.397581        0.236463 
         2.3194          0.3966        0.234909 
        2.32553        0.394173        0.233371 
        2.33166        0.391917        0.231847 
         2.3378        0.389808        0.230335 
        2.34394         0.38656        0.228836 
        2.35007        0.385123        0.227353 
        2.35619        0.383418        0.225884 
        2.36233         0.38044        0.224425 
        2.36848        0.379284        0.222976 
        2.37462        0.376639        0.221542 
        2.38075         0.37587        0.220123 
        2.38689        0.373315        0.218715 
        2.39303        0.371977        0.217319 
        2.39916        0.368805        0.215937 
        2.40529        0.367702        0.214567 
        2.41143        0.365994        0.213208 
        2.41757        0.364095         0.21186 
         2.4237        0.362343        0.210526 
        2.42983        0.360625        0.209204 
        2.43598        0.358723         0.20789 
        2.44211        0.357175        0.206589 
        2.44823        0.355265        0.205302 
        2.45437        0.352954        0.204022 
        2.46052        0.352207        0.202752 
        2.46665        0.349682        0.201496 
        2.47279        0.347911         0.20025 
        2.47892        0.345767        0.199014 
        2.48507          0.3445        0.197788 
         2.4912        0.343055        0.196574 
