# k  (h/Mpc)    P(k)  (Mpc/h)^3    P_linear(k)  (Mpc/h)^3
     0.00783031         6911.22         7009.17 
       0.013688          8788.5         8755.74 
       0.019231         8953.24         8946.83 
      0.0249154         8211.33         8330.56 
      0.0312784         7187.07         7233.96 
      0.0375637         6140.96         6132.79 
      0.0433917         5233.47         5285.64 
      0.0492413          4645.3         4655.69 
      0.0555754         4120.15         4193.19 
      0.0619321         3904.05         3882.68 
       0.067871         3598.38         3654.23 
      0.0738098         3369.22         3425.73 
      0.0800417         3073.68         3151.51 
      0.0862327         2798.15         2842.72 
      0.0921407         2525.62         2536.49 
      0.0982031         2223.83         2241.67 
       0.104506         2019.19         1983.55 
       0.110769            1826         1789.21 
       0.116806         1684.88         1658.32 
       0.122832         1604.08          1570.1 
       0.129052         1509.94         1504.51 
       0.135211         1450.23         1445.59 
       0.141259         1397.56         1379.32 
       0.147318         1323.76          1298.3 
       0.153489         1218.56          1202.7 
       0.159709         1135.64          1101.3 
       0.165845         1064.45         1006.39 
       0.171974         981.668         924.828 
       0.178125         923.422         860.331 
       0.184229         879.419         813.258 
        0.19034         824.404         779.402 
       0.196428         812.263         753.392 
       0.202534         791.631         729.307 
       0.208729         756.534         702.304 
       0.214876         718.972         670.677 
       0.220989         694.462         634.742 
       0.227147         653.723         596.279 
        0.23329         621.849         558.715 
       0.239377         601.379         525.025 
       0.245482         559.059         496.466 
       0.251667         550.586         473.254 
       0.257832         531.148         455.004 
       0.263955          513.91         440.137 
       0.270079         496.514         426.667 
        0.27624         490.412         412.933 
       0.282372         471.261         398.133 
        0.28843         456.755         382.175 
       0.294538         435.403         365.234 
       0.300721          430.09          348.06 
        0.30691         409.265          331.79 
       0.313033         399.348         317.285 
       0.319153         384.273         304.694 
       0.325316         374.035         293.845 
        0.33145          362.52         284.478 
       0.337538         357.544         276.042 
       0.343633         346.086         267.931 
       0.349808         335.338         259.624 
       0.355968         330.556         251.088 
       0.362074         322.492         242.382 
       0.368217         313.618         233.607 
       0.374374         302.414         225.049 
       0.380519         297.742         216.999 
       0.386598         290.174         209.691 
       0.392688         286.737          203.04 
        0.39888         279.042         196.919 
       0.405048         272.884           191.3 
       0.411186         267.024         186.004 
       0.417313         261.879         180.869 
       0.423458         256.708         175.756 
       0.429607         250.889         170.643 
       0.435692         243.867         165.626 
       0.441815         242.014         160.669 
       0.447964          237.45         155.866 
       0.454126         228.027         151.302 
       0.460267         225.343         147.027 
       0.466387          222.57         143.032 
        0.47254         217.862         139.265 
       0.478662         216.368         135.707 
       0.484765          209.91         132.293 
       0.490885         206.955          128.96 
       0.497035         203.983         125.683 
       0.503198         198.923         122.458 
       0.509342         196.421         119.306 
       0.515458         193.721         116.256 
       0.521598         190.712         113.305 
       0.527764         187.884         110.462 
       0.533884         185.121         107.762 
           0.54         182.258         105.187 
       0.546137          180.98         102.715 
       0.552299         177.697         100.328 
       0.558452         174.883         98.0197 
       0.564573          171.93         95.7841 
       0.570708         169.148         93.6007 
       0.576825         167.051           91.48 
       0.582926         164.336           89.42 
       0.589034         162.118         87.4143 
       0.595184         160.335         85.4564 
       0.601379         158.628         83.5512 
       0.607522         155.099         81.7305 
       0.613639         154.568         79.9817 
       0.619772         151.204         78.2861 
       0.625918         149.721         76.6387 
       0.632068         148.004         75.0367 
       0.638161          146.79         73.4926 
         0.6443         144.762         71.9786 
       0.650464         143.178         70.4996 
       0.656582         141.437         69.0705 
       0.662703         139.372          67.679 
       0.668861         137.509         66.3176 
       0.675024         135.997         64.9934 
       0.681124         135.017         63.7208 
       0.687237         132.593         62.4828 
       0.693381         130.935         61.2746 
       0.699536         129.837         60.0979 
       0.705665         130.114         58.9579 
       0.711789          126.83         57.8483 
       0.717957         126.407         56.7585 
        0.72409         124.606         55.7016 
       0.730186         122.579         54.6774 
       0.736317         122.132         53.6731 
       0.742472          121.12         52.6905 
       0.748622         120.031         51.7343 
        0.75476         118.889         50.8048 
       0.760888         117.194         49.9006 
       0.767043         116.379         49.0154 
       0.773185         115.116         48.1541 
       0.779291         113.789         47.3186 
       0.785407         113.075         46.5019 
       0.791564         111.889         45.6992 
       0.797719         110.283         44.9157 
       0.803834         109.789         44.1556 
       0.809972         108.242         43.4104 
       0.816124         107.905         42.6808 
       0.822261         106.842         41.9703 
       0.828378         105.869         41.2783 
       0.834502         105.223         40.6016 
       0.840667         103.953          39.936 
       0.846816         102.865         39.2874 
       0.852925         102.059         38.6576 
       0.859047         100.811         38.0404 
       0.865192         100.388         37.4348 
       0.871341         99.5148         36.8421 
       0.877463          98.332         36.2651 
       0.883569         97.6642         35.7019 
       0.889708         97.0515         35.1478 
       0.895864         96.2217         34.6042 
       0.902008         95.4372         34.0732 
       0.908149         94.8947         33.5538 
       0.914301         93.8798         33.0445 
       0.920448         93.2902         32.5463 
       0.926574         92.5574         32.0601 
       0.932687          92.207         31.5851 
       0.938823         90.7661          31.118 
       0.944975         90.1969         30.6594 
       0.951105         89.5566         30.2118 
       0.957225         88.4882         29.7739 
       0.963368         88.1752         29.3434 
       0.969511         87.7873         28.9214 
       0.975621         87.3005         28.5101 
       0.981748         86.4689         28.1057 
       0.987916         85.7197         27.7068 
        0.99406         85.2096         27.3171 
        1.00019          84.392         26.9358 
        1.00632         83.9918         26.5622 
        1.01246         83.2546         26.1952 
        1.01859         82.1893         25.8358 
        1.02471         82.4117         25.4836 
        1.03085          81.516         25.1369 
        1.03698         80.9739         24.7974 
        1.04314         80.1799         24.4628 
        1.04929         79.7499         24.1351 
        1.05541          79.085         23.8149 
        1.06154          78.854         23.4997 
        1.06769         78.3209         23.1899 
        1.07382         77.9781         22.8866 
        1.07993         77.4729         22.5895 
        1.08607         76.7931         22.2965 
        1.09222         76.4033         22.0085 
        1.09836         75.8447         21.7259 
        1.10449         75.3931         21.4487 
        1.11063         74.8216          21.176 
        1.11677         74.3802         20.9082 
         1.1229         73.7972         20.6455 
        1.12903         72.9767         20.3871 
        1.13518         73.2212          20.133 
        1.14131         72.6739         19.8833 
        1.14745         71.8267         19.6381 
        1.15359         71.6176          19.397 
        1.15973         71.1038         19.1598 
        1.16584          70.636         18.9277 
        1.17197         70.2177         18.6991 
        1.17811         69.8577         18.4737 
        1.18424         69.2436         18.2526 
        1.19038         68.9051         18.0345 
        1.19652         68.6405         17.8202 
        1.20267         68.0498         17.6093 
        1.20881         67.7033         17.4019 
        1.21495         67.1712         17.1981 
        1.22108         66.8326         16.9977 
         1.2272          66.255          16.801 
        1.23334         66.0164          16.607 
        1.23949         65.7786         16.4156 
        1.24562         65.3613         16.2277 
        1.25174         65.0221         16.0432 
        1.25789         64.6946         15.8609 
        1.26402         64.2275         15.6818 
        1.27014         63.6525         15.5059 
        1.27628         63.4888         15.3323 
        1.28244         62.9426         15.1609 
        1.28858         62.6835         14.9925 
        1.29471         62.4827          14.827 
        1.30084          62.082         14.6641 
        1.30697         61.6364         14.5035 
        1.31312         61.2646         14.3451 
        1.31925         61.1092         14.1895 
        1.32537         60.7845         14.0364 
        1.33151         60.2009         13.8851 
        1.33765         60.0215         13.7361 
        1.34378         59.6676         13.5896 
        1.34992         59.2737         13.4451 
        1.35606         58.9786         13.3024 
         1.3622         58.5461         13.1621 
        1.36833         58.3779         13.0241 
        1.37445         58.1329         12.8882 
        1.38059         57.6773         12.7539 
        1.38675         57.3551         12.6211 
        1.39288         57.0914         12.4908 
        1.39901          56.853         12.3623 
        1.40515         56.5406         12.2354 
         1.4113         56.3012         12.1103 
        1.41742         55.9841         11.9875 
        1.42355         55.6116         11.8661 
         1.4297         55.3447         11.7461 
        1.43585         55.0626         11.6278 
        1.44198         54.8088         11.5116 
        1.44809         54.5443         11.3972 
        1.45423         54.3032         11.2839 
        1.46036         54.0281         11.1724 
        1.46649         53.7007         11.0623 
        1.47263          53.385         10.9537 
        1.47877         53.2354         10.8466 
        1.48491         53.0471         10.7407 
        1.49104         52.6252         10.6365 
        1.49718         52.1841         10.5336 
        1.50333         52.0746         10.4319 
        1.50947         51.8214         10.3318 
         1.5156         51.5336         10.2331 
        1.52172         51.3418         10.1358 
        1.52787         51.2323         10.0395 
          1.534         50.8699         9.94455 
        1.54013         50.5751         9.85097 
        1.54627         50.4122         9.75843 
        1.55241         50.0597         9.66708 
        1.55855         49.7906         9.57702 
        1.56467         49.3926         9.48837 
         1.5708          49.404          9.4006 
        1.57695         49.1232         9.31381 
        1.58308         48.8867         9.22832 
        1.58922         48.8347         9.14385 
        1.59535         48.5443         9.06048 
         1.6015         48.1231         8.97803 
        1.60764          47.982         8.89665 
        1.61376         47.7325         8.81651 
        1.61989         47.3827          8.7373 
        1.62604         47.3255         8.65888 
        1.63218         47.1557         8.58148 
        1.63831         46.8695         8.50521 
        1.64444         46.6407         8.42984 
        1.65059         46.2852          8.3552 
        1.65673         46.1146         8.28156 
        1.66285         45.9177         8.20901 
        1.66898         45.6616         8.13731 
        1.67512         45.4613         8.06634 
        1.68127         45.1895         7.99614 
         1.6874         45.1054         7.92695 
        1.69353         44.7934         7.85862 
        1.69967         44.6121         7.79093 
        1.70581          44.546         7.72408 
        1.71193          44.254         7.65826 
        1.71806         43.9154         7.59308 
        1.72421         43.7812         7.52853 
        1.73035         43.5387          7.4648 
        1.73649         43.2567         7.40184 
        1.74262         43.1865         7.33965 
        1.74876         43.0917         7.27813 
        1.75489         42.7734         7.21745 
        1.76101         42.6089         7.15749 
        1.76715         42.3932         7.09812 
        1.77329         42.1788         7.03936 
        1.77943         42.0554         6.98125 
        1.78557         41.8484         6.92388 
        1.79171         41.5864         6.86714 
        1.79785         41.4058         6.81103 
        1.80399         41.2902         6.75557 
        1.81012         41.1044          6.7008 
        1.81625         40.7799         6.64666 
        1.82239         40.6797         6.59304 
        1.82853         40.3682         6.54005 
        1.83466         40.3077         6.48768 
        1.84078         39.9812         6.43595 
        1.84692         39.8817         6.38471 
        1.85306         39.6923         6.33396 
         1.8592         39.5072         6.28384 
        1.86533         39.3196         6.23429 
        1.87147         39.1908         6.18523 
        1.87761           39.06         6.13667 
        1.88375         38.8358         6.08869 
        1.88988         38.7695         6.04128 
        1.89601         38.4869         5.99435 
        1.90215         38.3559         5.94788 
        1.90829         38.2734         5.90193 
        1.91442         38.0048         5.85646 
        1.92056         37.8926         5.81151 
         1.9267         37.5878         5.76699 
        1.93284         37.4182         5.72291 
        1.93897         37.3516         5.67938 
        1.94509         37.1072          5.6364 
        1.95123         37.0102         5.59375 
        1.95737         36.7737         5.55152 
        1.96349         36.6347         5.50984 
        1.96964         36.4703         5.46846 
        1.97578         36.3512         5.42749 
        1.98192         36.1443         5.38702 
        1.98805         36.0281         5.34697 
        1.99419         35.7846         5.30732 
        2.00033          35.637         5.26805 
        2.00647         35.5144          5.2292 
         2.0126         35.3465          5.1908 
        2.01874         35.2248         5.15273 
        2.02488         35.1223         5.11502 
        2.03101         34.8714         5.07775 
        2.03714          34.731         5.04088 
        2.04328         34.5555         5.00435 
        2.04941         34.4402          4.9682 
        2.05554         34.2427         4.93245 
        2.06167         34.1509         4.89699 
        2.06781         33.9808         4.86188 
        2.07396         33.8246         4.82707 
        2.08009         33.7141         4.79266 
        2.08622         33.5356         4.75862 
        2.09237         33.3814         4.72485 
        2.09851         33.2095          4.6914 
        2.10464         33.1524         4.65834 
        2.11077         32.9383         4.62563 
        2.11691         32.8337         4.59316 
        2.12305         32.6636         4.56101 
        2.12918         32.6337         4.52924 
        2.13531         32.4202         4.49778 
        2.14145          32.343         4.46654 
         2.1476         32.1064         4.43556 
        2.15372          31.954         4.40503 
        2.15985         31.8523         4.37476 
        2.16599          31.799         4.34469 
        2.17213         31.6913         4.31493 
        2.17827         31.3988         4.28546 
         2.1844          31.294         4.25629 
        2.19054         31.1501         4.22739 
        2.19666         31.0463         4.19879 
         2.2028         30.9312         4.17044 
        2.20893         30.8331         4.14233 
        2.21508         30.6698         4.11445 
        2.22122         30.4819         4.08682 
        2.22736         30.4145          4.0595 
        2.23349         30.2842         4.03244 
        2.23962         30.1246         4.00561 
        2.24577         29.9712         3.97901 
         2.2519         29.8894         3.95268 
        2.25802         29.7524         3.92663 
        2.26417         29.6573         3.90075 
        2.27031         29.5603         3.87508 
        2.27644         29.3622         3.84971 
        2.28257         29.2687         3.82458 
        2.28872         29.1234         3.79962 
        2.29486         29.0634         3.77489 
        2.30099         28.9295         3.75043 
        2.30712         28.8176         3.72617 
        2.31326         28.7261         3.70209 
         2.3194         28.5766         3.67824 
        2.32553         28.4136         3.65464 
        2.33166         28.2915         3.63126 
         2.3378         28.1889         3.60805 
        2.34394         28.0462         3.58503 
        2.35007         27.9315         3.56225 
        2.35619         27.8752          3.5397 
        2.36233         27.7904         3.51729 
        2.36848         27.5703         3.49503 
        2.37462         27.4985           3.473 
        2.38075         27.3872         3.45119 
        2.38689         27.3188         3.42955 
        2.39303         27.1545          3.4081 
        2.39916         27.0073         3.38686 
        2.40529         26.8902         3.36579 
        2.41143         26.8119          3.3449 
        2.41757         26.7072         3.32417 
         2.4237         26.5788         3.30365 
        2.42983         26.4882         3.28332 
        2.43598          26.378          3.2631 
        2.44211         26.2635         3.24308 
        2.44823         26.1157         3.22328 
        2.45437         26.0586         3.20358 
        2.46052         25.9399         3.18404 
        2.46665         25.8622          3.1647 
        2.47279         25.7384         3.14552 
        2.47892         25.5997         3.12649 
        2.48507         25.5107          3.1076 
         2.4912         25.4414          3.0889 
