# k  (h/Mpc)    Pcb(k)  (Mpc/h)^3    Pcb_linear(k)  (Mpc/h)^3
     0.00783031         16270.3         16509.7 
       0.013688           20840         20644.4 
       0.019231         21132.3         21104.7 
      0.0249154         19205.8         19656.3 
      0.0312784         16840.3           17072 
      0.0375637         14444.2           14475 
      0.0433917         12221.2         12476.5 
      0.0492413         10895.7         10990.1 
      0.0555754         9565.16         9898.81 
      0.0619321         9164.21          9166.1 
       0.067871         8348.92         8627.02 
      0.0738098         7818.85         8087.72 
      0.0800417         7096.14         7440.45 
      0.0862327         6490.59         6711.51 
      0.0921407         5917.08         5988.59 
      0.0982031         5223.95         5292.59 
       0.104506         4810.24         4683.19 
       0.110769         4367.98          4224.4 
       0.116806         4062.77         3915.38 
       0.122832         3853.45         3707.12 
       0.129052         3596.31         3552.27 
       0.135211         3451.07         3413.17 
       0.141259         3340.69         3256.71 
       0.147318         3174.28         3065.41 
       0.153489         2918.64         2839.71 
       0.159709         2750.96         2600.29 
       0.165845         2622.19         2376.21 
       0.171974         2452.98         2183.64 
       0.178125         2317.32         2031.35 
       0.184229          2202.8         1920.22 
        0.19034         2087.69         1840.28 
       0.196428         2051.82         1778.87 
       0.202534         1981.53            1722 
       0.208729         1901.55         1658.24 
       0.214876         1830.56         1583.57 
       0.220989         1769.25         1498.72 
       0.227147         1692.96         1407.91 
        0.23329         1621.83         1319.22 
       0.239377         1592.35         1239.67 
       0.245482         1491.54         1172.24 
       0.251667         1482.11         1117.43 
       0.257832         1423.24         1074.34 
       0.263955         1377.94         1039.24 
       0.270079         1332.02         1007.43 
        0.27624         1318.54         975.005 
       0.282372         1264.76         940.059 
        0.28843          1257.5         902.382 
       0.294538         1195.68         862.382 
       0.300721         1187.83         821.831 
        0.30691            1142         783.414 
       0.313033         1119.05         749.167 
       0.319153         1099.78         719.438 
       0.325316         1064.14         693.817 
        0.33145         1041.03         671.704 
       0.337538         1022.26         651.785 
       0.343633         1000.22          632.63 
       0.349808         967.099          613.02 
       0.355968         960.449         592.862 
       0.362074         951.094         572.309 
       0.368217         921.224         551.588 
       0.374374          887.35         531.382 
       0.380519         888.431         512.375 
       0.386598         863.404         495.118 
       0.392688         860.604         479.418 
        0.39888         835.361         464.961 
       0.405048         825.461         451.695 
       0.411186         813.751          439.19 
       0.417313         796.657         427.066 
       0.423458         783.007         414.993 
       0.429607         773.045          402.92 
       0.435692         757.083         391.074 
       0.441815         750.414          379.37 
       0.447964         735.158         368.029 
       0.454126         728.285         357.251 
       0.460267         710.533         347.157 
       0.466387         702.189         337.726 
        0.47254         697.766          328.83 
       0.478662         690.694         320.431 
       0.484765         670.394         312.368 
       0.490885         666.356         304.499 
       0.497035          652.39         296.762 
       0.503198         648.482         289.146 
       0.509342         641.883         281.705 
       0.515458          637.92         274.503 
       0.521598          621.92         267.534 
       0.527764         611.268         260.822 
       0.533884         609.183         254.448 
           0.54         602.899         248.365 
       0.546137         598.131         242.529 
       0.552299         589.624         236.893 
       0.558452         585.204         231.442 
       0.564573          577.79         226.165 
       0.570708         571.295         221.009 
       0.576825         556.146         216.002 
       0.582926         558.222         211.138 
       0.589034         552.606         206.402 
       0.595184         547.977         201.779 
       0.601379         539.861          197.28 
       0.607522         532.312         192.982 
       0.613639         532.255         188.852 
       0.619772         521.235         184.849 
       0.625918         518.205         180.959 
       0.632068         511.168         177.176 
       0.638161         509.253          173.53 
         0.6443         500.526         169.955 
       0.650464         498.357         166.463 
       0.656582         494.092         163.089 
       0.662703          492.45         159.803 
       0.668861          484.22         156.589 
       0.675024         480.395         153.462 
       0.681124         476.869         150.457 
       0.687237          472.96         147.534 
       0.693381         466.539         144.681 
       0.699536         459.574         141.903 
       0.705665         459.002         139.211 
       0.711789         456.559         136.591 
       0.717957         452.433         134.018 
        0.72409         449.796         131.522 
       0.730186         443.382         129.104 
       0.736317         440.534         126.733 
       0.742472         437.975         124.413 
       0.748622         433.415         122.155 
        0.75476         427.418          119.96 
       0.760888         423.362         117.825 
       0.767043         423.845         115.735 
       0.773185         419.402         113.701 
       0.779291         414.605         111.729 
       0.785407          412.27           109.8 
       0.791564         407.531         107.905 
       0.797719         405.417         106.055 
       0.803834         400.912          104.26 
       0.809972         400.117           102.5 
       0.816124         398.993         100.778 
       0.822261         393.414            99.1 
       0.828378         391.429          97.466 
       0.834502         386.892         95.8682 
       0.840667         384.153         94.2966 
       0.846816         382.568         92.7652 
       0.852925         379.856          91.278 
       0.859047         377.802         89.8208 
       0.865192         373.184         88.3909 
       0.871341         370.169         86.9915 
       0.877463         369.856         85.6289 
       0.883569         366.511         84.2991 
       0.889708          363.75         82.9908 
       0.895864         362.132         81.7072 
       0.902008         358.803         80.4535 
       0.908149          355.12         79.2271 
       0.914301         352.746         78.0244 
       0.920448          350.87         76.8481 
       0.926574         346.066         75.7003 
       0.932687          346.01         74.5785 
       0.938823         342.418         73.4757 
       0.944975         342.281         72.3929 
       0.951105         338.555         71.3359 
       0.957225         336.434         70.3021 
       0.963368         332.526         69.2855 
       0.969511         331.415         68.2891 
       0.975621         329.297         67.3178 
       0.981748         327.747         66.3632 
       0.987916          325.89         65.4212 
        0.99406          320.74         64.5011 
        1.00019         319.751         63.6008 
        1.00632         318.374         62.7186 
        1.01246         315.568         61.8521 
        1.01859         316.057         61.0034 
        1.02471         311.021         60.1719 
        1.03085         309.791         59.3531 
        1.03698         308.477         58.5515 
        1.04314         305.656         57.7614 
        1.04929         303.004         56.9878 
        1.05541         303.859         56.2317 
        1.06154         298.582         55.4875 
        1.06769         298.066         54.7558 
        1.07382         295.763         54.0398 
        1.07993         294.142         53.3383 
        1.08607         293.247         52.6465 
        1.09222         290.195         51.9664 
        1.09836         288.285         51.2992 
        1.10449         285.993         50.6445 
        1.11063         283.156         50.0007 
        1.11677         283.209         49.3683 
         1.1229         280.963         48.7481 
        1.12903         279.241          48.138 
        1.13518         276.822         47.5379 
        1.14131         275.322         46.9485 
        1.14745         274.251         46.3694 
        1.15359         272.174            45.8 
        1.15973         270.297         45.2401 
        1.16584         268.395          44.692 
        1.17197         268.486         44.1523 
        1.17811         265.045           43.62 
        1.18424         263.438          43.098 
        1.19038         262.682         42.5831 
        1.19652         260.352         42.0769 
        1.20267         259.649         41.5789 
        1.20881          257.72         41.0892 
        1.21495         255.834         40.6082 
        1.22108         254.372          40.135 
         1.2272         252.889         39.6705 
        1.23334         251.602         39.2124 
        1.23949         249.437         38.7604 
        1.24562         248.646         38.3169 
        1.25174         247.065          37.881 
        1.25789         245.213         37.4507 
        1.26402         243.073         37.0278 
        1.27014         241.786         36.6126 
        1.27628         240.462         36.2025 
        1.28244         240.259          35.798 
        1.28858         237.741         35.4002 
        1.29471         236.343         35.0094 
        1.30084          234.76         34.6249 
        1.30697         233.487         34.2456 
        1.31312         231.184         33.8715 
        1.31925         230.284         33.5043 
        1.32537         229.655         33.1428 
        1.33151         227.504         32.7854 
        1.33765         225.866         32.4336 
        1.34378         225.225         32.0876 
        1.34992         223.909         31.7465 
        1.35606         223.554         31.4096 
         1.3622         221.168         31.0783 
        1.36833         219.438         30.7525 
        1.37445         218.645         30.4316 
        1.38059         216.775         30.1144 
        1.38675         215.996         29.8009 
        1.39288         214.815         29.4931 
        1.39901         213.877         29.1899 
        1.40515         212.126         28.8902 
         1.4113         211.078         28.5949 
        1.41742          209.46         28.3049 
        1.42355         208.632         28.0183 
         1.4297         206.738         27.7349 
        1.43585          205.83         27.4555 
        1.44198         204.997         27.1811 
        1.44809          203.65         26.9109 
        1.45423         202.669         26.6435 
        1.46036         201.316         26.3802 
        1.46649         199.897         26.1203 
        1.47263         198.849         25.8638 
        1.47877         197.443         25.6109 
        1.48491         195.817         25.3609 
        1.49104         195.315         25.1149 
        1.49718         193.651         24.8719 
        1.50333          192.93         24.6318 
        1.50947         191.719         24.3954 
         1.5156         190.213         24.1624 
        1.52172         189.647         23.9325 
        1.52787         187.833         23.7052 
          1.534         187.586          23.481 
        1.54013         186.033         23.2601 
        1.54627         184.981         23.0416 
        1.55241         183.762         22.8259 
        1.55855         182.594         22.6132 
        1.56467         181.513         22.4039 
         1.5708         180.759         22.1967 
        1.57695         179.838         21.9917 
        1.58308         178.732         21.7899 
        1.58922         177.414         21.5904 
        1.59535         176.121         21.3936 
         1.6015         175.453         21.1989 
        1.60764         174.391         21.0067 
        1.61376         173.483         20.8175 
        1.61989         172.567         20.6305 
        1.62604          171.36         20.4453 
        1.63218         170.527         20.2626 
        1.63831         169.265         20.0825 
        1.64444         168.558         19.9045 
        1.65059         167.521         19.7283 
        1.65673          166.36         19.5544 
        1.66285           165.4         19.3831 
        1.66898         164.485         19.2138 
        1.67512          164.04         19.0462 
        1.68127         162.341         18.8805 
         1.6874         161.635         18.7171 
        1.69353          160.67         18.5557 
        1.69967         159.558         18.3959 
        1.70581         158.919         18.2381 
        1.71193         157.849         18.0827 
        1.71806         157.163         17.9287 
        1.72421         156.141         17.7763 
        1.73035         155.555         17.6259 
        1.73649         154.614         17.4772 
        1.74262         153.581         17.3303 
        1.74876         152.546         17.1851 
        1.75489         151.886         17.0418 
        1.76101         150.595         16.9002 
        1.76715         150.305         16.7601 
        1.77329         149.295         16.6213 
        1.77943         148.597         16.4841 
        1.78557         147.798         16.3486 
        1.79171         146.934         16.2147 
        1.79785         145.996         16.0822 
        1.80399         145.117         15.9512 
        1.81012         144.316         15.8219 
        1.81625         143.832         15.6941 
        1.82239         142.762         15.5675 
        1.82853         142.127         15.4423 
        1.83466         141.145         15.3187 
        1.84078         140.534         15.1966 
        1.84692         139.265         15.0755 
        1.85306         139.101         14.9557 
         1.8592         138.102         14.8374 
        1.86533         137.382         14.7204 
        1.87147         136.275         14.6045 
        1.87761         135.528         14.4899 
        1.88375         134.727         14.3766 
        1.88988         133.891         14.2646 
        1.89601         133.523         14.1538 
        1.90215         132.543         14.0441 
        1.90829         131.862         13.9356 
        1.91442         131.254         13.8282 
        1.92056         130.397         13.7221 
         1.9267         129.799          13.617 
        1.93284         128.869         13.5129 
        1.93897         128.325         13.4101 
        1.94509         127.722         13.3086 
        1.95123         127.077          13.208 
        1.95737         126.306         13.1082 
        1.96349         125.668         13.0098 
        1.96964         124.655         12.9121 
        1.97578         123.907         12.8154 
        1.98192         123.491         12.7198 
        1.98805         122.774         12.6252 
        1.99419         122.087         12.5316 
        2.00033         121.381         12.4389 
        2.00647         120.816         12.3472 
         2.0126         119.797         12.2565 
        2.01874         119.291         12.1666 
        2.02488         118.961         12.0776 
        2.03101          117.81         11.9896 
        2.03714         117.442         11.9025 
        2.04328         116.598         11.8162 
        2.04941         116.152         11.7309 
        2.05554         115.336         11.6465 
        2.06167         114.996         11.5628 
        2.06781         114.157         11.4799 
        2.07396         113.631         11.3977 
        2.08009         112.994         11.3164 
        2.08622         112.224          11.236 
        2.09237         111.751         11.1563 
        2.09851         111.149         11.0773 
        2.10464          110.72         10.9992 
        2.11077         109.992          10.922 
        2.11691         109.537         10.8454 
        2.12305         108.771         10.7694 
        2.12918          108.04         10.6944 
        2.13531         107.525         10.6201 
        2.14145         106.888         10.5464 
         2.1476         106.128         10.4732 
        2.15372         105.935         10.4011 
        2.15985         105.343         10.3297 
        2.16599          104.55         10.2587 
        2.17213         104.117         10.1884 
        2.17827          103.55         10.1188 
         2.1844         102.762         10.0499 
        2.19054          102.49         9.98169 
        2.19666         101.913         9.91417 
         2.2028         101.268         9.84722 
        2.20893          100.89         9.78085 
        2.21508         100.217         9.71502 
        2.22122         99.7052         9.64978 
        2.22736         99.1749         9.58528 
        2.23349         98.7077         9.52138 
        2.23962         98.1688         9.45804 
        2.24577         97.6174         9.39521 
         2.2519         97.3162         9.33305 
        2.25802         96.3774         9.27155 
        2.26417         96.1037         9.21044 
        2.27031         95.4989         9.14982 
        2.27644         95.0362         9.08992 
        2.28257         94.4148         9.03057 
        2.28872         94.1303         8.97163 
        2.29486         93.4422         8.91324 
        2.30099         92.9486         8.85549 
        2.30712         92.5069         8.79822 
        2.31326         91.9372         8.74137 
         2.3194         91.4744         8.68505 
        2.32553         91.0797         8.62932 
        2.33166         90.5927         8.57411 
         2.3378         90.1244         8.51931 
        2.34394         89.6533         8.46497 
        2.35007         89.1051         8.41118 
        2.35619          88.777         8.35792 
        2.36233         88.2215         8.30501 
        2.36848         87.6683         8.25244 
        2.37462         87.3444         8.20044 
        2.38075         86.7569         8.14894 
        2.38689         86.3388         8.09784 
        2.39303         85.7596         8.04719 
        2.39916         85.5259         7.99703 
        2.40529         85.2114          7.9473 
        2.41143         84.5374         7.89795 
        2.41757         84.1629         7.84901 
         2.4237         83.7732         7.80057 
        2.42983         83.2223         7.75255 
        2.43598         82.7386          7.7048 
        2.44211         82.6272         7.65754 
        2.44823         82.0449         7.61078 
        2.45437         81.3828         7.56429 
        2.46052         81.0219         7.51814 
        2.46665         80.7891         7.47246 
        2.47279         80.2316         7.42718 
        2.47892         79.8758         7.38225 
        2.48507         79.4397         7.33764 
         2.4912         79.0834         7.29349 
