# k  (h/Mpc)    P(k)  (Mpc/h)^3    P_linear(k)  (Mpc/h)^3
     0.00783031         3809.82         3860.57 
       0.013688         4829.55         4824.04 
       0.019231         4931.48         4930.09 
      0.0249154         4542.32         4590.96 
      0.0312784         3971.39          3986.9 
      0.0375637         3387.58         3380.17 
      0.0433917         2896.71         2913.34 
      0.0492413         2565.91         2566.19 
      0.0555754         2286.16          2311.3 
      0.0619321         2153.58         2140.18 
       0.067871         1996.04         2014.28 
      0.0738098         1869.07         1888.34 
      0.0800417         1709.25          1737.2 
      0.0862327         1552.51         1566.99 
      0.0921407         1395.55          1398.2 
      0.0982031         1228.92         1235.69 
       0.104506         1107.83         1093.41 
       0.110769         1000.53         986.286 
       0.116806         921.696         914.133 
       0.122832         877.824         865.509 
       0.129052         830.348         829.354 
       0.135211         797.243         796.875 
       0.141259         766.539         760.346 
       0.147318         725.432         715.681 
       0.153489         668.682         662.986 
       0.159709         619.037         607.089 
       0.165845         576.251         554.773 
       0.171974         528.246          509.81 
       0.178125         495.716         474.257 
       0.184229         471.454         448.309 
        0.19034         443.219         429.646 
       0.196428         435.085         415.308 
       0.202534         424.756         402.032 
       0.208729         405.917         387.146 
       0.214876         385.103         369.712 
       0.220989         370.973         349.903 
       0.227147         346.967           328.7 
        0.23329         328.476         307.993 
       0.239377         314.775         289.422 
       0.245482         293.464         273.679 
       0.251667         286.794         260.883 
       0.257832         276.713         250.822 
       0.263955         267.439         242.627 
       0.270079         258.781         235.202 
        0.27624         254.363         227.631 
       0.282372         244.956         219.472 
        0.28843         235.381         210.676 
       0.294538           225.2         201.337 
       0.300721          220.21          191.87 
        0.30691         209.237         182.901 
       0.313033         202.733         174.905 
       0.319153         193.428         167.964 
       0.325316         189.426         161.983 
        0.33145         182.897          156.82 
       0.337538         179.703          152.17 
       0.343633         173.938         147.698 
       0.349808         168.916         143.119 
       0.355968         165.138         138.413 
       0.362074         160.102         133.614 
       0.368217         155.458         128.777 
       0.374374          150.63          124.06 
       0.380519          146.99         119.622 
       0.386598         142.948         115.593 
       0.392688         140.323         111.927 
        0.39888         136.559         108.553 
       0.405048         133.479         105.455 
       0.411186         130.508         102.536 
       0.417313         127.059         99.7054 
       0.423458         124.241         96.8866 
       0.429607          121.09         94.0681 
       0.435692         117.188         91.3025 
       0.441815         116.034         88.5699 
       0.447964         113.993         85.9218 
       0.454126         109.006         83.4059 
       0.460267         107.601         81.0493 
       0.466387         105.448         78.8474 
        0.47254         103.627         76.7705 
       0.478662          102.19         74.8095 
       0.484765         99.3152         72.9272 
       0.490885         97.4602           71.09 
       0.497035         96.2009         69.2836 
       0.503198         93.5959         67.5057 
       0.509342          91.494         65.7682 
       0.515458         90.0754         64.0871 
       0.521598          88.787         62.4599 
       0.527764         87.2981         60.8929 
       0.533884         85.8186         59.4047 
           0.54         84.1432         57.9848 
       0.546137         83.2119         56.6222 
       0.552299         81.9651         55.3062 
       0.558452          79.811          54.034 
       0.564573         78.4069         52.8016 
       0.570708         77.4799          51.598 
       0.576825         76.0959          50.429 
       0.582926         74.6014         49.2934 
       0.589034         73.0413         48.1877 
       0.595184         72.1901         47.1084 
       0.601379          71.238         46.0581 
       0.607522         69.5211         45.0545 
       0.613639         69.3169         44.0905 
       0.619772         67.6476         43.1557 
       0.625918         67.1482         42.2476 
       0.632068         66.2222         41.3645 
       0.638161         65.2365         40.5133 
         0.6443         64.2354         39.6787 
       0.650464          63.291         38.8634 
       0.656582         62.6725         38.0756 
       0.662703         61.4127         37.3085 
       0.668861         60.6722          36.558 
       0.675024         59.8539         35.8281 
       0.681124         58.9024         35.1265 
       0.687237         57.9053         34.4441 
       0.693381         57.4566          33.778 
       0.699536          56.377         33.1294 
       0.705665         56.6144          32.501 
       0.711789         55.0936         31.8893 
       0.717957         54.5936         31.2885 
        0.72409         53.8652         30.7059 
       0.730186         53.0093         30.1413 
       0.736317         52.7706         29.5876 
       0.742472         51.9097          29.046 
       0.748622         51.4755         28.5189 
        0.75476         50.8162         28.0065 
       0.760888          50.045          27.508 
       0.767043         49.5346         27.0201 
       0.773185         48.8517         26.5453 
       0.779291         48.6437         26.0847 
       0.785407         48.1597         25.6345 
       0.791564         47.3666          25.192 
       0.797719         46.5622         24.7601 
       0.803834         46.4592         24.3411 
       0.809972         45.7719         23.9303 
       0.816124         45.0704         23.5281 
       0.822261         44.7944         23.1364 
       0.828378         44.4587         22.7549 
       0.834502         43.9287         22.3819 
       0.840667           43.52          22.015 
       0.846816         42.8782         21.6575 
       0.852925         42.5183         21.3103 
       0.859047         41.9787           20.97 
       0.865192         41.6795         20.6362 
       0.871341         41.4901         20.3095 
       0.877463         40.6486         19.9914 
       0.883569         40.3486         19.6809 
       0.889708         40.0571         19.3755 
       0.895864         39.6825         19.0758 
       0.902008         39.3449         18.7831 
       0.908149         38.9888         18.4968 
       0.914301         38.8065          18.216 
       0.920448         38.1742         17.9414 
       0.926574         37.9222         17.6734 
       0.932687         37.5502         17.4115 
       0.938823          37.028          17.154 
       0.944975         36.8905         16.9012 
       0.951105         36.5351         16.6545 
       0.957225         36.0938         16.4131 
       0.963368         35.9982         16.1757 
       0.969511         35.6814         15.9431 
       0.975621         35.3856         15.7164 
       0.981748         34.9149         15.4935 
       0.987916         34.7507         15.2736 
        0.99406          34.458         15.0588 
        1.00019           34.03         14.8486 
        1.00632         33.8644         14.6426 
        1.01246         33.6335         14.4403 
        1.01859         33.1755         14.2422 
        1.02471         33.1628          14.048 
        1.03085         32.8388         13.8569 
        1.03698         32.3788         13.6697 
        1.04314         32.1452         13.4853 
        1.04929         31.9302         13.3047 
        1.05541         31.5916         13.1281 
        1.06154         31.4949         12.9544 
        1.06769         31.2463         12.7836 
        1.07382         30.9777         12.6164 
        1.07993         30.8638         12.4526 
        1.08607         30.4476         12.2911 
        1.09222         30.3482         12.1323 
        1.09836         30.0228         11.9766 
        1.10449         29.8603         11.8237 
        1.11063          29.473         11.6734 
        1.11677         29.3796         11.5258 
         1.1229          29.271          11.381 
        1.12903         28.8736         11.2385 
        1.13518         28.7011         11.0985 
        1.14131           28.64         10.9608 
        1.14745         28.3571         10.8256 
        1.15359         28.2542         10.6927 
        1.15973         27.9347          10.562 
        1.16584         27.6563          10.434 
        1.17197         27.6964          10.308 
        1.17811         27.3159         10.1837 
        1.18424         27.0992         10.0619 
        1.19038         27.0608         9.94168 
        1.19652         26.8807         9.82349 
        1.20267         26.6802         9.70724 
        1.20881         26.4823          9.5929 
        1.21495         26.3093          9.4806 
        1.22108         26.1299         9.37013 
         1.2272         25.8505         9.26169 
        1.23334         25.7701         9.15473 
        1.23949         25.5763         9.04921 
        1.24562         25.4747         8.94567 
        1.25174         25.3376         8.84391 
        1.25789         25.1473         8.74343 
        1.26402         25.0307         8.64471 
        1.27014         24.7628         8.54776 
        1.27628         24.6062         8.45203 
        1.28244         24.5197         8.35758 
        1.28858         24.4167         8.26472 
        1.29471         24.2226         8.17348 
        1.30084         24.0613         8.08371 
        1.30697         23.8971         7.99517 
        1.31312         23.6897         7.90783 
        1.31925         23.5833         7.82208 
        1.32537         23.5135          7.7377 
        1.33151         23.3052         7.65426 
        1.33765         23.2432         7.57212 
        1.34378         23.1194         7.49135 
        1.34992         22.8166         7.41171 
        1.35606         22.7744         7.33306 
         1.3622         22.6394          7.2557 
        1.36833         22.4921         7.17965 
        1.37445         22.4645         7.10473 
        1.38059         22.2944         7.03066 
        1.38675         22.0573         6.95747 
        1.39288         22.0293         6.88562 
        1.39901         21.8465         6.81482 
        1.40515         21.7672         6.74486 
         1.4113         21.6229         6.67592 
        1.41742         21.4308          6.6082 
        1.42355         21.4003          6.5413 
         1.4297         21.2742         6.47513 
        1.43585         21.2198         6.40991 
        1.44198         20.9982         6.34584 
        1.44809         20.9276         6.28277 
        1.45423         20.8292         6.22033 
        1.46036         20.7511         6.15885 
        1.46649         20.6139         6.09819 
        1.47263         20.4687          6.0383 
        1.47877         20.3776         5.97925 
        1.48491         20.2786          5.9209 
        1.49104         20.2299         5.86345 
        1.49718         20.0417         5.80673 
        1.50333         19.9882         5.75067 
        1.50947         19.9022         5.69547 
         1.5156         19.7262         5.64108 
        1.52172         19.6061         5.58741 
        1.52787         19.5898         5.53433 
          1.534         19.4375         5.48201 
        1.54013         19.2871         5.43042 
        1.54627         19.2348         5.37941 
        1.55241         19.1197         5.32905 
        1.55855         19.0231         5.27941 
        1.56467         18.9475         5.23054 
         1.5708         18.8866         5.18215 
        1.57695         18.7078         5.13431 
        1.58308         18.7153         5.08718 
        1.58922         18.5889         5.04062 
        1.59535         18.4819         4.99466 
         1.6015         18.3812         4.94921 
        1.60764         18.3283         4.90435 
        1.61376         18.2308         4.86017 
        1.61989         18.0679          4.8165 
        1.62604         18.0697         4.77327 
        1.63218          17.938         4.73061 
        1.63831         17.9011         4.68856 
        1.64444         17.7419         4.64701 
        1.65059         17.6717         4.60587 
        1.65673         17.6284         4.56527 
        1.66285          17.498         4.52528 
        1.66898         17.4682         4.48576 
        1.67512         17.3866         4.44663 
        1.68127         17.2708         4.40794 
         1.6874          17.183         4.36979 
        1.69353         17.1374         4.33212 
        1.69967         17.0167         4.29481 
        1.70581          16.948         4.25796 
        1.71193         16.8567         4.22168 
        1.71806         16.7994         4.18574 
        1.72421         16.7072         4.15016 
        1.73035         16.6563         4.11503 
        1.73649           16.56         4.08032 
        1.74262         16.5382         4.04604 
        1.74876         16.4361         4.01213 
        1.75489         16.3663         3.97868 
        1.76101         16.2745         3.94562 
        1.76715         16.2578          3.9129 
        1.77329         16.1428          3.8805 
        1.77943         16.0591         3.84847 
        1.78557          16.006         3.81684 
        1.79171         15.9605         3.78556 
        1.79785         15.8352         3.75463 
        1.80399         15.7827         3.72406 
        1.81012         15.7474         3.69387 
        1.81625         15.6445         3.66402 
        1.82239         15.6156         3.63447 
        1.82853         15.4831         3.60525 
        1.83466          15.427         3.57639 
        1.84078         15.3216         3.54787 
        1.84692         15.3192         3.51962 
        1.85306         15.2343         3.49164 
         1.8592         15.1759         3.46402 
        1.86533         15.1262          3.4367 
        1.87147         15.0477         3.40965 
        1.87761         15.0112         3.38289 
        1.88375         14.8867         3.35644 
        1.88988         14.8764          3.3303 
        1.89601         14.7997         3.30443 
        1.90215         14.7217         3.27881 
        1.90829         14.6842         3.25348 
        1.91442         14.6151         3.22842 
        1.92056         14.5664         3.20364 
         1.9267          14.504          3.1791 
        1.93284           14.42          3.1548 
        1.93897         14.3503          3.1308 
        1.94509         14.3025         3.10711 
        1.95123         14.2468          3.0836 
        1.95737         14.1942         3.06032 
        1.96349         14.1325         3.03734 
        1.96964         14.0704         3.01453 
        1.97578         14.0263         2.99195 
        1.98192         13.9355         2.96964 
        1.98805         13.9106         2.94756 
        1.99419         13.8345          2.9257 
        2.00033         13.7874         2.90406 
        2.00647         13.7485         2.88264 
         2.0126         13.6467         2.86147 
        2.01874         13.6002         2.84049 
        2.02488         13.5329         2.81969 
        2.03101         13.5335         2.79915 
        2.03714         13.4697         2.77883 
        2.04328         13.3927         2.75869 
        2.04941         13.3216         2.73876 
        2.05554         13.3255         2.71905 
        2.06167         13.2429         2.69951 
        2.06781         13.2065         2.68015 
        2.07396         13.1611         2.66096 
        2.08009         13.1001         2.64199 
        2.08622         13.0191         2.62323 
        2.09237          12.996         2.60461 
        2.09851         12.9454         2.58617 
        2.10464         12.8796         2.56794 
        2.11077         12.8303         2.54991 
        2.11691         12.7844         2.53202 
        2.12305         12.7356         2.51429 
        2.12918         12.6803         2.49678 
        2.13531         12.6532         2.47944 
        2.14145         12.5824         2.46221 
         2.1476         12.5585         2.44514 
        2.15372         12.5064         2.42831 
        2.15985          12.442         2.41162 
        2.16599         12.4073         2.39504 
        2.17213          12.377         2.37864 
        2.17827         12.3237         2.36239 
         2.1844         12.2745         2.34632 
        2.19054         12.2068         2.33038 
        2.19666         12.1861         2.31462 
         2.2028         12.1336         2.29899 
        2.20893         12.1008         2.28349 
        2.21508         12.0356         2.26812 
        2.22122         11.9801         2.25289 
        2.22736         11.9446         2.23783 
        2.23349          11.884         2.22292 
        2.23962         11.8621         2.20813 
        2.24577         11.8013         2.19346 
         2.2519         11.7841         2.17895 
        2.25802         11.7336         2.16459 
        2.26417         11.6919         2.15032 
        2.27031         11.6431         2.13617 
        2.27644         11.5938         2.12218 
        2.28257         11.5614         2.10833 
        2.28872         11.5111         2.09457 
        2.29486         11.4874         2.08094 
        2.30099         11.4602         2.06745 
        2.30712         11.4044         2.05408 
        2.31326         11.3683         2.04081 
         2.3194         11.3008         2.02766 
        2.32553         11.2819         2.01465 
        2.33166         11.2036         2.00176 
         2.3378         11.1934         1.98897 
        2.34394         11.1492         1.97628 
        2.35007         11.0952         1.96372 
        2.35619         11.0553         1.95129 
        2.36233         11.0119         1.93893 
        2.36848         11.0034         1.92666 
        2.37462         10.9647         1.91452 
        2.38075         10.8879          1.9025 
        2.38689          10.866         1.89057 
        2.39303         10.8341         1.87874 
        2.39916         10.8011         1.86703 
        2.40529         10.7677         1.85542 
        2.41143         10.7208          1.8439 
        2.41757         10.7011         1.83247 
         2.4237         10.6433         1.82117 
        2.42983         10.6109         1.80995 
        2.43598         10.5884         1.79881 
        2.44211         10.5276         1.78777 
        2.44823         10.4946         1.77686 
        2.45437         10.4779           1.766 
        2.46052         10.4246         1.75523 
        2.46665         10.3824         1.74456 
        2.47279         10.3471         1.73399 
        2.47892         10.3141          1.7235 
        2.48507         10.2877         1.71309 
         2.4912         10.2558         1.70278 
