# k  (h/Mpc)    P(k)  (Mpc/h)^3    P_linear(k)  (Mpc/h)^3
     0.00783031          7160.8         7265.92 
       0.013688         8579.54         8546.02 
       0.019231         8385.85         8373.86 
      0.0249154          7455.1         7552.06 
      0.0312784         6382.33         6411.73 
      0.0375637         5407.45         5391.29 
      0.0433917         4623.11         4658.95 
      0.0492413         4128.13         4132.07 
      0.0555754         3677.14         3734.81 
      0.0619321         3456.23         3431.72 
       0.067871          3131.4         3169.26 
      0.0738098         2858.46         2892.32 
      0.0800417         2537.78         2582.86 
      0.0862327         2261.39         2277.29 
      0.0921407         2023.51         2013.66 
      0.0982031         1791.39          1790.9 
       0.104506         1654.97         1616.91 
       0.110769         1526.66         1494.52 
       0.116806         1428.54         1408.56 
       0.122832          1362.4         1336.62 
       0.129052         1267.32         1261.89 
       0.135211         1189.57         1179.38 
       0.141259         1117.75         1090.26 
       0.147318         1035.99         998.837 
       0.153489         942.527         911.505 
       0.159709         878.115         836.006 
       0.165845         831.413         776.641 
       0.171974         779.001         731.301 
       0.178125         743.319         696.007 
       0.184229         713.313         666.212 
        0.19034          667.64         637.214 
       0.196428         650.239         606.438 
       0.202534         624.727         573.078 
       0.208729         587.542         537.912 
       0.214876         551.985         503.868 
       0.220989         529.367         472.913 
       0.227147         499.342         445.945 
        0.23329         477.388         423.482 
       0.239377         464.359         404.903 
       0.245482         434.183         388.707 
       0.251667         428.232         373.461 
       0.257832         412.651          358.39 
       0.263955         396.946         343.053 
       0.270079         380.697          327.42 
        0.27624         373.014         311.839 
       0.282372         357.409          297.05 
        0.28843         344.529         283.607 
       0.294538         328.477         271.442 
       0.300721         324.292         260.518 
        0.30691         309.036           250.7 
       0.313033          301.59          241.74 
       0.319153         289.697         233.183 
       0.325316         282.343         224.747 
        0.33145         272.546         216.432 
       0.337538         267.996         208.314 
       0.343633         258.541         200.431 
       0.349808         249.954         192.837 
       0.355968         245.658          185.75 
       0.362074         239.111         179.237 
       0.368217         232.351         173.169 
       0.374374          224.25         167.483 
       0.380519         220.487          162.11 
       0.386598         214.635         157.003 
       0.392688         211.485         152.038 
        0.39888         205.764          147.13 
       0.405048         200.675         142.386 
       0.411186         196.164          137.84 
       0.417313         191.906         133.505 
       0.423458         187.787         129.372 
       0.429607         183.352         125.456 
       0.435692         177.678         121.783 
       0.441815         176.196          118.26 
       0.447964         172.897         114.871 
       0.454126          165.54         111.603 
       0.460267         163.615         108.454 
       0.466387         161.309         105.416 
        0.47254          157.72         102.467 
       0.478662           156.4         99.6385 
       0.484765         151.538          96.927 
       0.490885         149.162         94.3176 
       0.497035          147.11         91.8047 
       0.503198         143.105         89.3892 
       0.509342         140.846         87.0732 
       0.515458         138.787         84.8512 
       0.521598         136.569         82.6976 
       0.527764         134.545         80.6069 
       0.533884         132.434         78.5986 
           0.54         130.038         76.6572 
       0.546137          128.92         74.7741 
       0.552299         126.636         72.9486 
       0.558452         124.245         71.1898 
       0.564573         122.089            69.5 
       0.570708         120.088         67.8636 
       0.576825         118.552         66.2864 
       0.582926         116.276         64.7647 
       0.589034         114.548         63.2891 
       0.595184         113.115         61.8493 
       0.601379         111.706         60.4435 
       0.607522         109.128          59.092 
       0.613639         108.703         57.7874 
       0.619772         106.334         56.5195 
       0.625918         105.119         55.2882 
       0.632068         103.938         54.0937 
       0.638161         102.812         52.9457 
         0.6443         101.409         51.8231 
       0.650464         100.244         50.7293 
       0.656582         98.7647          49.675 
       0.662703          97.135         48.6504 
       0.668861         95.8711          47.649 
       0.675024         94.7929         46.6752 
       0.681124         93.8364         45.7385 
       0.687237         92.0854         44.8258 
       0.693381           90.99         43.9339 
       0.699536         90.0432         43.0649 
       0.705665         90.2403         42.2233 
       0.711789         87.8514         41.4052 
       0.717957         87.3933         40.6033 
        0.72409         86.0817         39.8273 
       0.730186          84.675         39.0765 
       0.736317         84.3995         38.3411 
       0.742472         83.5158          37.622 
       0.748622         82.6376         36.9222 
        0.75476         81.7651         36.2417 
       0.760888         80.5865         35.5796 
       0.767043         79.9098         34.9314 
       0.773185         78.9672         34.3009 
       0.779291         78.1907         33.6896 
       0.785407         77.5565         33.0924 
       0.791564         76.7227         32.5061 
       0.797719         75.4931         31.9343 
       0.803834         75.1767           31.38 
       0.809972         73.9523          30.837 
       0.816124         73.5369         30.3057 
       0.822261         72.9011         29.7885 
       0.828378         72.2914         29.2849 
       0.834502         71.5896         28.7926 
       0.840667         70.8318         28.3085 
       0.846816         69.9297          27.837 
       0.852925         69.3933         27.3792 
       0.859047         68.4808         26.9308 
       0.865192         68.1122          26.491 
       0.871341         67.6664         26.0608 
       0.877463         66.5771         25.6421 
       0.883569          66.168         25.2337 
       0.889708         65.7519         24.8322 
       0.895864         65.1879         24.4383 
       0.902008         64.5718         24.0539 
       0.908149         64.1265          23.678 
       0.914301         63.5061         23.3096 
       0.920448         63.0181         22.9493 
       0.926574         62.3932          22.598 
       0.932687         62.1583         22.2548 
       0.938823         61.1432         21.9175 
       0.944975           60.82         21.5865 
       0.951105          60.285         21.2635 
       0.957225         59.5561         20.9477 
       0.963368         59.4511         20.6372 
       0.969511         59.0424         20.3331 
       0.975621         58.6302         20.0368 
       0.981748         57.9794         19.7457 
       0.987916         57.5398         19.4585 
        0.99406         57.1877         19.1781 
        1.00019           56.57         18.9039 
        1.00632         56.2924         18.6353 
        1.01246         55.8237         18.3715 
        1.01859         55.0567         18.1133 
        1.02471         55.1554         17.8604 
        1.03085         54.5663         17.6114 
        1.03698         54.1196         17.3678 
        1.04314         53.6169         17.1278 
        1.04929         53.3008         16.8928 
        1.05541         52.7658         16.6633 
        1.06154         52.7295         16.4374 
        1.06769         52.2246         16.2155 
        1.07382          51.968         15.9983 
        1.07993         51.6544         15.7856 
        1.08607         51.1689          15.576 
        1.09222         50.9059         15.3699 
        1.09836         50.5288         15.1678 
        1.10449         50.1666         14.9696 
        1.11063         49.6853         14.7747 
        1.11677         49.4012         14.5834 
         1.1229          49.088         14.3958 
        1.12903           48.43         14.2113 
        1.13518         48.6284         14.0299 
        1.14131         48.2902         13.8518 
        1.14745         47.6451         13.6769 
        1.15359         47.5902          13.505 
        1.15973         47.0685          13.336 
        1.16584         46.8091         13.1706 
        1.17197          46.551         13.0078 
        1.17811          46.318         12.8472 
        1.18424         45.8518         12.6899 
        1.19038         45.6436         12.5347 
        1.19652          45.491         12.3821 
        1.20267          45.099         12.2322 
        1.20881         44.8317         12.0847 
        1.21495         44.4541         11.9399 
        1.22108         44.2436         11.7975 
         1.2272         43.7862         11.6578 
        1.23334         43.6472           11.52 
        1.23949         43.5805         11.3842 
        1.24562         43.1402         11.2509 
        1.25174         42.9946         11.1199 
        1.25789         42.7506         10.9907 
        1.26402         42.3789         10.8637 
        1.27014         42.0041         10.7391 
        1.27628         41.8822          10.616 
        1.28244         41.5835         10.4946 
        1.28858         41.4256         10.3753 
        1.29471         41.2613         10.2582 
        1.30084         41.0198         10.1429 
        1.30697         40.6975         10.0293 
        1.31312         40.3829         9.91718 
        1.31925         40.2913         9.80717 
        1.32537          40.085         9.69895 
        1.33151         39.7208         9.59197 
        1.33765         39.6584         9.48666 
        1.34378         39.3823         9.38314 
        1.34992         39.0495          9.2811 
        1.35606         38.8402         9.18036 
         1.3622         38.6337         9.08129 
        1.36833          38.419         8.98392 
        1.37445         38.3478         8.88803 
        1.38059         38.0839         8.79325 
        1.38675         37.7714         8.69962 
        1.39288         37.6897         8.60773 
        1.39901         37.3928         8.51721 
        1.40515         37.2216         8.42779 
         1.4113         37.0964         8.33969 
        1.41742         36.8042         8.25318 
        1.42355         36.6154         8.16774 
         1.4297          36.431         8.08325 
        1.43585         36.3238         7.99999 
        1.44198         36.0214         7.91823 
        1.44809         35.9016         7.83775 
        1.45423         35.7319         7.75811 
        1.46036         35.5946         7.67971 
        1.46649         35.3309         7.60237 
        1.47263          35.145         7.52603 
        1.47877         35.0475         7.45078 
        1.48491          34.945         7.37643 
        1.49104         34.6512         7.30327 
        1.49718         34.3131         7.23104 
        1.50333         34.3008         7.15967 
        1.50947         34.1622         7.08941 
         1.5156         33.9253          7.0202 
        1.52172          33.761         6.95192 
        1.52787          33.716          6.8844 
          1.534         33.4658         6.81787 
        1.54013         33.2365         6.75228 
        1.54627         33.1567         6.68744 
        1.55241         32.9084         6.62345 
        1.55855         32.7848         6.56037 
        1.56467         32.5055          6.4983 
         1.5708         32.5536         6.43685 
        1.57695         32.2448         6.37611 
        1.58308         32.1842         6.31629 
        1.58922         32.0982          6.2572 
        1.59535         31.8759         6.19888 
         1.6015          31.653         6.14123 
        1.60764           31.53         6.08434 
        1.61376         31.3638         6.02832 
        1.61989         31.1467         5.97297 
        1.62604         31.1132         5.91818 
        1.63218         30.9681         5.86412 
        1.63831         30.8036         5.81086 
        1.64444         30.6694         5.75823 
        1.65059         30.4502         5.70614 
        1.65673          30.292         5.65474 
        1.66285         30.2028         5.60412 
        1.66898         30.0315          5.5541 
        1.67512         29.9339         5.50459 
        1.68127         29.7287         5.45565 
         1.6874         29.6315          5.4074 
        1.69353         29.4868         5.35977 
        1.69967         29.3323          5.3126 
        1.70581         29.2509         5.26602 
        1.71193         29.1257         5.22017 
        1.71806         28.9138         5.17477 
        1.72421          28.763         5.12982 
        1.73035          28.636         5.08545 
        1.73649         28.5373         5.04162 
        1.74262         28.3876         4.99834 
        1.74876         28.3759         4.95554 
        1.75489         28.1744         4.91333 
        1.76101         28.0187         4.87162 
        1.76715         27.9276         4.83034 
        1.77329         27.8189         4.78949 
        1.77943         27.6808         4.74909 
        1.78557         27.5215         4.70922 
        1.79171          27.416          4.6698 
        1.79785         27.2761         4.63082 
        1.80399         27.1856          4.5923 
        1.81012         27.0882         4.55426 
        1.81625         26.9363         4.51668 
        1.82239         26.8638         4.47946 
        1.82853         26.6615         4.44268 
        1.83466         26.5756         4.40634 
        1.84078         26.3829         4.37045 
        1.84692         26.3184         4.33491 
        1.85306         26.2076         4.29971 
         1.8592         26.0705         4.26496 
        1.86533         25.9466         4.23062 
        1.87147         25.8579         4.19661 
        1.87761         25.8074         4.16296 
        1.88375         25.6889         4.12972 
        1.88988          25.575         4.09688 
        1.89601          25.403         4.06437 
        1.90215           25.35          4.0322 
        1.90829         25.2939         4.00038 
        1.91442         25.1083         3.96891 
        1.92056         25.0552          3.9378 
         1.9267         24.8849         3.90699 
        1.93284         24.7431         3.87649 
        1.93897          24.711         3.84638 
        1.94509         24.5794         3.81665 
        1.95123          24.473         3.78716 
        1.95737         24.3521         3.75796 
        1.96349         24.2679         3.72914 
        1.96964         24.1423         3.70054 
        1.97578          24.082         3.67223 
        1.98192         23.9298         3.64427 
        1.98805         23.8837          3.6166 
        1.99419         23.7498         3.58921 
        2.00033         23.6051          3.5621 
        2.00647          23.544         3.53527 
         2.0126         23.4392         3.50876 
        2.01874         23.3572         3.48249 
        2.02488         23.3213         3.45646 
        2.03101          23.139         3.43074 
        2.03714         23.0599         3.40531 
        2.04328         22.9473         3.38011 
        2.04941         22.8809         3.35518 
        2.05554         22.7898         3.33052 
        2.06167         22.6991         3.30608 
        2.06781         22.5957         3.28188 
        2.07396          22.534         3.25788 
        2.08009         22.4578         3.23417 
        2.08622         22.2977         3.21072 
        2.09237         22.2221         3.18746 
        2.09851         22.1419         3.16442 
        2.10464         22.0917         3.14165 
        2.11077         21.9203         3.11913 
        2.11691         21.8739         3.09678 
        2.12305         21.7998         3.07464 
        2.12918         21.7544         3.05278 
        2.13531         21.6249         3.03113 
        2.14145         21.5843         3.00964 
         2.1476         21.4408         2.98833 
        2.15372         21.3556         2.96733 
        2.15985         21.2357         2.94652 
        2.16599         21.2052         2.92584 
        2.17213         21.1448         2.90539 
        2.17827         20.9766         2.88513 
         2.1844         20.8877         2.86509 
        2.19054         20.8256         2.84522 
        2.19666         20.7661         2.82558 
         2.2028         20.6943          2.8061 
        2.20893         20.6089          2.7868 
        2.21508         20.5104         2.76765 
        2.22122         20.3696         2.74868 
        2.22736         20.3788         2.72993 
        2.23349         20.2577         2.71135 
        2.23962         20.1747         2.69294 
        2.24577         20.0732         2.67469 
         2.2519           20.04         2.65662 
        2.25802         19.9362         2.63876 
        2.26417         19.8914           2.621 
        2.27031          19.804          2.6034 
        2.27644         19.7191           2.586 
        2.28257         19.6208         2.56877 
        2.28872         19.5227         2.55166 
        2.29486         19.4885         2.53471 
        2.30099          19.391         2.51795 
        2.30712         19.3508         2.50133 
        2.31326         19.2796         2.48483 
         2.3194          19.192          2.4685 
        2.32553         19.0989         2.45233 
        2.33166         19.0006         2.43632 
         2.3378         18.9311         2.42043 
        2.34394         18.8854         2.40467 
        2.35007         18.8004         2.38908 
        2.35619         18.6945         2.37364 
        2.36233         18.6696         2.35831 
        2.36848         18.5597         2.34307 
        2.37462         18.4951         2.32801 
        2.38075         18.4298         2.31309 
        2.38689         18.3925         2.29828 
        2.39303         18.2778         2.28361 
        2.39916         18.2087         2.26909 
        2.40529         18.1364         2.25469 
        2.41143         18.0846          2.2404 
        2.41757         18.0227         2.22623 
         2.4237         17.9312         2.21221 
        2.42983         17.8641         2.19832 
        2.43598         17.8205          2.1845 
        2.44211         17.7363         2.17083 
        2.44823         17.6512          2.1573 
        2.45437         17.5885         2.14385 
        2.46052         17.5372         2.13051 
        2.46665         17.4871          2.1173 
        2.47279         17.3806         2.10421 
        2.47892         17.3517         2.09122 
        2.48507         17.2732         2.07833 
         2.4912         17.2313         2.06557 
