# k  (h/Mpc)    P(k)  (Mpc/h)^3    P_linear(k)  (Mpc/h)^3
     0.00783031         5645.13         5726.32 
       0.013688         6754.64         6736.11 
       0.019231         6608.59         6600.88 
      0.0249154         5885.99         5953.34 
      0.0312784         5036.36         5054.58 
      0.0375637         4263.67         4250.22 
      0.0433917         3650.23         3672.93 
      0.0492413         3256.75         3257.59 
      0.0555754          2906.3         2944.43 
      0.0619321         2724.89          2705.5 
       0.067871          2474.2         2498.59 
      0.0738098         2258.09         2280.26 
      0.0800417         2006.09          2036.3 
      0.0862327         1785.43          1795.4 
      0.0921407         1594.41         1587.56 
      0.0982031          1411.7         1411.94 
       0.104506         1300.72         1274.77 
       0.110769         1199.99         1178.28 
       0.116806         1122.52         1110.51 
       0.122832         1070.91         1053.79 
       0.129052         997.809         994.874 
       0.135211         935.737          929.82 
       0.141259         877.381         859.566 
       0.147318         812.101         787.485 
       0.153489         738.813         718.632 
       0.159709         686.478         659.109 
       0.165845         648.666         612.306 
       0.171974          606.92          576.56 
       0.178125         579.401         548.734 
       0.184229         556.151         525.244 
        0.19034         521.096         502.382 
       0.196428           506.4         478.118 
       0.202534         486.184         451.817 
       0.208729         456.512         424.092 
       0.214876         427.973         397.252 
       0.220989         409.831         372.847 
       0.227147         385.582         351.585 
        0.23329         368.313         333.876 
       0.239377         357.483         319.228 
       0.245482          335.06         306.459 
       0.251667         329.656         294.439 
       0.257832         317.715         282.557 
       0.263955         305.242         270.465 
       0.270079         292.601          258.14 
        0.27624         285.794         245.856 
       0.282372         273.789         234.196 
        0.28843         262.882         223.598 
       0.294538         251.072         214.006 
       0.300721         247.046         205.394 
        0.30691         235.466         197.654 
       0.313033         229.307         190.589 
       0.319153          219.57         183.843 
       0.325316         214.537         177.192 
        0.33145         206.691         170.636 
       0.337538         202.838         164.236 
       0.343633         195.538         158.021 
       0.349808         189.154         152.034 
       0.355968         185.243         146.446 
       0.362074           179.8         141.312 
       0.368217         174.612         136.527 
       0.374374         169.011         132.045 
       0.380519         165.576         127.809 
       0.386598         161.083         123.782 
       0.392688         158.314         119.868 
        0.39888         153.996         115.998 
       0.405048          150.14         112.258 
       0.411186         146.661         108.674 
       0.417313         143.043         105.256 
       0.423458         139.809         101.998 
       0.429607         136.324         98.9107 
       0.435692         131.865         96.0149 
       0.441815         130.693         93.2373 
       0.447964         128.324         90.5654 
       0.454126         122.614         87.9884 
       0.460267         121.171         85.5056 
       0.466387         119.079          83.111 
        0.47254         116.617         80.7855 
       0.478662         115.276         78.5557 
       0.484765         111.798          76.418 
       0.490885          109.82         74.3607 
       0.497035         108.374         72.3795 
       0.503198         105.292         70.4751 
       0.509342          103.21         68.6491 
       0.515458         101.627         66.8973 
       0.521598         100.093         65.1994 
       0.527764         98.4935          63.551 
       0.533884         96.8762         61.9677 
           0.54         94.9341         60.4371 
       0.546137         93.9846         58.9525 
       0.552299         92.4497         57.5133 
       0.558452         90.2643         56.1266 
       0.564573         88.6313         54.7943 
       0.570708         87.3837         53.5042 
       0.576825         86.0819         52.2607 
       0.582926         84.3054          51.061 
       0.589034         82.7784         49.8976 
       0.595184         81.7243         48.7625 
       0.601379         80.6331         47.6541 
       0.607522         78.6725         46.5886 
       0.613639         78.4233           45.56 
       0.619772         76.6273         44.5604 
       0.625918         75.8239         43.5896 
       0.632068         74.8917         42.6478 
       0.638161         73.8866         41.7428 
         0.6443         72.8225         40.8578 
       0.650464         71.8537         39.9954 
       0.656582         70.9042         39.1641 
       0.662703         69.5287         38.3563 
       0.668861         68.7016         37.5669 
       0.675024         67.8573         36.7991 
       0.681124         66.9076         36.0606 
       0.687237         65.6877          35.341 
       0.693381         65.0584         34.6378 
       0.699536         64.0623         33.9527 
       0.705665         64.3039         33.2892 
       0.711789         62.5305         32.6442 
       0.717957         62.0225          32.012 
        0.72409         61.1585         31.4002 
       0.730186         60.1486         30.8082 
       0.736317         59.9424         30.2284 
       0.742472         59.1069         29.6615 
       0.748622         58.5008         29.1097 
        0.75476          57.823         28.5733 
       0.760888         56.9443         28.0512 
       0.767043           56.36         27.5402 
       0.773185         55.6466         27.0431 
       0.779291         55.2922         26.5611 
       0.785407         54.7541         26.0903 
       0.791564         54.0034          25.628 
       0.797719         53.1037         25.1773 
       0.803834          52.926         24.7403 
       0.809972         52.0178         24.3121 
       0.816124         51.4892         23.8933 
       0.822261         51.0834         23.4855 
       0.828378          50.722         23.0885 
       0.834502         50.1037         22.7003 
       0.840667         49.6233         22.3187 
       0.846816         48.9224         21.9469 
       0.852925         48.5204          21.586 
       0.859047         47.8679         21.2325 
       0.865192         47.5485         20.8857 
       0.871341         47.3297         20.5465 
       0.877463         46.3954         20.2164 
       0.883569         46.0758         19.8945 
       0.889708         45.7985         19.5779 
       0.895864         45.3498         19.2674 
       0.902008         44.9278         18.9643 
       0.908149         44.5495         18.6679 
       0.914301         44.2415         18.3774 
       0.920448         43.7302         18.0934 
       0.926574          43.309         17.8164 
       0.932687         42.9922         17.5458 
       0.938823         42.3294         17.2799 
       0.944975         42.1972         17.0189 
       0.951105         41.7629         16.7643 
       0.957225          41.243         16.5153 
       0.963368         41.2233         16.2706 
       0.969511         40.8311         16.0308 
       0.975621          40.486         15.7972 
       0.981748         39.9847         15.5676 
       0.987916         39.7404         15.3412 
        0.99406         39.4739         15.1202 
        1.00019         38.9928          14.904 
        1.00632         38.7891         14.6922 
        1.01246         38.5194         14.4842 
        1.01859         37.9619         14.2807 
        1.02471         37.9844         14.0813 
        1.03085         37.6051          13.885 
        1.03698         37.1546         13.6929 
        1.04314         36.8504         13.5037 
        1.04929         36.6264         13.3185 
        1.05541         36.2328         13.1375 
        1.06154         36.1723         12.9594 
        1.06769         35.8233         12.7844 
        1.07382          35.581         12.6132 
        1.07993         35.4155         12.4455 
        1.08607         34.9854         12.2802 
        1.09222         34.8573         12.1178 
        1.09836          34.554         11.9584 
        1.10449         34.2817         11.8022 
        1.11063         33.8705         11.6485 
        1.11677         33.7183         11.4977 
         1.1229         33.5758         11.3498 
        1.12903         33.1035         11.2043 
        1.13518         33.0957         11.0613 
        1.14131         32.9319         10.9209 
        1.14745         32.5098          10.783 
        1.15359         32.4737         10.6475 
        1.15973         32.0746         10.5142 
        1.16584         31.8354         10.3838 
        1.17197         31.7773         10.2554 
        1.17811         31.4569         10.1289 
        1.18424         31.1757         10.0048 
        1.19038         31.1117         9.88243 
        1.19652         30.9518         9.76218 
        1.20267         30.7102         9.64394 
        1.20881         30.4504         9.52768 
        1.21495         30.2435         9.41353 
        1.22108         30.0612         9.30127 
         1.2272         29.7339         9.19112 
        1.23334         29.6539         9.08249 
        1.23949         29.5334         8.97537 
        1.24562         29.2935         8.87029 
        1.25174         29.1746         8.76704 
        1.25789         28.9407         8.66513 
        1.26402         28.7606         8.56503 
        1.27014         28.4735         8.46675 
        1.27628          28.366         8.36973 
        1.28244         28.1962         8.27405 
        1.28858         28.0831         8.17999 
        1.29471         27.9315         8.08761 
        1.30084         27.7582         7.99675 
        1.30697         27.5343         7.90714 
        1.31312         27.2918         7.81878 
        1.31925         27.2076         7.73205 
        1.32537         27.0799         7.64673 
        1.33151         26.8731         7.56238 
        1.33765         26.8163         7.47936 
        1.34378          26.635         7.39775 
        1.34992         26.3296          7.3173 
        1.35606         26.2244         7.23787 
         1.3622         26.0822         7.15976 
        1.36833         25.9202           7.083 
        1.37445         25.9199          7.0074 
        1.38059         25.7075         6.93267 
        1.38675         25.4402         6.85885 
        1.39288         25.4148         6.78641 
        1.39901          25.189         6.71504 
        1.40515         25.0944         6.64454 
         1.4113         24.9731         6.57508 
        1.41742          24.724         6.50688 
        1.42355         24.6888         6.43951 
         1.4297         24.5341          6.3729 
        1.43585         24.4811         6.30726 
        1.44198         24.2387         6.24279 
        1.44809         24.1296         6.17935 
        1.45423          24.035         6.11655 
        1.46036          23.958         6.05474 
        1.46649         23.7685         5.99377 
        1.47263         23.6299         5.93358 
        1.47877         23.5524         5.87425 
        1.48491         23.4363         5.81564 
        1.49104         23.3313         5.75795 
        1.49718         23.1119         5.70101 
        1.50333         23.0796         5.64474 
        1.50947         22.9713         5.58935 
         1.5156         22.8017         5.53478 
        1.52172         22.6498         5.48095 
        1.52787         22.6487         5.42772 
          1.534         22.4463         5.37526 
        1.54013         22.2836         5.32356 
        1.54627         22.2372         5.27244 
        1.55241         22.0889         5.22198 
        1.55855         21.9709         5.17225 
        1.56467          21.859         5.12331 
         1.5708         21.8183         5.07487 
        1.57695         21.5896         5.02698 
        1.58308         21.6242         4.97981 
        1.58922         21.4672         4.93322 
        1.59535         21.3296         4.88725 
         1.6015         21.2332         4.84179 
        1.60764         21.1843         4.79694 
        1.61376         21.0057         4.75278 
        1.61989         20.8707         4.70914 
        1.62604         20.8613         4.66594 
        1.63218         20.7166         4.62332 
        1.63831         20.6615         4.58133 
        1.64444         20.5169         4.53984 
        1.65059         20.4056         4.49877 
        1.65673         20.3104         4.45824 
        1.66285         20.2302         4.41833 
        1.66898         20.1529          4.3789 
        1.67512         20.0848         4.33987 
        1.68127          19.938         4.30128 
         1.6874         19.8486         4.26324 
        1.69353         19.7809         4.22569 
        1.69967         19.6386          4.1885 
        1.70581         19.5658         4.15177 
        1.71193         19.4902         4.11562 
        1.71806         19.3821         4.07983 
        1.72421           19.29         4.04439 
        1.73035         19.1999         4.00941 
        1.73649         19.1406         3.97485 
        1.74262         19.0605         3.94073 
        1.74876         18.9895         3.90699 
        1.75489         18.8746         3.87371 
        1.76101         18.7921         3.84083 
        1.76715         18.7208         3.80828 
        1.77329         18.6514         3.77607 
        1.77943         18.5274         3.74422 
        1.78557         18.4756         3.71279 
        1.79171         18.4058         3.68171 
        1.79785         18.2719         3.65098 
        1.80399         18.1968          3.6206 
        1.81012         18.1833         3.59062 
        1.81625         18.0732         3.56098 
        1.82239         18.0505         3.53164 
        1.82853         17.8828         3.50264 
        1.83466         17.7815           3.474 
        1.84078         17.6887          3.4457 
        1.84692          17.684         3.41768 
        1.85306         17.5783         3.38993 
         1.8592          17.499         3.36253 
        1.86533         17.4327         3.33545 
        1.87147         17.3492         3.30864 
        1.87761         17.3235         3.28211 
        1.88375         17.2288         3.25591 
        1.88988         17.1593         3.23001 
        1.89601         17.0438         3.20439 
        1.90215         16.9958         3.17902 
        1.90829         16.9527         3.15393 
        1.91442         16.8677         3.12912 
        1.92056         16.7936         3.10459 
         1.9267         16.7163          3.0803 
        1.93284         16.6282         3.05626 
        1.93897         16.5812         3.03252 
        1.94509         16.5098         3.00908 
        1.95123         16.4192         2.98583 
        1.95737         16.3791         2.96281 
        1.96349         16.2982         2.94009 
        1.96964          16.223         2.91754 
        1.97578         16.1756         2.89522 
        1.98192         16.0726         2.87317 
        1.98805         16.0427         2.85136 
        1.99419         15.9601         2.82977 
        2.00033         15.8657         2.80839 
        2.00647         15.8162         2.78724 
         2.0126          15.747         2.76634 
        2.01874         15.6731         2.74562 
        2.02488         15.6485          2.7251 
        2.03101         15.5875         2.70483 
        2.03714          15.523         2.68478 
        2.04328         15.4319         2.66491 
        2.04941         15.3569         2.64525 
        2.05554          15.352         2.62581 
        2.06167         15.2774         2.60654 
        2.06781         15.2204         2.58746 
        2.07396         15.1652         2.56854 
        2.08009         15.1036         2.54985 
        2.08622         15.0031         2.53136 
        2.09237         14.9631         2.51302 
        2.09851         14.9081         2.49485 
        2.10464         14.8509          2.4769 
        2.11077         14.7569         2.45914 
        2.11691         14.7382         2.44152 
        2.12305          14.672         2.42407 
        2.12918          14.605         2.40684 
        2.13531         14.5592         2.38977 
        2.14145         14.4805         2.37282 
         2.1476          14.447         2.35602 
        2.15372         14.3916         2.33947 
        2.15985          14.298         2.32306 
        2.16599         14.2749         2.30676 
        2.17213         14.2167         2.29063 
        2.17827         14.1695         2.27466 
         2.1844         14.1012         2.25886 
        2.19054         14.0414          2.2432 
        2.19666         14.0261         2.22771 
         2.2028          13.975         2.21235 
        2.20893         13.8862         2.19714 
        2.21508         13.8234         2.18204 
        2.22122         13.7645         2.16709 
        2.22736         13.7342          2.1523 
        2.23349          13.663         2.13765 
        2.23962         13.6037         2.12314 
        2.24577         13.5466         2.10874 
         2.2519          13.542          2.0945 
        2.25802          13.488         2.08042 
        2.26417         13.4461         2.06642 
        2.27031         13.3604         2.05254 
        2.27644         13.3272         2.03883 
        2.28257         13.2651         2.02524 
        2.28872         13.2142         2.01175 
        2.29486         13.1722         1.99839 
        2.30099         13.1227         1.98517 
        2.30712         13.1008         1.97207 
        2.31326         13.0327         1.95906 
         2.3194         12.9937         1.94618 
        2.32553         12.9298         1.93344 
        2.33166         12.8536         1.92081 
         2.3378         12.8223         1.90828 
        2.34394         12.7867         1.89586 
        2.35007         12.7187         1.88357 
        2.35619         12.6523          1.8714 
        2.36233         12.6394         1.85931 
        2.36848         12.6056          1.8473 
        2.37462         12.5801         1.83542 
        2.38075         12.4976         1.82366 
        2.38689         12.4728         1.81199 
        2.39303         12.4114         1.80042 
        2.39916         12.3766         1.78897 
        2.40529         12.3217         1.77761 
        2.41143         12.2856         1.76635 
        2.41757         12.2446         1.75518 
         2.4237         12.1949         1.74413 
        2.42983         12.1475         1.73317 
        2.43598         12.1102         1.72228 
        2.44211         12.0597          1.7115 
        2.44823         12.0068         1.70083 
        2.45437         11.9906         1.69023 
        2.46052         11.9358         1.67971 
        2.46665         11.8829          1.6693 
        2.47279         11.8264         1.65898 
        2.47892         11.8122         1.64873 
        2.48507           11.78         1.63857 
         2.4912         11.7303         1.62851 
