# k  (h/Mpc)    P(k)  (Mpc/h)^3    P_linear(k)  (Mpc/h)^3
     0.00783031         242.612         244.866 
       0.013688         298.384          300.79 
       0.019231          302.48         303.322 
      0.0249154         279.712           279.8 
      0.0312784         242.333         242.245 
      0.0375637         206.762         206.707 
      0.0433917         180.967         180.501 
      0.0492413         161.585         161.449 
      0.0555754         147.588         147.139 
      0.0619321         135.978         136.352 
       0.067871         127.036         126.994 
      0.0738098         116.957         116.906 
      0.0800417         105.501         105.293 
      0.0862327         93.5742          93.491 
      0.0921407         83.1633         83.0614 
      0.0982031         74.3437         74.0844 
       0.104506         66.9975         66.9927 
       0.110769         62.0417         62.0155 
       0.116806         58.7934         58.5999 
       0.122832          55.853         55.8414 
       0.129052         53.1428          53.025 
       0.135211         50.0465         49.8714 
       0.141259         46.4421         46.3658 
       0.147318         42.6449         42.6592 
       0.153489         39.1203         39.0228 
       0.159709         35.9688         35.8132 
       0.165845         33.2484         33.2609 
       0.171974         31.5026         31.3187 
       0.178125         29.9935         29.8436 
       0.184229         28.7176         28.6461 
        0.19034         27.6833         27.5119 
       0.196428         26.4375         26.3046 
       0.202534         24.9785          24.964 
       0.208729         23.6326          23.507 
       0.214876         22.2467         22.0559 
       0.220989         20.7882         20.7076 
       0.227147         19.7294         19.5192 
        0.23329         18.7496         18.5307 
       0.239377         17.9509         17.7267 
       0.245482         17.2603         17.0456 
       0.251667         16.5676         16.4216 
       0.257832         16.0291         15.8104 
       0.263955         15.3425         15.1821 
       0.270079         14.6909         14.5274 
        0.27624         13.9825         13.8584 
       0.282372         13.3462         13.2104 
        0.28843         12.8211         12.6133 
       0.294538         12.2644         12.0715 
       0.300721         11.7339         11.5887 
        0.30691         11.3685          11.162 
       0.313033         10.9653         10.7799 
       0.319153          10.668         10.4197 
       0.325316         10.2204         10.0649 
        0.33145         9.86368         9.71193 
       0.337538         9.53359         9.36188 
       0.343633         9.21406         9.01656 
       0.349808         8.85581         8.67959 
       0.355968         8.53554         8.36327 
       0.362074         8.27388         8.07263 
       0.368217         7.99373         7.80392 
       0.374374         7.78033         7.55468 
       0.380519         7.50727         7.32143 
       0.386598         7.26901         7.10092 
       0.392688         7.04535         6.88616 
        0.39888         6.84987         6.67256 
       0.405048         6.64768         6.46419 
       0.411186         6.44032         6.26262 
       0.417313         6.25011         6.06916 
       0.423458         6.04202         5.88428 
       0.429607         5.89741         5.70917 
       0.435692          5.7415          5.5457 
       0.441815         5.56378         5.38969 
       0.447964         5.39639         5.24018 
       0.454126         5.27406         5.09622 
       0.460267         5.15513         4.95742 
       0.466387         5.00831         4.82295 
        0.47254         4.88534         4.69171 
       0.478662         4.74992         4.56534 
       0.484765         4.63157         4.44378 
       0.490885         4.50179         4.32658 
       0.497035         4.37456         4.21376 
       0.503198         4.28232         4.10554 
       0.509342         4.16319         4.00197 
       0.515458         4.07593         3.90271 
       0.521598         3.98134         3.80652 
       0.527764         3.89988         3.71307 
       0.533884         3.78371         3.62314 
           0.54          3.7063         3.53595 
       0.546137         3.60832         3.45118 
       0.552299         3.53189         3.36885 
       0.558452         3.45147         3.28949 
       0.564573         3.37899         3.21324 
       0.570708         3.30444         3.13939 
       0.576825         3.23218         3.06824 
       0.582926         3.15578          2.9996 
       0.589034         3.09946         2.93304 
       0.595184         3.03958         2.86806 
       0.601379         2.96513         2.80454 
       0.607522         2.89985         2.74338 
       0.613639         2.83205         2.68426 
       0.619772         2.78559         2.62675 
       0.625918         2.72787         2.57086 
       0.632068         2.67366         2.51663 
       0.638161         2.61966         2.46451 
         0.6443         2.56531         2.41352 
       0.650464         2.51439         2.36382 
       0.656582          2.4752         2.31589 
       0.662703         2.42546         2.26928 
       0.668861         2.36643         2.22371 
       0.675024         2.32502         2.17935 
       0.681124          2.3027         2.13666 
       0.687237         2.24755         2.09504 
       0.693381         2.19462         2.05434 
       0.699536         2.16846         2.01467 
       0.705665         2.12762         1.97622 
       0.711789         2.08055         1.93883 
       0.717957         2.04476         1.90216 
        0.72409         2.00913         1.86667 
       0.730186         1.98301          1.8323 
       0.736317         1.93944         1.79863 
       0.742472         1.91184         1.76569 
       0.748622         1.88102         1.73361 
        0.75476         1.84017         1.70241 
       0.760888         1.81689         1.67203 
       0.767043         1.76972         1.64228 
       0.773185         1.74815         1.61332 
       0.779291         1.72841         1.58523 
       0.785407         1.69565         1.55778 
       0.791564         1.66701         1.53081 
       0.797719         1.63844          1.5045 
       0.803834         1.61182         1.47898 
       0.809972         1.58681         1.45397 
       0.816124         1.56191         1.42949 
       0.822261         1.53835         1.40565 
       0.828378         1.51196         1.38243 
       0.834502         1.48845         1.35971 
       0.840667         1.46914         1.33737 
       0.846816         1.44462          1.3156 
       0.852925         1.41915         1.29445 
       0.859047         1.39871         1.27372 
       0.865192           1.379         1.25339 
       0.871341         1.36027         1.23349 
       0.877463         1.33498         1.21412 
       0.883569         1.31687         1.19522 
       0.889708         1.30083         1.17662 
       0.895864         1.28181         1.15838 
       0.902008         1.25954         1.14056 
       0.908149         1.24373         1.12314 
       0.914301         1.22876         1.10605 
       0.920448         1.21156         1.08934 
       0.926574         1.19728         1.07303 
       0.932687         1.17898          1.0571 
       0.938823         1.15756         1.04143 
       0.944975         1.14551         1.02605 
       0.951105         1.12417         1.01104 
       0.957225         1.11059        0.996354 
       0.963368         1.09809        0.981915 
       0.969511         1.08493        0.967764 
       0.975621         1.06751        0.953971 
       0.981748         1.04895        0.940414 
       0.987916         1.03723        0.927038 
        0.99406         1.02652        0.913974 
        1.00019         1.01177        0.901191 
        1.00632         1.00203        0.888666 
        1.01246        0.987654        0.876362 
        1.01859         0.97545        0.864313 
        1.02471         0.95915        0.852507 
        1.03085        0.946628        0.840884 
        1.03698         0.93762        0.829503 
        1.04314        0.925424        0.818286 
        1.04929        0.916346        0.807305 
        1.05541        0.900482        0.796571 
        1.06154        0.892102        0.786008 
        1.06769        0.881738        0.775621 
        1.07382         0.87029        0.765458 
        1.07993        0.859825        0.755501 
        1.08607        0.849724        0.745681 
        1.09222        0.837751        0.736027 
        1.09836        0.829463        0.726556 
        1.10449        0.817458        0.717264 
        1.11063        0.807543        0.708126 
        1.11677        0.800309         0.69915 
         1.1229          0.7876        0.690347 
        1.12903        0.781198        0.681689 
        1.13518        0.770757        0.673174 
        1.14131        0.763261        0.664809 
        1.14745        0.756225        0.656593 
        1.15359        0.745563        0.648514 
        1.15973        0.738057        0.640569 
        1.16584        0.728355        0.632794 
        1.17197        0.719506        0.625138 
        1.17811        0.711151        0.617585 
        1.18424        0.703494        0.610181 
        1.19038        0.694747        0.602877 
        1.19652        0.689861        0.595696 
        1.20267        0.682782        0.588633 
        1.20881        0.671979        0.581687 
        1.21495        0.666162        0.574865 
        1.22108        0.659565        0.568154 
         1.2272        0.650587        0.561567 
        1.23334        0.644494         0.55507 
        1.23949        0.639093        0.548661 
        1.24562        0.631675        0.542372 
        1.25174        0.624997        0.536191 
        1.25789        0.616498        0.530088 
        1.26402        0.611424        0.524092 
        1.27014        0.603244        0.518205 
        1.27628        0.598928         0.51239 
        1.28244        0.592796        0.506654 
        1.28858        0.585158        0.501014 
        1.29471        0.579663        0.495474 
        1.30084         0.57394        0.490022 
        1.30697        0.569776        0.484645 
        1.31312        0.563602        0.479341 
        1.31925        0.557362        0.474134 
        1.32537        0.552133         0.46901 
        1.33151        0.546138        0.463944 
        1.33765        0.540739        0.458956 
        1.34378         0.53426        0.454051 
        1.34992        0.531452        0.449215 
        1.35606        0.524646        0.444439 
         1.3622        0.520117        0.439742 
        1.36833        0.515911        0.435123 
        1.37445        0.510918        0.430574 
        1.38059        0.505673        0.426077 
        1.38675        0.500086        0.421633 
        1.39288        0.494627         0.41727 
        1.39901        0.491442        0.412972 
        1.40515        0.486086        0.408725 
         1.4113        0.483106        0.404539 
        1.41742        0.477728        0.400429 
        1.42355         0.47141        0.396368 
         1.4297        0.469382        0.392351 
        1.43585        0.463643        0.388392 
        1.44198        0.460261        0.384504 
        1.44809        0.455153        0.380676 
        1.45423        0.451853        0.376886 
        1.46036        0.447446        0.373155 
        1.46649        0.443209        0.369474 
        1.47263        0.438223         0.36584 
        1.47877        0.436948        0.362256 
        1.48491        0.430351        0.358715 
        1.49104        0.428984        0.355229 
        1.49718         0.42371        0.351787 
        1.50333        0.420656        0.348386 
        1.50947        0.417282        0.345037 
         1.5156        0.413033        0.341736 
        1.52172        0.409898         0.33848 
        1.52787        0.404954        0.335259 
          1.534        0.402832        0.332085 
        1.54013        0.399276        0.328955 
        1.54627        0.395942        0.325859 
        1.55241        0.392156        0.322804 
        1.55855        0.388934        0.319792 
        1.56467        0.385921        0.316827 
         1.5708        0.382087        0.313891 
        1.57695        0.378888        0.310988 
        1.58308        0.374601        0.308128 
        1.58922        0.373027        0.305303 
        1.59535        0.369116        0.302515 
         1.6015        0.366386        0.299757 
        1.60764        0.363177        0.297035 
        1.61376         0.36024        0.294355 
        1.61989        0.357049        0.291706 
        1.62604        0.353875        0.289084 
        1.63218        0.352015        0.286496 
        1.63831        0.348343        0.283945 
        1.64444        0.346024        0.281425 
        1.65059         0.34243        0.278929 
        1.65673        0.340065        0.276467 
        1.66285        0.337841        0.274041 
        1.66898        0.334744        0.271644 
        1.67512        0.331816        0.269271 
        1.68127        0.328966        0.266924 
         1.6874        0.326946        0.264611 
        1.69353        0.324095        0.262326 
        1.69967        0.321397        0.260063 
        1.70581        0.319612        0.257828 
        1.71193        0.317294        0.255628 
        1.71806        0.314438        0.253449 
        1.72421        0.311848        0.251291 
        1.73035         0.30911        0.249161 
        1.73649        0.307697        0.247056 
        1.74262        0.304309        0.244977 
        1.74876        0.302786        0.242921 
        1.75489        0.300499        0.240893 
        1.76101        0.297811        0.238889 
        1.76715        0.295884        0.236904 
        1.77329        0.293311         0.23494 
        1.77943        0.291003        0.232998 
        1.78557        0.289737         0.23108 
        1.79171        0.287451        0.229184 
        1.79785         0.28479        0.227308 
        1.80399        0.282145        0.225455 
        1.81012        0.280928        0.223624 
        1.81625        0.279156        0.221814 
        1.82239        0.277413        0.220022 
        1.82853        0.274593        0.218251 
        1.83466        0.272521        0.216501 
        1.84078        0.270602        0.214772 
        1.84692         0.26878        0.213059 
        1.85306        0.267079        0.211363 
         1.8592        0.265033        0.209688 
        1.86533        0.263427        0.208032 
        1.87147        0.261045        0.206393 
        1.87761        0.259243         0.20477 
        1.88375         0.25732        0.203167 
        1.88988        0.255377        0.201582 
        1.89601        0.253156        0.200014 
        1.90215        0.251924        0.198461 
        1.90829        0.249788        0.196926 
        1.91442        0.248756        0.195407 
        1.92056        0.247327        0.193905 
         1.9267        0.245114        0.192418 
        1.93284        0.243022        0.190945 
        1.93897        0.241698         0.18949 
        1.94509        0.240235        0.188054 
        1.95123        0.238086        0.186629 
        1.95737        0.236767        0.185218 
        1.96349        0.235056        0.183826 
        1.96964        0.233369        0.182443 
        1.97578        0.231701        0.181074 
        1.98192        0.230689        0.179722 
        1.98805        0.229179        0.178384 
        1.99419         0.22793         0.17706 
        2.00033        0.225947        0.175748 
        2.00647        0.224434         0.17445 
         2.0126          0.2231        0.173167 
        2.01874        0.221749        0.171896 
        2.02488        0.220243        0.170636 
        2.03101        0.218427        0.169391 
        2.03714        0.217916        0.168159 
        2.04328        0.215583        0.166939 
        2.04941        0.214833        0.165732 
        2.05554        0.213366        0.164537 
        2.06167         0.21187        0.163353 
        2.06781         0.20988         0.16218 
        2.07396        0.209208        0.161017 
        2.08009        0.207679        0.159868 
        2.08622        0.206586        0.158731 
        2.09237        0.205172        0.157603 
        2.09851        0.203519        0.156486 
        2.10464        0.202505        0.155381 
        2.11077        0.201001        0.154288 
        2.11691        0.200046        0.153204 
        2.12305        0.198395         0.15213 
        2.12918        0.197184        0.151069 
        2.13531        0.196209        0.150018 
        2.14145        0.194883        0.148975 
         2.1476        0.193818         0.14794 
        2.15372        0.192736         0.14692 
        2.15985        0.191241        0.145909 
        2.16599        0.189982        0.144905 
        2.17213        0.189239        0.143911 
        2.17827        0.187871        0.142927 
         2.1844        0.186892        0.141953 
        2.19054         0.18587        0.140988 
        2.19666        0.184714        0.140033 
         2.2028        0.183089        0.139086 
        2.20893        0.182359        0.138147 
        2.21508        0.181285        0.137217 
        2.22122        0.180358        0.136294 
        2.22736        0.178974        0.135382 
        2.23349        0.177772        0.134478 
        2.23962        0.176931        0.133582 
        2.24577        0.176043        0.132694 
         2.2519        0.174946        0.131815 
        2.25802        0.173828        0.130945 
        2.26417        0.173086        0.130081 
        2.27031        0.171811        0.129223 
        2.27644        0.171411        0.128376 
        2.28257        0.169998        0.127537 
        2.28872        0.169015        0.126704 
        2.29486        0.168129        0.125878 
        2.30099         0.16693        0.125061 
        2.30712        0.166125        0.124252 
        2.31326        0.164961        0.123448 
         2.3194        0.164292        0.122651 
        2.32553        0.163418        0.121863 
        2.33166        0.162384        0.121083 
         2.3378        0.161452        0.120308 
        2.34394        0.160583         0.11954 
        2.35007        0.159713        0.118779 
        2.35619         0.15897        0.118026 
        2.36233        0.157836        0.117278 
        2.36848          0.1571        0.116535 
        2.37462        0.156481          0.1158 
        2.38075        0.155431        0.115072 
        2.38689        0.154655        0.114349 
        2.39303        0.153805        0.113633 
        2.39916         0.15281        0.112924 
        2.40529        0.152002        0.112221 
        2.41143        0.150916        0.111523 
        2.41757        0.150296        0.110831 
         2.4237        0.149607        0.110146 
        2.42983        0.148971        0.109467 
        2.43598        0.147914        0.108792 
        2.44211        0.146713        0.108124 
        2.44823        0.146549        0.107463 
        2.45437        0.145656        0.106806 
        2.46052        0.144838        0.106153 
        2.46665        0.144032        0.105508 
        2.47279        0.143186        0.104867 
        2.47892        0.142844        0.104232 
        2.48507        0.141649        0.103602 
         2.4912        0.141167        0.102977 
