# k  (h/Mpc)    Pcb(k)  (Mpc/h)^3    Pcb_linear(k)  (Mpc/h)^3
     0.00783031         4670.95         4726.08 
       0.013688          5261.5         5252.44 
       0.019231          4806.9         4797.87 
      0.0249154            3931         3961.07 
      0.0312784         3013.58         3011.01 
      0.0375637         2302.95         2285.85 
      0.0433917         1848.31         1847.26 
      0.0492413         1601.49         1593.57 
      0.0555754         1443.03         1453.95 
      0.0619321         1385.85         1373.59 
       0.067871         1285.24         1293.69 
      0.0738098         1172.79         1179.61 
      0.0800417         1015.84         1024.25 
      0.0862327         859.907         858.378 
      0.0921407         725.328         716.723 
      0.0982031         611.749         606.212 
       0.104506         548.167           533.3 
       0.110769         508.519         496.198 
       0.116806         488.263         481.075 
       0.122832         479.968         472.113 
       0.129052         458.143         456.732 
       0.135211         430.934         428.677 
       0.141259         396.642         389.541 
       0.147318         355.523         345.054 
       0.153489         311.925         302.255 
       0.159709         280.029          267.76 
       0.165845         259.412         244.574 
       0.171974          242.83           231.2 
       0.178125         236.089         224.462 
       0.184229         230.865         220.354 
        0.19034         220.905         215.087 
       0.196428         214.789         206.373 
       0.202534         204.842         193.797 
       0.208729         188.895         178.511 
       0.214876         173.412          163.09 
       0.220989         161.749         149.555 
       0.227147         150.595         138.947 
        0.23329         142.991         131.573 
       0.239377         138.958         126.802 
       0.245482         132.008         123.448 
       0.251667         130.588         120.285 
       0.257832         126.512         116.437 
       0.263955         121.334         111.526 
       0.270079         115.378         105.666 
        0.27624         110.941         99.3714 
       0.282372         105.527         93.3485 
        0.28843         99.8021         88.1449 
       0.294538         95.1254         83.8907 
       0.300721         92.8543         80.5563 
        0.30691         88.8167         77.9429 
       0.313033         86.4515          75.701 
       0.319153         82.7678         73.4724 
       0.325316         81.3605           71.01 
        0.33145          77.969         68.2904 
       0.337538         75.7905         65.4018 
       0.343633         72.5539         62.4919 
       0.349808         70.0272         59.7091 
       0.355968         67.9176         57.2215 
       0.362074         65.6013         55.0995 
       0.368217         63.5119         53.2651 
       0.374374         61.6104         51.6498 
       0.380519         60.2025         50.1467 
       0.386598         58.5788         48.6723 
       0.392688         57.3183         47.1629 
        0.39888          55.544          45.577 
       0.405048         53.9444         43.9814 
       0.411186         52.5185         42.4296 
       0.417313         50.8586         40.9583 
       0.423458         49.4577         39.5986 
       0.429607         48.1653         38.3627 
       0.435692         46.4688          37.243 
       0.441815         45.7811         36.1966 
       0.447964         44.9411         35.1965 
       0.454126         43.0013         34.2143 
       0.460267         42.3845         33.2418 
       0.466387          41.245          32.282 
        0.47254         40.4431         31.3319 
       0.478662         39.8073         30.4129 
       0.484765         38.4518         29.5377 
       0.490885         37.6108         28.7104 
       0.497035          37.152         27.9283 
       0.503198         36.0452         27.1873 
       0.509342         35.1321         26.4848 
       0.515458         34.4327         25.8132 
       0.521598         33.8188         25.1583 
       0.527764           33.12         24.5134 
       0.533884         32.6075         23.8867 
           0.54         31.7609         23.2774 
       0.546137         31.3446         22.6861 
       0.552299         30.7994         22.1145 
       0.558452         29.8544         21.5662 
       0.564573         29.3359         21.0435 
       0.570708         28.8718         20.5417 
       0.576825         28.2681         20.0611 
       0.582926         27.6092          19.598 
       0.589034         26.9836         19.1474 
       0.595184         26.6234         18.7052 
       0.601379         26.0879         18.2716 
       0.607522         25.5376         17.8539 
       0.613639         25.3159         17.4511 
       0.619772         24.6778         17.0605 
       0.625918         24.4734          16.682 
       0.632068         24.0934         16.3156 
       0.638161         23.6172          15.964 
         0.6443         23.1719         15.6209 
       0.650464         22.7533         15.2869 
       0.656582         22.5652         14.9653 
       0.662703         22.1177         14.6528 
       0.668861         21.7114         14.3473 
       0.675024         21.3562         14.0499 
       0.681124         20.9745         13.7636 
       0.687237         20.6064         13.4846 
       0.693381         20.4294         13.2119 
       0.699536         19.9127         12.9465 
       0.705665         19.8887         12.6898 
       0.711789         19.3927         12.4405 
       0.717957         19.1154         12.1966 
        0.72409         18.8476         11.9607 
       0.730186         18.5652         11.7326 
       0.736317         18.3771         11.5093 
       0.742472         18.0489         11.2909 
       0.748622         17.8636         11.0783 
        0.75476         17.5724         10.8716 
       0.760888         17.2783         10.6705 
       0.767043         17.0422         10.4737 
       0.773185         16.7763         10.2822 
       0.779291         16.6807         10.0967 
       0.785407         16.5085         9.91557 
       0.791564         16.2119         9.73781 
       0.797719          15.815         9.56455 
       0.803834          15.803         9.39667 
       0.809972         15.6111         9.23227 
       0.816124         15.3096         9.07148 
       0.822261         15.1193         8.91499 
       0.828378         14.9958          8.7627 
       0.834502         14.8363         8.61385 
       0.840667         14.6243         8.46752 
       0.846816         14.3478         8.32503 
       0.852925         14.2144         8.18673 
       0.859047         14.0555          8.0513 
       0.865192          13.909         7.91851 
       0.871341         13.8013         7.78864 
       0.877463         13.5595         7.66229 
       0.883569         13.3956         7.53907 
       0.889708         13.1946         7.41795 
       0.895864         13.0489         7.29919 
       0.902008         12.9532          7.1833 
       0.908149         12.8094            7.07 
       0.914301         12.7563         6.95898 
       0.920448         12.5331         6.85047 
       0.926574          12.394         6.74466 
       0.932687         12.2408         6.64132 
       0.938823          12.093         6.53979 
       0.944975         11.9718         6.44017 
       0.951105         11.8381         6.34299 
       0.957225         11.7103         6.24799 
       0.963368         11.6529         6.15464 
       0.969511         11.5059          6.0632 
       0.975621         11.4168         5.97412 
       0.981748         11.2309         5.88662 
       0.987916         11.1716         5.80033 
        0.99406         11.0195         5.71611 
        1.00019         10.8768         5.63374 
        1.00632         10.8179         5.55308 
        1.01246         10.7453         5.47388 
        1.01859         10.5459         5.39637 
        1.02471         10.5152         5.32047 
        1.03085         10.4037         5.24577 
        1.03698         10.2286         5.17268 
        1.04314         10.1739         5.10067 
        1.04929          10.055         5.03022 
        1.05541         9.94537         4.96138 
        1.06154         9.88072         4.89368 
        1.06769         9.83069         4.82713 
        1.07382         9.69727         4.76206 
        1.07993         9.61552         4.69833 
        1.08607         9.51574         4.63551 
        1.09222         9.45191         4.57378 
        1.09836         9.33696         4.51325 
        1.10449         9.27019          4.4539 
        1.11063         9.14949         4.39555 
        1.11677         9.11378         4.33827 
         1.1229         9.05186         4.28211 
        1.12903         8.93542         4.22691 
        1.13518         8.82818         4.17264 
        1.14131         8.80333         4.11935 
        1.14745         8.71214         4.06703 
        1.15359         8.65766         4.01561 
        1.15973         8.55242         3.96506 
        1.16584         8.44725         3.91561 
        1.17197         8.41206         3.86694 
        1.17811         8.34348         3.81895 
        1.18424         8.26999         3.77191 
        1.19038         8.22963         3.72554 
        1.19652         8.14767         3.67997 
        1.20267         8.08067         3.63516 
        1.20881          8.0293         3.59112 
        1.21495         7.97124         3.54787 
        1.22108         7.87406         3.50535 
         1.2272         7.81452         3.46363 
        1.23334         7.76188          3.4225 
        1.23949         7.68303         3.38194 
        1.24562         7.64628         3.34215 
        1.25174          7.5869         3.30306 
        1.25789         7.51653         3.26449 
        1.26402         7.48646          3.2266 
        1.27014         7.41323         3.18941 
        1.27628         7.34096          3.1527 
        1.28244         7.28425          3.1165 
        1.28858         7.26924         3.08092 
        1.29471          7.1901         3.04597 
        1.30084         7.11783          3.0116 
        1.30697          7.0923         2.97772 
        1.31312          7.0018          2.9443 
        1.31925         6.94387         2.91151 
        1.32537         6.92141         2.87925 
        1.33151         6.88075         2.84736 
        1.33765          6.8216         2.81598 
        1.34378         6.76999         2.78513 
        1.34992         6.70516         2.75472 
        1.35606         6.68388         2.72471 
         1.3622         6.64639         2.69519 
        1.36833         6.55869         2.66619 
        1.37445         6.53863         2.63763 
        1.38059         6.49388          2.6094 
        1.38675         6.42517         2.58151 
        1.39288         6.41212         2.55415 
        1.39901         6.34774          2.5272 
        1.40515         6.32238         2.50057 
         1.4113         6.27138         2.47435 
        1.41742         6.21963         2.44859 
        1.42355         6.17389         2.42316 
         1.4297         6.16199         2.39802 
        1.43585         6.11272         2.37324 
        1.44198         6.08159         2.34891 
        1.44809         6.03109         2.32496 
        1.45423         5.98969         2.30127 
        1.46036         5.94402         2.27794 
        1.46649         5.92277         2.25494 
        1.47263         5.86389         2.23223 
        1.47877         5.82821         2.20985 
        1.48491          5.8041         2.18774 
        1.49104         5.76553         2.16598 
        1.49718         5.72577          2.1445 
        1.50333         5.69146         2.12328 
        1.50947         5.64372         2.10239 
         1.5156         5.62026         2.08182 
        1.52172         5.59805         2.06152 
        1.52787         5.55214         2.04145 
          1.534         5.50879         2.02167 
        1.54013         5.47558         2.00218 
        1.54627         5.44069          1.9829 
        1.55241         5.40754         1.96388 
        1.55855         5.38071         1.94514 
        1.56467         5.34312         1.92669 
         1.5708         5.32947         1.90844 
        1.57695         5.28742         1.89039 
        1.58308         5.24479         1.87261 
        1.58922         5.23243         1.85506 
        1.59535         5.19885         1.83773 
         1.6015         5.15266         1.82061 
        1.60764          5.1214         1.80371 
        1.61376         5.10566         1.78707 
        1.61989         5.06676         1.77063 
        1.62604          5.0524         1.75436 
        1.63218         5.02789          1.7383 
        1.63831         4.98437         1.72249 
        1.64444         4.95676         1.70686 
        1.65059         4.91631         1.69139 
        1.65673         4.91716         1.67613 
        1.66285         4.86553          1.6611 
        1.66898         4.84724         1.64626 
        1.67512         4.82564         1.63156 
        1.68127         4.79736         1.61703 
         1.6874         4.76529         1.60271 
        1.69353         4.72439         1.58857 
        1.69967         4.71935         1.57457 
        1.70581         4.70097         1.56075 
        1.71193         4.66037         1.54714 
        1.71806         4.63996         1.53367 
        1.72421         4.61856         1.52033 
        1.73035         4.58942         1.50717 
        1.73649         4.56927         1.49416 
        1.74262         4.54058         1.48132 
        1.74876         4.52879         1.46862 
        1.75489         4.49529          1.4561 
        1.76101         4.47058         1.44373 
        1.76715         4.44931         1.43148 
        1.77329         4.41712         1.41936 
        1.77943          4.3952         1.40738 
        1.78557         4.38568         1.39555 
        1.79171          4.3604         1.38386 
        1.79785          4.3282          1.3723 
        1.80399         4.31723         1.36087 
        1.81012         4.29599         1.34959 
        1.81625         4.26742         1.33845 
        1.82239         4.24786         1.32741 
        1.82853         4.22246          1.3165 
        1.83466         4.20284         1.30573 
        1.84078         4.18573         1.29509 
        1.84692         4.16646         1.28455 
        1.85306         4.14252         1.27411 
         1.8592         4.12325         1.26381 
        1.86533         4.10389         1.25363 
        1.87147         4.07946         1.24354 
        1.87761         4.06556         1.23357 
        1.88375         4.03096         1.22371 
        1.88988         4.02683         1.21398 
        1.89601         4.00444         1.20434 
        1.90215         3.98353         1.19481 
        1.90829         3.96093         1.18538 
        1.91442          3.9431         1.17605 
        1.92056         3.93127         1.16683 
         1.9267         3.90754          1.1577 
        1.93284         3.88578         1.14866 
        1.93897         3.86699         1.13973 
        1.94509         3.85573         1.13092 
        1.95123         3.83817         1.12219 
        1.95737         3.81556         1.11353 
        1.96349         3.80316         1.10499 
        1.96964         3.78006         1.09652 
        1.97578         3.75937         1.08813 
        1.98192         3.74939         1.07985 
        1.98805          3.7327         1.07165 
        1.99419         3.70786         1.06353 
        2.00033         3.70049          1.0555 
        2.00647         3.67505         1.04755 
         2.0126          3.6667          1.0397 
        2.01874         3.64996         1.03191 
        2.02488         3.62628          1.0242 
        2.03101         3.61795         1.01658 
        2.03714         3.59038         1.00905 
        2.04328         3.58046         1.00159 
        2.04941         3.55616        0.994202 
        2.05554         3.55171        0.986899 
        2.06167         3.52505        0.979658 
        2.06781         3.52185        0.972489 
        2.07396         3.50842        0.965383 
        2.08009         3.49267        0.958359 
        2.08622         3.46873        0.951413 
        2.09237         3.45652        0.944523 
        2.09851         3.44636          0.9377 
        2.10464         3.42809        0.930955 
        2.11077         3.40742        0.924286 
        2.11691         3.39333        0.917667 
        2.12305          3.3845        0.911112 
        2.12918         3.37161        0.904638 
        2.13531         3.35865        0.898226 
        2.14145         3.33948        0.891861 
         2.1476         3.33064        0.885551 
        2.15372           3.313        0.879334 
        2.15985         3.30434         0.87317 
        2.16599         3.28667        0.867048 
        2.17213         3.27014        0.860991 
        2.17827         3.26226        0.854993 
         2.1844         3.24975        0.849059 
        2.19054         3.22512        0.843178 
        2.19666         3.21759        0.837361 
         2.2028         3.20523        0.831595 
        2.20893         3.19196        0.825879 
        2.21508         3.17975        0.820212 
        2.22122         3.16587        0.814595 
        2.22736          3.1513        0.809043 
        2.23349         3.14371        0.803544 
        2.23962         3.13024        0.798093 
        2.24577         3.11901        0.792688 
         2.2519         3.11019        0.787341 
        2.25802         3.09008        0.782052 
        2.26417         3.08418        0.776796 
        2.27031         3.06795        0.771584 
        2.27644         3.05327        0.766436 
        2.28257         3.03475        0.761334 
        2.28872         3.03676         0.75627 
        2.29486         3.01925        0.751252 
        2.30099         3.00977        0.746291 
        2.30712         2.99282        0.741372 
        2.31326         2.98189        0.736489 
         2.3194         2.97002        0.731653 
        2.32553         2.96294        0.726869 
        2.33166         2.95014        0.722129 
         2.3378         2.93967        0.717426 
        2.34394         2.92748        0.712763 
        2.35007         2.91507        0.708147 
        2.35619         2.90392        0.703579 
        2.36233         2.89336         0.69904 
        2.36848         2.88629        0.694531 
        2.37462         2.87524        0.690072 
        2.38075           2.862        0.685656 
        2.38689         2.85266        0.681276 
        2.39303         2.83724        0.676934 
        2.39916          2.8293        0.672635 
        2.40529         2.81875        0.668373 
        2.41143          2.8088        0.664146 
        2.41757         2.80541        0.659953 
         2.4237         2.78871        0.655804 
        2.42983         2.77772        0.651691 
        2.43598         2.77081        0.647602 
        2.44211         2.75919        0.643556 
        2.44823          2.7452        0.639553 
        2.45437         2.73702        0.635573 
        2.46052         2.73153        0.631624 
        2.46665         2.72282        0.627715 
        2.47279         2.70411        0.623841 
        2.47892         2.70059        0.619997 
        2.48507         2.68852        0.616182 
         2.4912         2.67839        0.612406 
