# k  (h/Mpc)    P(k)  (Mpc/h)^3    P_linear(k)  (Mpc/h)^3
     0.00783031         16314.6           16623 
       0.013688         18520.7         18411.6 
       0.019231         16831.5         16795.4 
      0.0249154         13613.9         13855.7 
      0.0312784         10479.7         10527.1 
      0.0375637         8066.41         7989.21 
      0.0433917         6432.43         6454.99 
      0.0492413         5601.98         5567.66 
      0.0555754         4994.78         5079.26 
      0.0619321         4860.88         4798.07 
       0.067871         4451.54         4518.68 
      0.0738098         4067.79         4119.98 
      0.0800417            3519         3577.18 
      0.0862327         3006.36         2997.77 
      0.0921407         2580.47         2502.99 
      0.0982031         2182.89            2117 
       0.104506         1988.35         1862.33 
       0.110769         1840.82         1732.73 
       0.116806         1765.88          1679.9 
       0.122832         1720.71         1648.58 
       0.129052         1621.36         1594.85 
       0.135211         1529.03         1496.87 
       0.141259         1428.09          1360.2 
       0.147318         1297.76         1204.85 
       0.153489         1148.39          1055.4 
       0.159709         1051.85          934.94 
       0.165845         986.649          853.97 
       0.171974         931.647         807.272 
       0.178125         896.175         783.741 
       0.184229          866.85         769.396 
        0.19034         821.721         751.004 
       0.196428         802.893          720.58 
       0.202534         769.722         676.661 
       0.208729         719.047         623.285 
       0.214876         673.009         569.438 
       0.220989         637.174         522.181 
       0.227147         604.588          485.14 
        0.23329         575.996         459.392 
       0.239377         562.871         442.731 
       0.245482         525.535         431.021 
       0.251667         523.302         419.976 
       0.257832          503.89          406.54 
       0.263955         485.522         389.394 
       0.270079         463.351         368.932 
        0.27624          454.52         346.955 
       0.282372         435.758         325.923 
        0.28843         421.473         307.755 
       0.294538         399.249         292.902 
       0.300721         395.027         281.258 
        0.30691         377.533         272.135 
       0.313033         369.677         264.307 
       0.319153         356.982         256.526 
       0.325316          347.55         247.929 
        0.33145         335.721         238.434 
       0.337538          329.58         228.346 
       0.343633           318.3         218.187 
       0.349808         306.305         208.471 
       0.355968         302.196         199.784 
       0.362074         296.676         192.378 
       0.368217         287.968         185.971 
       0.374374         275.606         180.332 
       0.380519         273.169         175.084 
       0.386598         265.903         169.935 
       0.392688         262.568         164.668 
        0.39888         255.509         159.128 
       0.405048         249.235         153.558 
       0.411186         244.384         148.139 
       0.417313         239.249         143.003 
       0.423458         233.586         138.254 
       0.429607         229.529          133.94 
       0.435692         222.911         130.031 
       0.441815         220.611         126.378 
       0.447964         215.739         122.885 
       0.454126         209.365         119.457 
       0.460267         205.662         116.061 
       0.466387         202.723          112.71 
        0.47254          198.44         109.392 
       0.478662           197.7         106.184 
       0.484765         190.347         103.127 
       0.490885         188.037          100.24 
       0.497035         184.662         97.5088 
       0.503198         181.155         94.9217 
       0.509342         179.403         92.4691 
       0.515458         176.497         90.1244 
       0.521598         172.309         87.8378 
       0.527764         170.583          85.586 
       0.533884         168.164         83.3979 
           0.54         165.366         81.2708 
       0.546137         164.229         79.2063 
       0.552299         160.809         77.2103 
       0.558452         159.386         75.2964 
       0.564573         156.837          73.471 
       0.570708         153.334         71.7194 
       0.576825         151.447         70.0413 
       0.582926         148.789         68.4244 
       0.589034         147.329         66.8515 
       0.595184         145.754         65.3072 
       0.601379         143.148         63.7932 
       0.607522         141.154         62.3352 
       0.613639         139.904         60.9285 
       0.619772         137.153         59.5648 
       0.625918         135.983         58.2433 
       0.632068         133.969          56.964 
       0.638161         132.963         55.7367 
         0.6443         131.005         54.5385 
       0.650464         129.781         53.3725 
       0.656582         127.573         52.2496 
       0.662703         127.055         51.1586 
       0.668861         124.726         50.0919 
       0.675024         123.014         49.0536 
       0.681124         122.261         48.0541 
       0.687237         120.368         47.0798 
       0.693381         118.476         46.1279 
       0.699536         117.673         45.2012 
       0.705665         116.758         44.3048 
       0.711789         114.997         43.4347 
       0.717957         114.934         42.5829 
        0.72409         112.951         41.7594 
       0.730186         111.486         40.9631 
       0.736317         110.329         40.1833 
       0.742472         109.506         39.4208 
       0.748622         108.409         38.6787 
        0.75476         107.388          37.957 
       0.760888         106.201         37.2548 
       0.767043         105.608         36.5676 
       0.773185         104.657         35.8992 
       0.779291         102.717         35.2515 
       0.785407           102.3          34.619 
       0.791564         101.714         33.9984 
       0.797719         99.5002         33.3935 
       0.803834         99.1522         32.8073 
       0.809972          98.388         32.2333 
       0.816124         97.6967          31.672 
       0.822261         96.9352         31.1256 
       0.828378         96.0815         30.5939 
       0.834502         95.5517         30.0742 
       0.840667         94.1447         29.5633 
       0.846816         93.1316         29.0658 
       0.852925         92.5753         28.5829 
       0.859047          91.635         28.1101 
       0.865192         90.8686         27.6465 
       0.871341         90.1353         27.1931 
       0.877463         89.0468         26.7519 
       0.883569         88.9899         26.3217 
       0.889708         87.9579         25.8988 
       0.895864         87.1304         25.4842 
       0.902008         86.4982         25.0796 
       0.908149         86.1514          24.684 
       0.914301         85.1848         24.2964 
       0.920448         84.5196         23.9175 
       0.926574         83.8657         23.5481 
       0.932687         83.8065         23.1873 
       0.938823         82.6005         22.8328 
       0.944975         81.8409          22.485 
       0.951105           81.27         22.1457 
       0.957225         80.7511         21.8141 
       0.963368         79.6635         21.4881 
       0.969511         79.6208         21.1689 
       0.975621         79.0467         20.8579 
       0.981748         78.6049         20.5524 
       0.987916         77.7928         20.2511 
        0.99406         77.2702         19.9571 
        1.00019         77.0107         19.6695 
        1.00632         76.1355         19.3879 
        1.01246         75.7966         19.1114 
        1.01859         75.1789         18.8407 
        1.02471         74.4855         18.5757 
        1.03085         73.8574         18.3149 
        1.03698         73.6816         18.0597 
        1.04314         73.0106         17.8083 
        1.04929         72.6034         17.5624 
        1.05541         71.8469          17.322 
        1.06154         71.7872         17.0856 
        1.06769         71.3705         16.8533 
        1.07382          70.818         16.6261 
        1.07993         70.4741         16.4036 
        1.08607         69.8002         16.1843 
        1.09222         69.6836         15.9688 
        1.09836         69.0087         15.7574 
        1.10449         68.6253         15.5502 
        1.11063         68.1796         15.3465 
        1.11677         67.6767         15.1465 
         1.1229         67.2189         14.9504 
        1.12903         66.8367         14.7577 
        1.13518         66.6931         14.5682 
        1.14131         66.2056         14.3822 
        1.14745         65.8077         14.1995 
        1.15359         65.3974           14.02 
        1.15973         65.0444         13.8435 
        1.16584         64.4671         13.6708 
        1.17197         64.0741         13.5009 
        1.17811         63.8994         13.3333 
        1.18424         63.3151         13.1691 
        1.19038         63.2275         13.0072 
        1.19652         62.8233         12.8481 
        1.20267         62.0848         12.6917 
        1.20881         61.9799         12.5379 
        1.21495         61.4282         12.3869 
        1.22108         61.4055         12.2385 
         1.2272          60.657         12.0928 
        1.23334         60.3792         11.9492 
        1.23949         60.2197         11.8076 
        1.24562         59.7155         11.6687 
        1.25174         59.5507         11.5322 
        1.25789         59.3063         11.3975 
        1.26402         58.6508         11.2652 
        1.27014         58.5704         11.1354 
        1.27628         58.2169         11.0072 
        1.28244         57.8773         10.8808 
        1.28858         57.6857         10.7566 
        1.29471         57.3582         10.6346 
        1.30084         57.0877         10.5146 
        1.30697         56.6689         10.3963 
        1.31312         56.3494         10.2796 
        1.31925         56.0421         10.1651 
        1.32537         55.7745         10.0525 
        1.33151         55.3481         9.94117 
        1.33765         55.2048          9.8316 
        1.34378         54.9553          9.7239 
        1.34992         54.5614         9.61774 
        1.35606         54.3013         9.51294 
         1.3622         54.0233          9.4099 
        1.36833         53.8655         9.30863 
        1.37445         53.4397         9.20891 
        1.38059         53.0597         9.11034 
        1.38675         52.8308           9.013 
        1.39288         52.6894         8.91746 
        1.39901         52.4279         8.82336 
        1.40515         52.0193         8.73041 
         1.4113         51.8199         8.63883 
        1.41742         51.6961         8.54893 
        1.42355         51.3767         8.46014 
         1.4297         51.2661         8.37235 
        1.43585         50.9513         8.28584 
        1.44198         50.5638         8.20089 
        1.44809         50.3938         8.11729 
        1.45423          50.218         8.03456 
        1.46036         49.9287         7.95313 
        1.46649         49.6778          7.8728 
        1.47263         49.4402         7.79353 
        1.47877         49.1067         7.71538 
        1.48491         48.9941         7.63819 
        1.49104          48.711         7.56222 
        1.49718         48.3977         7.48723 
        1.50333         48.4214         7.41314 
        1.50947         48.0348         7.34021 
         1.5156         47.8748         7.26837 
        1.52172         47.6414         7.19749 
        1.52787         47.4649         7.12743 
          1.534          47.104         7.05838 
        1.54013         46.8503         6.99032 
        1.54627         46.8089         6.92303 
        1.55241         46.3804         6.85663 
        1.55855          46.294         6.79119 
        1.56467         46.0711         6.72678 
         1.5708         45.9524         6.66303 
        1.57695         45.7752         6.60002 
        1.58308         45.4907         6.53797 
        1.58922         45.1781         6.47667 
        1.59535         45.1341         6.41619 
         1.6015         44.7275         6.35639 
        1.60764         44.6028         6.29739 
        1.61376         44.3869          6.2393 
        1.61989          44.273          6.1819 
        1.62604         43.9919          6.1251 
        1.63218         43.9212         6.06904 
        1.63831         43.5836         6.01382 
        1.64444         43.4286         5.95927 
        1.65059         43.4427         5.90526 
        1.65673         43.0266         5.85198 
        1.66285         42.7773         5.79951 
        1.66898         42.7479         5.74767 
        1.67512         42.3817         5.69636 
        1.68127         42.3305         5.64563 
         1.6874         42.1003         5.59563 
        1.69353         41.9102         5.54627 
        1.69967         41.7522          5.4974 
        1.70581         41.6147         5.44913 
        1.71193         41.4384         5.40162 
        1.71806         41.0782         5.35458 
        1.72421         41.1153         5.30802 
        1.73035         40.8937         5.26206 
        1.73649         40.6194         5.21665 
        1.74262          40.426         5.17182 
        1.74876         40.2092         5.12748 
        1.75489         40.1652         5.08376 
        1.76101         40.0123         5.04056 
        1.76715         39.7689         4.99781 
        1.77329         39.5818          4.9555 
        1.77943         39.4121         4.91366 
        1.78557         39.2106         4.87237 
        1.79171         39.1366         4.83155 
        1.79785         38.8665         4.79119 
        1.80399         38.8617          4.7513 
        1.81012         38.5646         4.71191 
        1.81625         38.4174         4.67299 
        1.82239         38.2432         4.63446 
        1.82853         38.1089         4.59638 
        1.83466         37.8615         4.55876 
        1.84078          37.686         4.52161 
        1.84692         37.6061         4.48481 
        1.85306         37.3927         4.44838 
         1.8592         37.2656          4.4124 
        1.86533         37.0674         4.37685 
        1.87147         36.9061         4.34165 
        1.87761         36.8197         4.30683 
        1.88375         36.6501         4.27242 
        1.88988         36.4939         4.23843 
        1.89601         36.3154         4.20479 
        1.90215         36.2276         4.17149 
        1.90829         36.1251         4.13857 
        1.91442         35.9627           4.106 
        1.92056         35.7172         4.07381 
         1.9267         35.6798         4.04193 
        1.93284         35.3712         4.01037 
        1.93897         35.3124         3.97921 
        1.94509         35.1971         3.94846 
        1.95123         35.0119         3.91794 
        1.95737         34.8179         3.88773 
        1.96349         34.7184         3.85792 
        1.96964          34.556         3.82833 
        1.97578         34.3632         3.79904 
        1.98192         34.3207         3.77012 
        1.98805         34.1941         3.74149 
        1.99419         34.0512         3.71317 
        2.00033         33.8937         3.68512 
        2.00647         33.7793         3.65737 
         2.0126         33.5491         3.62995 
        2.01874         33.4841         3.60277 
        2.02488          33.378         3.57585 
        2.03101         33.2108         3.54925 
        2.03714          33.107         3.52295 
        2.04328         32.9214         3.49689 
        2.04941         32.7971         3.47111 
        2.05554          32.666         3.44561 
        2.06167         32.5728         3.42033 
        2.06781         32.4102          3.3953 
        2.07396         32.3287         3.37049 
        2.08009         32.1254         3.34597 
        2.08622         31.9331         3.32172 
        2.09237         31.9303         3.29766 
        2.09851         31.8126         3.27384 
        2.10464         31.6435         3.25029 
        2.11077         31.5391           3.227 
        2.11691         31.3484         3.20389 
        2.12305         31.2355         3.18101 
        2.12918         31.1429         3.15841 
        2.13531           30.99         3.13602 
        2.14145         30.8426          3.1138 
         2.1476         30.6711         3.09177 
        2.15372         30.5911         3.07006 
        2.15985         30.5948         3.04854 
        2.16599         30.3856         3.02717 
        2.17213         30.3205         3.00602 
        2.17827         30.1488         2.98508 
         2.1844         30.0404         2.96436 
        2.19054         29.9309         2.94383 
        2.19666         29.7435         2.92352 
         2.2028          29.695         2.90339 
        2.20893          29.606         2.88343 
        2.21508         29.4905         2.86364 
        2.22122          29.337         2.84403 
        2.22736           29.25         2.82465 
        2.23349         29.0815         2.80545 
        2.23962         29.0059         2.78642 
        2.24577         28.8526         2.76755 
         2.2519         28.7469         2.74888 
        2.25802         28.7048         2.73041 
        2.26417         28.5421         2.71206 
        2.27031         28.3919         2.69387 
        2.27644         28.3207         2.67589 
        2.28257         28.2295         2.65808 
        2.28872         28.1107          2.6404 
        2.29486         27.9719         2.62288 
        2.30099          27.882         2.60556 
        2.30712         27.7835         2.58839 
        2.31326         27.6905         2.57134 
         2.3194         27.5568         2.55445 
        2.32553         27.4592         2.53775 
        2.33166          27.362          2.5212 
         2.3378          27.274         2.50478 
        2.34394         27.1823          2.4885 
        2.35007         27.0322         2.47239 
        2.35619         26.9166         2.45644 
        2.36233         26.8327         2.44059 
        2.36848         26.7514         2.42485 
        2.37462         26.6147         2.40928 
        2.38075         26.5644         2.39386 
        2.38689         26.4357         2.37857 
        2.39303         26.3182         2.36341 
        2.39916          26.175          2.3484 
        2.40529         26.1275         2.33352 
        2.41143         26.0393         2.31876 
        2.41757          25.923         2.30412 
         2.4237         25.8656         2.28963 
        2.42983         25.7305         2.27528 
        2.43598         25.6601           2.261 
        2.44211         25.5174         2.24687 
        2.44823         25.4323          2.2329 
        2.45437         25.3048           2.219 
        2.46052         25.2213         2.20521 
        2.46665          25.142         2.19157 
        2.47279         25.0348         2.17804 
        2.47892         24.9803         2.16462 
        2.48507         24.8474          2.1513 
         2.4912         24.7654         2.13812 
