# k  (h/Mpc)    P(k)  (Mpc/h)^3    P_linear(k)  (Mpc/h)^3
     0.00783031         15760.2         16041.5 
       0.013688         19050.3         18909.6 
       0.019231         18375.4         18344.6 
      0.0249154         15909.2         16234.7 
      0.0312784         13330.4         13450.6 
      0.0375637         11138.4         11103.3 
      0.0433917         9413.98         9538.84 
      0.0492413         8475.33         8505.06 
      0.0555754         7575.92         7780.91 
      0.0619321         7251.05         7216.26 
       0.067871         6514.15         6663.89 
      0.0738098         5899.92         6021.98 
      0.0800417         5144.64         5283.69 
      0.0862327         4534.87            4574 
      0.0921407         4060.04         3999.23 
      0.0982031         3595.77         3555.58 
       0.104506         3385.76         3247.33 
       0.110769         3163.23         3054.11 
       0.116806          3002.4         2919.36 
       0.122832         2864.79         2785.07 
       0.129052         2638.58          2614.1 
       0.135211         2457.69         2407.41 
       0.141259         2304.86         2186.21 
       0.147318         2131.32         1973.74 
       0.153489         1934.64         1790.36 
       0.159709         1823.85         1650.76 
       0.165845         1755.64         1555.04 
       0.171974         1670.47         1488.67 
       0.178125         1597.55         1434.69 
       0.184229         1530.13         1378.72 
        0.19034         1435.42         1311.62 
       0.196428          1394.4         1233.05 
       0.202534         1331.65         1148.29 
       0.208729         1256.67         1064.98 
       0.214876         1194.83         992.551 
       0.220989         1150.25         934.481 
       0.227147         1101.56         889.672 
        0.23329          1058.8         855.001 
       0.239377         1039.42         825.489 
       0.245482         971.849         796.039 
       0.251667         964.079          763.32 
       0.257832          923.35         727.298 
       0.263955         890.163         689.706 
       0.270079         854.947         652.797 
        0.27624         843.133         618.869 
       0.282372          808.27         589.677 
        0.28843         795.554         565.499 
       0.294538         754.481           544.9 
       0.300721         750.446         526.348 
        0.30691         718.328         508.526 
       0.313033         703.641         490.522 
       0.319153         686.095         471.827 
       0.325316         664.691         452.554 
        0.33145         646.535         433.671 
       0.337538          635.16         415.964 
       0.343633         617.536         399.787 
       0.349808         595.041         385.175 
       0.355968         590.677         372.135 
       0.362074         582.662         360.335 
       0.368217          565.08         349.058 
       0.374374          540.85         337.974 
       0.380519          539.96         326.936 
       0.386598         524.653         316.024 
       0.392688         521.879         305.305 
        0.39888         506.419          294.82 
       0.405048         496.996         284.976 
       0.411186         489.409         275.895 
       0.417313         479.363          267.48 
       0.423458         469.588         259.588 
       0.429607         462.949         252.102 
       0.435692         451.358         244.946 
       0.441815         447.054         237.894 
       0.447964         437.636         230.962 
       0.454126         429.492          224.18 
       0.460267          420.69         217.629 
       0.466387         415.694         211.373 
        0.47254         409.002         205.403 
       0.478662         407.086          199.77 
       0.484765         392.757         194.426 
       0.490885         389.413         189.309 
       0.497035         381.997         184.364 
       0.503198         377.376         179.564 
       0.509342         374.606         174.902 
       0.515458         370.516         170.388 
       0.521598         360.875         165.999 
       0.527764         355.489         161.745 
       0.533884         352.874         157.679 
           0.54         347.946         153.772 
       0.546137         346.177         150.006 
       0.552299         339.341         146.374 
       0.558452         337.588         142.879 
       0.564573         332.906         139.513 
       0.570708         326.871         136.236 
       0.576825         320.111         133.061 
       0.582926         318.555         129.989 
       0.589034         315.535         127.009 
       0.595184         312.828         124.107 
       0.601379         307.798          121.28 
       0.607522         303.617         118.567 
       0.613639             302         115.953 
       0.619772         295.636         113.414 
       0.625918         294.503         110.948 
       0.632068         289.592         108.556 
       0.638161         288.377         106.255 
         0.6443          283.69         104.004 
       0.650464         281.067         101.808 
       0.656582         278.441         99.6903 
       0.662703         277.885         97.6314 
       0.668861         273.096         95.6192 
       0.675024         270.002          93.663 
       0.681124         268.035          91.783 
       0.687237         265.272         89.9525 
       0.693381         261.258         88.1648 
       0.699536         258.773         86.4234 
       0.705665         256.549          84.737 
       0.711789         255.057         83.0973 
       0.717957         253.323         81.4895 
        0.72409         250.847         79.9329 
       0.730186         247.766         78.4263 
       0.736317          245.21         76.9502 
       0.742472         243.645         75.5069 
       0.748622         241.518         74.1021 
        0.75476         238.985         72.7364 
       0.760888         236.421         71.4076 
       0.767043         236.393          70.107 
       0.773185         233.746         68.8419 
       0.779291         229.682         67.6154 
       0.785407         229.219         66.4173 
       0.791564         226.618         65.2409 
       0.797719         224.127         64.0937 
       0.803834         222.481         62.9816 
       0.809972         221.739          61.892 
       0.816124         220.877         60.8259 
       0.822261         218.556          59.788 
       0.828378         216.311         58.7776 
       0.834502         215.186         57.7898 
       0.840667         212.899         56.8185 
       0.846816          211.34         55.8723 
       0.852925         210.355         54.9538 
       0.859047         208.533         54.0541 
       0.865192         205.941         53.1718 
       0.871341         204.405         52.3086 
       0.877463         203.382         51.4687 
       0.883569          202.65         50.6494 
       0.889708         200.205         49.8439 
       0.895864         198.485         49.0539 
       0.902008          197.24         48.2828 
       0.908149          196.41         47.5289 
       0.914301         193.773         46.7898 
       0.920448           192.8         46.0673 
       0.926574         191.194         45.3627 
       0.932687         191.256         44.6743 
       0.938823         188.829         43.9979 
       0.944975          187.84         43.3339 
       0.951105         186.736         42.6861 
       0.957225         185.309         42.0527 
       0.963368         182.789         41.4301 
       0.969511         182.201         40.8201 
       0.975621         180.498         40.2257 
       0.981748         180.481         39.6417 
       0.987916         178.779         39.0656 
        0.99406         177.026         38.5031 
        1.00019         176.836          37.953 
        1.00632         175.255          37.414 
        1.01246         174.026         36.8848 
        1.01859         173.864         36.3668 
        1.02471         171.373         35.8593 
        1.03085         170.027         35.3598 
        1.03698         169.218          34.871 
        1.04314         167.653         34.3893 
        1.04929         166.943         33.9178 
        1.05541         166.731         33.4572 
        1.06154         164.832          33.004 
        1.06769         164.634         32.5585 
        1.07382         163.098         32.1227 
        1.07993         161.848          31.696 
        1.08607         161.356         31.2753 
        1.09222         160.416         30.8618 
        1.09836          159.11         30.4563 
        1.10449         157.454         30.0586 
        1.11063         156.311         29.6676 
        1.11677         155.912         29.2837 
         1.1229         154.689         28.9073 
        1.12903         154.109         28.5372 
        1.13518         153.197         28.1734 
        1.14131         151.729          27.816 
        1.14745         151.666         27.4651 
        1.15359         150.374         27.1203 
        1.15973          149.36         26.7812 
        1.16584         148.211         26.4494 
        1.17197         147.772         26.1228 
        1.17811         146.588         25.8008 
        1.18424         145.967         25.4851 
        1.19038         145.578         25.1738 
        1.19652         144.275         24.8678 
        1.20267         143.722         24.5669 
        1.20881         142.578         24.2711 
        1.21495         141.713         23.9806 
        1.22108         140.862         23.6949 
         1.2272         139.789         23.4146 
        1.23334          139.46         23.1381 
        1.23949         138.406         22.8655 
        1.24562         137.643          22.598 
        1.25174         136.816         22.3353 
        1.25789         135.971         22.0759 
        1.26402         134.679         21.8211 
        1.27014          133.86         21.5709 
        1.27628          133.59          21.324 
        1.28244         133.305         21.0804 
        1.28858         132.182          20.841 
        1.29471         130.984         20.6058 
        1.30084          130.84         20.3745 
        1.30697         129.462         20.1464 
        1.31312         128.941         19.9214 
        1.31925         128.096         19.7006 
        1.32537         127.717         19.4834 
        1.33151         126.587         19.2687 
        1.33765         125.874         19.0574 
        1.34378         125.395         18.8496 
        1.34992         124.982         18.6449 
        1.35606         124.568         18.4427 
         1.3622         123.271         18.2439 
        1.36833         122.421         18.0485 
        1.37445         121.976          17.856 
        1.38059         121.136         17.6658 
        1.38675         120.563         17.4779 
        1.39288         120.175         17.2935 
        1.39901         119.733         17.1119 
        1.40515         118.521         16.9324 
         1.4113         118.042         16.7556 
        1.41742          117.21          16.582 
        1.42355         116.645         16.4106 
         1.4297         116.135          16.241 
        1.43585         115.258          16.074 
        1.44198         114.801         15.9099 
        1.44809           114.3         15.7484 
        1.45423         113.795         15.5885 
        1.46036         112.978         15.4312 
        1.46649         112.167          15.276 
        1.47263         111.528         15.1228 
        1.47877         111.102         14.9717 
        1.48491         110.087         14.8225 
        1.49104         110.063         14.6757 
        1.49718         109.193         14.5307 
        1.50333         108.654         14.3874 
        1.50947         108.129         14.2464 
         1.5156         107.522         14.1075 
        1.52172          106.88         13.9704 
        1.52787         106.266         13.8349 
          1.534         105.793         13.7013 
        1.54013         105.243         13.5697 
        1.54627          104.76         13.4395 
        1.55241         103.975          13.311 
        1.55855         103.378         13.1844 
        1.56467         103.104         13.0598 
         1.5708         102.248         12.9364 
        1.57695         102.043         12.8145 
        1.58308         101.448         12.6944 
        1.58922         101.094         12.5758 
        1.59535         100.396         12.4587 
         1.6015         99.9983         12.3429 
        1.60764         99.3936         12.2287 
        1.61376         98.9892         12.1163 
        1.61989         98.3496         12.0051 
        1.62604         97.8306         11.8952 
        1.63218         97.6345         11.7866 
        1.63831         96.7059         11.6797 
        1.64444         96.3412         11.5741 
        1.65059         95.8671         11.4695 
        1.65673         95.1554         11.3663 
        1.66285         94.8637         11.2647 
        1.66898         94.4891         11.1643 
        1.67512         93.8058         11.0649 
        1.68127         93.4314         10.9666 
         1.6874         92.6911         10.8698 
        1.69353          92.369         10.7742 
        1.69967         92.0986         10.6795 
        1.70581         91.4637          10.586 
        1.71193          91.012         10.4939 
        1.71806         90.6335         10.4028 
        1.72421         89.9475         10.3125 
        1.73035         89.7325         10.2234 
        1.73649         89.2609         10.1354 
        1.74262         88.6182         10.0485 
        1.74876          88.353          9.9626 
        1.75489         87.7125         9.87784 
        1.76101         87.2344          9.7941 
        1.76715         86.7263         9.71121 
        1.77329         86.5242         9.62918 
        1.77943         85.7974         9.54807 
        1.78557         85.7153           9.468 
        1.79171         84.8474         9.38884 
        1.79785         84.5095         9.31058 
        1.80399         84.1007         9.23322 
        1.81012         83.7945         9.15684 
        1.81625         83.3818         9.08136 
        1.82239         82.9897         9.00662 
        1.82853         82.5584         8.93276 
        1.83466         82.0787         8.85979 
        1.84078          81.687         8.78772 
        1.84692         81.3024         8.71633 
        1.85306         80.8797         8.64565 
         1.8592         80.5908         8.57586 
        1.86533         80.0376         8.50689 
        1.87147         79.5692         8.43859 
        1.87761         79.2748         8.37101 
        1.88375         78.7764         8.30425 
        1.88988         78.4666          8.2383 
        1.89601          78.036         8.17302 
        1.90215         77.5294          8.1084 
        1.90829         77.2067          8.0445 
        1.91442         76.8907         7.98129 
        1.92056         76.3769         7.91882 
         1.9267         76.1204         7.85695 
        1.93284         75.6825         7.79571 
        1.93897         75.3534         7.73524 
        1.94509         75.0515         7.67553 
        1.95123          74.643         7.61631 
        1.95737         74.1486         7.55766 
        1.96349         73.7685         7.49979 
        1.96964         73.4013         7.44235 
        1.97578         73.0303         7.38549 
        1.98192         72.9781         7.32933 
        1.98805         72.2515         7.27376 
        1.99419         72.0301         7.21875 
        2.00033         71.7991         7.16429 
        2.00647         71.3217         7.11041 
         2.0126         70.9895         7.05717 
        2.01874         70.4262         7.00439 
        2.02488         70.2585         6.95211 
        2.03101         69.8096         6.90045 
        2.03714         69.3499         6.84937 
        2.04328         69.1598         6.79875 
        2.04941         68.8482         6.74868 
        2.05554         68.5702         6.69916 
        2.06167         68.2066         6.65006 
        2.06781         67.6941         6.60144 
        2.07396         67.3939         6.55325 
        2.08009         67.1861         6.50561 
        2.08622         66.8309         6.45851 
        2.09237         66.5239         6.41178 
        2.09851         66.2759          6.3655 
        2.10464         65.8407         6.31975 
        2.11077         65.5665         6.27451 
        2.11691         65.2495         6.22962 
        2.12305         64.8423         6.18515 
        2.12918         64.5369         6.14123 
        2.13531         64.1976         6.09773 
        2.14145          63.868         6.05456 
         2.1476         63.5079         6.01175 
        2.15372         63.3685         5.96956 
        2.15985         62.9338         5.92774 
        2.16599         62.6245          5.8862 
        2.17213         62.3614         5.84511 
        2.17827         62.0249         5.80441 
         2.1844         61.7008         5.76414 
        2.19054         61.5222         5.72424 
        2.19666         61.1767         5.68477 
         2.2028         61.0203         5.64564 
        2.20893         60.5657         5.60685 
        2.21508         60.3703         5.56839 
        2.22122         60.0094         5.53027 
        2.22736         59.7484          5.4926 
        2.23349          59.393         5.45528 
        2.23962         59.0921         5.41828 
        2.24577         58.7977          5.3816 
         2.2519         58.5812         5.34531 
        2.25802         58.3274         5.30941 
        2.26417         57.9656         5.27374 
        2.27031         57.7028         5.23837 
        2.27644          57.442         5.20342 
        2.28257            57.2         5.16879 
        2.28872         56.8589         5.13441 
        2.29486         56.4704         5.10035 
        2.30099         56.1924         5.06667 
        2.30712         56.0768         5.03328 
        2.31326         55.7591         5.00013 
         2.3194         55.4967          4.9673 
        2.32553         55.2197         4.93482 
        2.33166         54.8687         4.90264 
         2.3378          54.625         4.87071 
        2.34394          54.347         4.83905 
        2.35007         54.1207         4.80771 
        2.35619         53.9109          4.7767 
        2.36233         53.6489         4.74588 
        2.36848         53.4139         4.71527 
        2.37462         53.0285         4.68499 
        2.38075         52.9322         4.65501 
        2.38689         52.6225         4.62526 
        2.39303         52.3219         4.59579 
        2.39916         52.1042         4.56659 
        2.40529         51.9146         4.53766 
        2.41143         51.6426         4.50895 
        2.41757         51.3597         4.48048 
         2.4237         51.1835         4.45231 
        2.42983         50.8646         4.42438 
        2.43598          50.592         4.39661 
        2.44211         50.3842         4.36913 
        2.44823         50.1775         4.34195 
        2.45437         49.9042         4.31492 
        2.46052         49.7092          4.2881 
        2.46665         49.5209         4.26156 
        2.47279         49.1453         4.23524 
        2.47892         49.0198         4.20914 
        2.48507         48.7276         4.18322 
         2.4912         48.5181         4.15758 
