# k  (h/Mpc)    Pcb(k)  (Mpc/h)^3    Pcb_linear(k)  (Mpc/h)^3
     0.00783031         4564.09         4617.86 
       0.013688         5469.52         5454.55 
       0.019231         5305.71         5296.12 
      0.0249154         4645.86         4689.26 
      0.0312784         3880.01         3886.38 
      0.0375637         3223.65         3208.82 
      0.0433917         2747.14         2757.06 
      0.0492413         2460.94          2458.5 
      0.0555754         2225.94         2249.35 
      0.0619321         2100.26         2086.25 
       0.067871         1911.56         1926.64 
      0.0738098         1727.75         1741.11 
      0.0800417         1510.44          1527.7 
      0.0862327         1319.34         1322.54 
      0.0921407         1164.07         1156.37 
      0.0982031          1030.3         1028.11 
       0.104506         956.916         938.989 
       0.110769         896.633         883.131 
       0.116806         849.676         844.174 
       0.122832         814.537          805.35 
       0.129052          756.36         755.918 
       0.135211         699.227         696.154 
       0.141259         644.424         632.192 
       0.147318         588.187         570.756 
       0.153489         532.372          517.73 
       0.159709          495.42         477.362 
       0.165845         472.454         449.685 
       0.171974         447.483         430.492 
       0.178125         431.419         414.885 
       0.184229         415.375         398.702 
        0.19034         388.253         379.297 
       0.196428         372.656         356.578 
       0.202534         353.567         332.068 
       0.208729         328.583         307.975 
       0.214876         306.436         287.033 
       0.220989         293.406         270.239 
       0.227147         277.343         257.281 
        0.23329         266.746         247.255 
       0.239377         259.841         238.721 
       0.245482         244.992         230.204 
       0.251667         239.913         220.743 
       0.257832         230.109         210.326 
       0.263955         219.552         199.455 
       0.270079           209.3         188.781 
        0.27624         203.121         178.969 
       0.282372         194.653         170.528 
        0.28843         186.665         163.537 
       0.294538         179.023         157.579 
       0.300721         176.036         152.214 
        0.30691         168.201          147.06 
       0.313033         163.361         141.855 
       0.319153         155.828         136.448 
       0.325316         152.357         130.875 
        0.33145         146.148         125.414 
       0.337538         142.771         120.293 
       0.343633         137.408         115.615 
       0.349808         133.029         111.389 
       0.355968          129.97         107.618 
       0.362074         126.026         104.206 
       0.368217         122.328         100.945 
       0.374374         118.594         97.7395 
       0.380519         115.867         94.5468 
       0.386598         112.559         91.3917 
       0.392688          110.27         88.2917 
        0.39888         107.065         85.2595 
       0.405048         104.276          82.413 
       0.411186         101.797         79.7866 
       0.417313         98.9504         77.3532 
       0.423458         96.5558         75.0708 
       0.429607         94.1162         72.9062 
       0.435692         90.9493         70.8362 
       0.441815         89.9552         68.7973 
       0.447964         88.3189         66.7925 
       0.454126         84.3436         64.8313 
       0.460267         83.2382         62.9367 
       0.466387         81.4209         61.1279 
        0.47254         79.8423         59.4011 
       0.478662           78.72          57.772 
       0.484765         76.3409         56.2268 
       0.490885         74.8276          54.747 
       0.497035         73.8469         53.3169 
       0.503198         71.7227         51.9288 
       0.509342         70.0468         50.5805 
       0.515458         68.8402         49.2752 
       0.521598         67.7724         48.0059 
       0.527764           66.55         46.7755 
       0.533884         65.4519         45.5997 
           0.54         63.9985         44.4698 
       0.546137         63.2374          43.381 
       0.552299         62.2379         42.3305 
       0.558452         60.5283         41.3198 
       0.564573         59.4377         40.3462 
       0.570708         58.6109         39.3985 
       0.576825         57.5533         38.4805 
       0.582926         56.3138         37.5921 
       0.589034         55.1035         36.7303 
       0.595184         54.4022         35.8909 
       0.601379         53.5579         35.0733 
       0.607522         52.2885          34.289 
       0.613639         52.0565         33.5329 
       0.619772         50.7922         32.7986 
       0.625918         50.3426         32.0855 
       0.632068         49.6442         31.3936 
       0.638161         48.8237         30.7284 
         0.6443         48.0087         30.0774 
       0.650464         47.2763         29.4424 
       0.656582         46.7961         28.8299 
       0.662703         45.8371         28.2344 
       0.668861         45.1974         27.6525 
       0.675024         44.5478         27.0868 
       0.681124         43.8024         26.5431 
       0.687237         43.0224         26.0138 
       0.693381         42.6756         25.4968 
       0.699536         41.7987         24.9932 
       0.705665         41.9154         24.5055 
       0.711789         40.7863         24.0313 
       0.717957         40.3379         23.5663 
        0.72409          39.802         23.1162 
       0.730186         39.1629         22.6804 
       0.736317         38.9176         22.2536 
       0.742472         38.2629         21.8362 
       0.748622          37.901         21.4299 
        0.75476         37.3783          21.035 
       0.760888         36.7789         20.6507 
       0.767043         36.3629         20.2746 
       0.773185         35.8456         19.9087 
       0.779291           35.67          19.554 
       0.785407         35.3062         19.2075 
       0.791564         34.7143         18.8673 
       0.797719         34.0144         18.5356 
       0.803834         33.9486         18.2139 
       0.809972         33.4666         17.8988 
       0.816124         32.9111         17.5905 
       0.822261          32.641         17.2904 
       0.828378         32.4226         16.9982 
       0.834502         32.0225         16.7125 
       0.840667         31.6669         16.4316 
       0.846816         31.1555          16.158 
       0.852925         30.8953         15.8924 
       0.859047         30.5079         15.6322 
       0.865192         30.2221          15.377 
       0.871341         30.0884         15.1274 
       0.877463         29.4805         14.8845 
       0.883569         29.2145         14.6476 
       0.889708         28.9484         14.4146 
       0.895864          28.662         14.1861 
       0.902008         28.4147         13.9631 
       0.908149         28.1243         13.7451 
       0.914301         28.0201         13.5314 
       0.920448         27.5489         13.3224 
       0.926574         27.3049         13.1187 
       0.932687         27.0286         12.9196 
       0.938823          26.646          12.724 
       0.944975         26.5095          12.532 
       0.951105         26.2413         12.3446 
       0.957225         25.9216         12.1614 
       0.963368         25.8673         11.9814 
       0.969511         25.5883          11.805 
       0.975621         25.3795         11.6331 
       0.981748         25.0086         11.4642 
       0.987916         24.8731         11.2976 
        0.99406           24.64         11.1349 
        1.00019         24.3445         10.9758 
        1.00632         24.1951           10.82 
        1.01246         24.0646         10.6669 
        1.01859         23.6711         10.5171 
        1.02471         23.6369         10.3703 
        1.03085         23.4179         10.2259 
        1.03698         23.0487         10.0845 
        1.04314         22.9065         9.94521 
        1.04929         22.7013         9.80888 
        1.05541         22.4614         9.67565 
        1.06154         22.3755         9.54459 
        1.06769          22.212         9.41576 
        1.07382         21.9883         9.28974 
        1.07993         21.8765         9.16633 
        1.08607         21.5849         9.04466 
        1.09222          21.504         8.92508 
        1.09836         21.2573         8.80782 
        1.10449         21.1181         8.69281 
        1.11063         20.8503         8.57973 
        1.11677         20.7893         8.46871 
         1.1229         20.6781         8.35986 
        1.12903         20.4077         8.25283 
        1.13518         20.2556          8.1476 
        1.14131         20.1954         8.04427 
        1.14745         19.9868         7.94279 
        1.15359         19.9165         7.84305 
        1.15973         19.6825         7.74499 
        1.16584         19.4642         7.64905 
        1.17197         19.4822          7.5546 
        1.17811         19.2141         7.46146 
        1.18424         19.0674         7.37017 
        1.19038         19.0112         7.28014 
        1.19652         18.8831         7.19165 
        1.20267         18.7328         7.10464 
        1.20881         18.5806         7.01909 
        1.21495         18.4671         6.93508 
        1.22108         18.3212         6.85246 
         1.2272         18.1399         6.77139 
        1.23334          18.073         6.69144 
        1.23949         17.9111          6.6126 
        1.24562         17.8244         6.53525 
        1.25174         17.7262         6.45926 
        1.25789         17.5688         6.38425 
        1.26402         17.5046         6.31056 
        1.27014         17.2992         6.23822 
        1.27628         17.1759          6.1668 
        1.28244         17.1138         6.09636 
        1.28858         17.0421         6.02712 
        1.29471         16.8979         5.95911 
        1.30084         16.7706         5.89221 
        1.30697         16.6582         5.82624 
        1.31312         16.4979         5.76119 
        1.31925         16.4103         5.69734 
        1.32537         16.3597         5.63452 
        1.33151         16.2163         5.57243 
        1.33765         16.1523         5.51131 
        1.34378         16.0535         5.45123 
        1.34992         15.8618         5.39201 
        1.35606         15.8372         5.33354 
         1.3622         15.7359         5.27605 
        1.36833         15.6041         5.21954 
        1.37445         15.5846         5.16389 
        1.38059         15.4441         5.10888 
        1.38675         15.2717         5.05454 
        1.39288         15.2563         5.00122 
        1.39901         15.1364         4.94868 
        1.40515         15.0754         4.89679 
         1.4113         14.9608         4.84566 
        1.41742         14.8349         4.79545 
        1.42355         14.7944         4.74587 
         1.4297         14.7307         4.69684 
        1.43585         14.6649         4.64852 
        1.44198         14.5284         4.60106 
        1.44809         14.4507         4.55436 
        1.45423         14.3779         4.50814 
        1.46036         14.3098         4.46264 
        1.46649           14.23         4.41775 
        1.47263          14.112         4.37344 
        1.47877         14.0463         4.32976 
        1.48491         13.9975         4.28661 
        1.49104         13.9406         4.24414 
        1.49718         13.8151         4.20221 
        1.50333         13.7659         4.16078 
        1.50947         13.6935            4.12 
         1.5156         13.5772         4.07982 
        1.52172         13.5117         4.04018 
        1.52787         13.4741         4.00099 
          1.534         13.3624         3.96236 
        1.54013         13.2579         3.92429 
        1.54627         13.2093         3.88664 
        1.55241         13.1423         3.84949 
        1.55855         13.0598         3.81287 
        1.56467         12.9995         3.77683 
         1.5708         12.9824         3.74116 
        1.57695         12.8579          3.7059 
        1.58308         12.8352         3.67117 
        1.58922         12.7543         3.63686 
        1.59535         12.6776           3.603 
         1.6015          12.599         3.56953 
        1.60764         12.5559          3.5365 
        1.61376         12.4857         3.50398 
        1.61989         12.3894         3.47184 
        1.62604          12.381         3.44003 
        1.63218         12.2964         3.40864 
        1.63831         12.2597         3.37772 
        1.64444         12.1444         3.34717 
        1.65059         12.0919         3.31693 
        1.65673         12.0684         3.28709 
        1.66285         11.9634          3.2577 
        1.66898         11.9519         3.22866 
        1.67512         11.8882         3.19992 
        1.68127         11.8253         3.17151 
         1.6874         11.7488          3.1435 
        1.69353         11.6864         3.11584 
        1.69967         11.6378         3.08846 
        1.70581         11.5909         3.06141 
        1.71193         11.5177         3.03479 
        1.71806         11.4716         3.00843 
        1.72421         11.4098         2.98234 
        1.73035         11.3552         2.95658 
        1.73649         11.3121         2.93113 
        1.74262         11.2904         2.90599 
        1.74876         11.2222         2.88114 
        1.75489         11.1677         2.85663 
        1.76101         11.0871         2.83241 
        1.76715         11.0823         2.80844 
        1.77329         10.9874         2.78472 
        1.77943         10.9417         2.76126 
        1.78557         10.9154         2.73811 
        1.79171         10.8779         2.71522 
        1.79785         10.7792         2.69258 
        1.80399         10.7493         2.67021 
        1.81012         10.7295         2.64812 
        1.81625         10.6557         2.62629 
        1.82239         10.6175         2.60468 
        1.82853         10.5399         2.58332 
        1.83466           10.49         2.56222 
        1.84078         10.4362         2.54137 
        1.84692         10.4238         2.52073 
        1.85306         10.3608         2.50029 
         1.8592         10.3184         2.48011 
        1.86533         10.2919         2.46016 
        1.87147         10.2355         2.44041 
        1.87761         10.2063         2.42086 
        1.88375         10.1143         2.40156 
        1.88988         10.1082         2.38248 
        1.89601         10.0635          2.3636 
        1.90215          10.006         2.34492 
        1.90829         9.97084         2.32644 
        1.91442         9.93146         2.30816 
        1.92056         9.88687         2.29009 
         1.9267         9.84664          2.2722 
        1.93284         9.78729         2.25449 
        1.93897         9.74465           2.237 
        1.94509         9.70303         2.21973 
        1.95123         9.67858         2.20261 
        1.95737         9.64282         2.18565 
        1.96349         9.59622         2.16891 
        1.96964         9.54226          2.1523 
        1.97578         9.50908         2.13585 
        1.98192         9.46055         2.11962 
        1.98805          9.4414         2.10354 
        1.99419         9.38402         2.08764 
        2.00033         9.35282         2.07189 
        2.00647          9.3191          2.0563 
         2.0126         9.27082         2.04091 
        2.01874          9.2259         2.02564 
        2.02488         9.17488         2.01052 
        2.03101         9.17316         1.99558 
        2.03714         9.13082         1.98081 
        2.04328         9.08766         1.96617 
        2.04941         9.02566         1.95169 
        2.05554         9.02796         1.93737 
        2.06167         8.97003         1.92317 
        2.06781         8.95411         1.90911 
        2.07396         8.92709         1.89517 
        2.08009         8.88885          1.8814 
        2.08622          8.8096         1.86778 
        2.09237           8.815         1.85426 
        2.09851         8.77452         1.84088 
        2.10464         8.72973         1.82765 
        2.11077         8.68576         1.81457 
        2.11691         8.65794         1.80158 
        2.12305         8.63604         1.78872 
        2.12918         8.59157         1.77602 
        2.13531         8.56855         1.76344 
        2.14145         8.52554         1.75096 
         2.1476         8.51427         1.73857 
        2.15372         8.46979         1.72638 
        2.15985          8.4287         1.71428 
        2.16599         8.41102         1.70227 
        2.17213         8.37417         1.69038 
        2.17827         8.34822         1.67861 
         2.1844         8.31339         1.66697 
        2.19054         8.26628         1.65543 
        2.19666         8.25643         1.64401 
         2.2028         8.21834          1.6327 
        2.20893         8.19898         1.62148 
        2.21508         8.14462         1.61036 
        2.22122         8.11475         1.59934 
        2.22736          8.0935         1.58844 
        2.23349         8.04629         1.57765 
        2.23962          8.0345         1.56695 
        2.24577         7.99441         1.55634 
         2.2519         7.98103         1.54584 
        2.25802         7.94086         1.53546 
        2.26417         7.91976         1.52515 
        2.27031         7.87246         1.51492 
        2.27644         7.85026         1.50481 
        2.28257         7.82459          1.4948 
        2.28872          7.7982         1.48485 
        2.29486         7.77352           1.475 
        2.30099         7.76521         1.46526 
        2.30712         7.71702         1.45561 
        2.31326         7.69096         1.44602 
         2.3194         7.65624         1.43653 
        2.32553         7.63161         1.42713 
        2.33166         7.59113         1.41783 
         2.3378         7.57761         1.40859 
        2.34394         7.55408         1.39944 
        2.35007           7.515         1.39037 
        2.35619         7.48318          1.3814 
        2.36233         7.45689         1.37249 
        2.36848          7.4524         1.36364 
        2.37462         7.42284         1.35488 
        2.38075         7.37505         1.34621 
        2.38689         7.35483         1.33761 
        2.39303         7.33193         1.32909 
        2.39916         7.31966         1.32064 
        2.40529         7.28926         1.31227 
        2.41143         7.26443         1.30397 
        2.41757         7.24426         1.29574 
         2.4237         7.21734         1.28759 
        2.42983         7.18153         1.27951 
        2.43598         7.18207         1.27149 
        2.44211         7.13864         1.26354 
        2.44823         7.11218         1.25568 
        2.45437         7.10343         1.24786 
        2.46052         7.05831          1.2401 
        2.46665         7.03689         1.23243 
        2.47279         7.01043         1.22482 
        2.47892         6.98999         1.21727 
        2.48507         6.96446         1.20977 
         2.4912         6.94477         1.20236 
