# k  (h/Mpc)    P(k)  (Mpc/h)^3    P_linear(k)  (Mpc/h)^3
     0.00783031         7055.08          7117.9 
       0.013688          8323.6         8495.18 
       0.019231         8238.69         8326.98 
      0.0249154         7467.74         7447.61 
      0.0312784         6222.46         6244.86 
      0.0375637         5168.77         5212.18 
      0.0433917          4515.8         4513.84 
      0.0492413         4023.14         4044.41 
      0.0555754         3711.44         3706.94 
      0.0619321         3365.86         3436.89 
       0.067871         3144.77         3172.15 
      0.0738098         2859.91         2868.36 
      0.0800417         2531.27         2523.53 
      0.0862327         2198.02         2195.12 
      0.0921407         1942.82         1930.38 
      0.0982031         1757.03         1725.91 
       0.104506         1589.09         1582.41 
       0.110769         1499.89         1489.78 
       0.116806         1448.51         1422.19 
       0.122832         1363.04         1353.54 
       0.129052          1282.4         1267.73 
       0.135211          1201.4         1166.75 
       0.141259         1088.56         1061.05 
       0.147318         983.329         961.145 
       0.153489         908.761         875.784 
       0.159709         858.409         810.963 
       0.165845         793.105         765.992 
       0.171974         779.006         733.705 
       0.178125         750.224         706.186 
       0.184229         703.926         677.126 
        0.19034         681.008         642.831 
       0.196428         647.851         603.723 
       0.202534         595.876         562.551 
       0.208729         574.213         522.856 
       0.214876         544.611          488.79 
       0.220989         507.419         461.574 
       0.227147         495.623         440.376 
        0.23329         477.863         423.536 
       0.239377         468.359         408.678 
       0.245482         445.243         393.544 
       0.251667         425.933         376.819 
       0.257832         418.153         358.709 
       0.263955         392.394         340.189 
       0.270079         375.288         322.348 
        0.27624         358.042         306.133 
       0.282372         347.701         292.275 
        0.28843         344.139         280.717 
       0.294538         327.378         270.709 
       0.300721         315.837         261.485 
        0.30691         310.458         252.476 
       0.313033         296.412         243.338 
       0.319153         290.657         233.921 
       0.325316         281.996         224.345 
        0.33145         273.517         215.091 
       0.337538         263.368         206.496 
       0.343633         254.891         198.703 
       0.349808         247.397         191.628 
       0.355968         241.773         185.277 
       0.362074         235.282          179.44 
       0.368217         231.391         173.801 
       0.374374         225.627         168.234 
       0.380519         216.203         162.681 
       0.386598         212.274         157.245 
       0.392688         206.169         151.939 
        0.39888         201.718         146.786 
       0.405048         197.154         141.983 
       0.411186         194.633         137.541 
       0.417313         190.258         133.411 
       0.423458         185.189          129.52 
       0.429607         180.675         125.796 
       0.435692          177.64         122.214 
       0.441815         173.362         118.694 
       0.447964         168.211         115.234 
       0.454126         165.331         111.857 
       0.460267         163.501         108.616 
       0.466387         159.652         105.535 
        0.47254         157.691         102.591 
       0.478662         152.543         99.8066 
       0.484765         150.424         97.1653 
       0.490885         147.592         94.6276 
       0.497035         146.035         92.1637 
       0.503198         143.498         89.7637 
       0.509342         139.694         87.4386 
       0.515458         137.732          85.194 
       0.521598         134.358         83.0131 
       0.527764         133.001         80.8993 
       0.533884         132.153         78.8805 
           0.54         128.647         76.9446 
       0.546137         125.684         75.0793 
       0.552299         123.984          73.275 
       0.558452         121.777         71.5333 
       0.564573         121.162         69.8521 
       0.570708          117.85         68.2167 
       0.576825         116.468         66.6356 
       0.582926         115.173         65.1072 
       0.589034         113.219         63.6247 
       0.595184         111.958         62.1794 
       0.601379         109.478         60.7708 
       0.607522         107.415         59.4192 
       0.613639         106.583         58.1171 
       0.619772         104.855          56.853 
       0.625918         104.035         55.6251 
       0.632068         101.764          54.433 
       0.638161         100.451         53.2855 
         0.6443         99.8587         52.1614 
       0.650464         97.6955         51.0648 
       0.656582         97.3013         50.0072 
       0.662703          96.029         48.9795 
       0.668861          93.944         47.9758 
       0.675024         93.8952         47.0006 
       0.681124         92.2928         46.0634 
       0.687237         90.7656         45.1505 
       0.693381         90.0125         44.2585 
       0.699536         88.8984         43.3891 
       0.705665         87.7247         42.5466 
       0.711789         86.5021          41.727 
       0.717957         85.4504         40.9233 
        0.72409         84.6537         40.1452 
       0.730186         84.2382          39.392 
       0.736317         82.8012         38.6543 
       0.742472         81.5896         37.9329 
       0.748622         80.3923         37.2309 
        0.75476         80.1851         36.5484 
       0.760888           79.59         35.8843 
       0.767043         77.9692         35.2342 
       0.773185          77.016         34.6017 
       0.779291          76.176         33.9884 
       0.785407         75.4014         33.3892 
       0.791564         75.1414         32.8007 
       0.797719         73.9753         32.2268 
       0.803834         73.5464         31.6703 
       0.809972         72.8754          31.125 
       0.816124         71.8902         30.5915 
       0.822261          70.991         30.0719 
       0.828378         70.8312         29.5661 
       0.834502          69.827         29.0716 
       0.840667         69.3348         28.5853 
       0.846816         68.6316         28.1115 
       0.852925         67.8077         27.6516 
       0.859047         67.6008          27.201 
       0.865192         66.6187         26.7591 
       0.871341         65.8866         26.3268 
       0.877463         65.3363          25.906 
       0.883569         65.2423         25.4956 
       0.889708         64.5331          25.092 
       0.895864         64.0187         24.6962 
       0.902008         63.3136         24.3098 
       0.908149         62.5293         23.9319 
       0.914301          62.269         23.5616 
       0.920448         62.0884         23.1994 
       0.926574         60.8118         22.8462 
       0.932687         60.5936         22.5011 
       0.938823         60.0879         22.1619 
       0.944975         59.3556          21.829 
       0.951105         58.8995         21.5041 
       0.957225         58.6867         21.1865 
       0.963368         58.0944         20.8742 
       0.969511         57.6253         20.5682 
       0.975621         57.1291           20.27 
       0.981748         56.6126          19.977 
       0.987916         56.1734          19.688 
        0.99406         55.8851         19.4058 
        1.00019         55.1923         19.1297 
        1.00632         54.8159         18.8592 
        1.01246         54.4603         18.5936 
        1.01859         54.1882         18.3336 
        1.02471         53.5929         18.0789 
        1.03085         53.2102         17.8281 
        1.03698         52.8993         17.5827 
        1.04314         52.4562         17.3409 
        1.04929         52.0083         17.1041 
        1.05541         51.7534         16.8728 
        1.06154         51.3862         16.6453 
        1.06769         50.8278         16.4215 
        1.07382         50.4231         16.2027 
        1.07993         50.2503         15.9884 
        1.08607          49.825          15.777 
        1.09222         49.6129         15.5693 
        1.09836         49.1919         15.3656 
        1.10449         48.9085         15.1658 
        1.11063         48.4681         14.9694 
        1.11677         48.3214         14.7765 
         1.1229         47.8011         14.5874 
        1.12903         47.6063         14.4014 
        1.13518           47.45         14.2185 
        1.14131         46.9519         14.0389 
        1.14745         46.6109         13.8626 
        1.15359         46.0928         13.6892 
        1.15973         46.1004         13.5187 
        1.16584         45.7215          13.352 
        1.17197         45.2422         13.1878 
        1.17811         45.0508         13.0258 
        1.18424         44.4394         12.8671 
        1.19038         44.3699         12.7105 
        1.19652         44.1644         12.5567 
        1.20267         43.8404         12.4053 
        1.20881          43.559         12.2566 
        1.21495          43.372         12.1105 
        1.22108         43.2444         11.9668 
         1.2272         42.7554         11.8257 
        1.23334         42.5574         11.6867 
        1.23949         42.2834         11.5495 
        1.24562         41.9905          11.415 
        1.25174         41.7293         11.2827 
        1.25789         41.6294         11.1522 
        1.26402         41.3056          11.024 
        1.27014         41.1661         10.8981 
        1.27628         40.7156         10.7738 
        1.28244         40.7069         10.6512 
        1.28858         40.3316         10.5307 
        1.29471         40.0468         10.4124 
        1.30084         39.7251         10.2959 
        1.30697         39.7613         10.1811 
        1.31312         39.3885         10.0679 
        1.31925         39.0523         9.95671 
        1.32537         38.8681         9.84736 
        1.33151          38.621         9.73925 
        1.33765         38.4998         9.63285 
        1.34378         38.3118         9.52824 
        1.34992         38.0189         9.42512 
        1.35606         37.7207         9.32331 
         1.3622         37.6097         9.22319 
        1.36833          37.453         9.12478 
        1.37445         37.0638         9.02786 
        1.38059         36.9805         8.93205 
        1.38675         36.6512         8.83741 
        1.39288         36.5807         8.74452 
        1.39901         36.2904         8.65302 
        1.40515         36.1643         8.56261 
         1.4113         36.0955         8.47354 
        1.41742         35.8202         8.38608 
        1.42355         35.5373         8.29969 
         1.4297          35.427         8.21426 
        1.43585         35.1943         8.13006 
        1.44198         34.9603         8.04737 
        1.44809         34.7385         7.96599 
        1.45423          34.647         7.88543 
        1.46036         34.5223         7.80613 
        1.46649         34.2799         7.72789 
        1.47263         34.0749         7.65067 
        1.47877         33.9174         7.57453 
        1.48491         33.7622         7.49931 
        1.49104         33.4973         7.42527 
        1.49718         33.4408         7.35218 
        1.50333         33.2777         7.27996 
        1.50947         33.0352         7.20886 
         1.5156         32.9146         7.13881 
        1.52172         32.6751          7.0697 
        1.52787         32.5939         7.00136 
          1.534         32.3383         6.93402 
        1.54013         32.3624         6.86763 
        1.54627          32.037         6.80199 
        1.55241         31.8757          6.7372 
        1.55855         31.7835         6.67334 
        1.56467         31.5634         6.61049 
         1.5708         31.4897         6.54828 
        1.57695         31.3371         6.48677 
        1.58308         31.0608         6.42619 
        1.58922         30.9387         6.36635 
        1.59535         30.8338          6.3073 
         1.6015         30.7847         6.24891 
        1.60764         30.5111         6.19129 
        1.61376           30.36         6.13456 
        1.61989          30.145         6.07849 
        1.62604         30.0408           6.023 
        1.63218         29.8723         5.96824 
        1.63831         29.7907         5.91428 
        1.64444         29.6434         5.86098 
        1.65059          29.475          5.8082 
        1.65673         29.3602         5.75613 
        1.66285         29.2802         5.70485 
        1.66898         29.0491         5.65417 
        1.67512         28.9788         5.60401 
        1.68127         28.8091         5.55442 
         1.6874           28.68         5.50553 
        1.69353         28.5865         5.45726 
        1.69967         28.4543         5.40946 
        1.70581         28.2585         5.36225 
        1.71193         28.1315         5.31578 
        1.71806         28.0522         5.26976 
        1.72421         27.9122          5.2242 
        1.73035         27.7558         5.17923 
        1.73649         27.5762          5.1348 
        1.74262         27.4238         5.09092 
        1.74876         27.4368         5.04753 
        1.75489          27.221         5.00473 
        1.76101         27.1332         4.96245 
        1.76715         27.0085         4.92059 
        1.77329         26.7982         4.87917 
        1.77943           26.77         4.83821 
        1.78557         26.6805         4.79777 
        1.79171         26.5355          4.7578 
        1.79785          26.416         4.71827 
        1.80399         26.2698         4.67919 
        1.81012          26.211         4.64062 
        1.81625         25.9702         4.60249 
        1.82239         25.9044         4.56474 
        1.82853         25.7986         4.52743 
        1.83466         25.6715         4.49057 
        1.84078         25.5368         4.45416 
        1.84692         25.4492          4.4181 
        1.85306         25.3024         4.38239 
         1.8592         25.2701         4.34713 
        1.86533         25.1146         4.31229 
        1.87147         24.9889         4.27778 
        1.87761         24.8526         4.24364 
        1.88375         24.8018         4.20991 
        1.88988         24.6815         4.17658 
        1.89601         24.5265         4.14359 
        1.90215         24.4414         4.11094 
        1.90829         24.3761         4.07865 
        1.91442         24.2083         4.04671 
        1.92056         24.1363         4.01514 
         1.9267         24.0615         3.98387 
        1.93284         23.9635         3.95292 
        1.93897         23.8664         3.92235 
        1.94509         23.7472         3.89217 
        1.95123         23.6583         3.86224 
        1.95737         23.5222         3.83259 
        1.96349         23.4612         3.80334 
        1.96964          23.385          3.7743 
        1.97578         23.2043         3.74556 
        1.98192         23.1275         3.71717 
        1.98805         22.9825         3.68907 
        1.99419         22.9318         3.66127 
        2.00033         22.8164         3.63373 
        2.00647         22.7683         3.60649 
         2.0126         22.6117         3.57957 
        2.01874         22.5413         3.55289 
        2.02488         22.4121         3.52645 
        2.03101         22.3006         3.50033 
        2.03714         22.2609          3.4745 
        2.04328         22.1491         3.44891 
        2.04941         22.0453         3.42359 
        2.05554         21.9813         3.39854 
        2.06167         21.8794         3.37371 
        2.06781         21.8093         3.34913 
        2.07396         21.7151         3.32475 
        2.08009         21.5831         3.30066 
        2.08622         21.5271         3.27684 
        2.09237         21.4621          3.2532 
        2.09851         21.3476         3.22979 
        2.10464         21.2042         3.20665 
        2.11077         21.1888         3.18377 
        2.11691         21.0713         3.16106 
        2.12305         21.0054         3.13857 
        2.12918         20.9079         3.11635 
        2.13531          20.838         3.09434 
        2.14145         20.7324          3.0725 
         2.1476         20.6088         3.05084 
        2.15372          20.589          3.0295 
        2.15985         20.4811         3.00835 
        2.16599         20.3648         2.98733 
        2.17213         20.3123         2.96654 
        2.17827         20.2116         2.94595 
         2.1844         20.1391         2.92557 
        2.19054         20.1196         2.90538 
        2.19666         19.9758         2.88541 
         2.2028         19.9595         2.86561 
        2.20893         19.8222         2.84599 
        2.21508         19.7459         2.82652 
        2.22122         19.6496         2.80724 
        2.22736         19.6328         2.78817 
        2.23349         19.4838         2.76928 
        2.23962         19.4413         2.75056 
        2.24577         19.3454           2.732 
         2.2519         19.2772         2.71363 
        2.25802         19.1599         2.69546 
        2.26417         19.1096          2.6774 
        2.27031         19.0409          2.6595 
        2.27644         18.9855         2.64181 
        2.28257         18.8949         2.62428 
        2.28872         18.8699         2.60688 
        2.29486         18.7702         2.58964 
        2.30099         18.6538         2.57259 
        2.30712         18.6207         2.55569 
        2.31326         18.5078         2.53891 
         2.3194         18.4545         2.52229 
        2.32553         18.4025         2.50584 
        2.33166         18.2914         2.48955 
         2.3378         18.2415         2.47339 
        2.34394          18.163         2.45736 
        2.35007         18.1048         2.44149 
        2.35619         18.0724         2.42579 
        2.36233         17.9114         2.41018 
        2.36848         17.8732         2.39469 
        2.37462         17.8371         2.37936 
        2.38075         17.7647         2.36417 
        2.38689         17.6514         2.34911 
        2.39303         17.6039         2.33419 
        2.39916         17.5089          2.3194 
        2.40529          17.483         2.30475 
        2.41143         17.3738         2.29021 
        2.41757         17.2929         2.27579 
         2.4237         17.2567         2.26152 
        2.42983         17.1957         2.24738 
        2.43598         17.1011         2.23332 
        2.44211          17.065          2.2194 
        2.44823         16.9678         2.20563 
        2.45437         16.9568         2.19194 
        2.46052         16.8615         2.17836 
        2.46665         16.8323         2.16491 
        2.47279         16.7246         2.15158 
        2.47892          16.661         2.13836 
        2.48507         16.6125         2.12523 
         2.4912         16.5356         2.11224 
