# k  (h/Mpc)    Pcb(k)  (Mpc/h)^3    Pcb_linear(k)  (Mpc/h)^3
     0.00783031          4253.7         4300.49 
       0.013688         5682.77         5665.52 
       0.019231         6070.62         6069.18 
      0.0249154         5871.52         5944.03 
      0.0312784         5445.31         5480.02 
      0.0375637         4923.06         4928.15 
      0.0433917         4406.85         4459.02 
      0.0492413         4052.75         4075.91 
      0.0555754         3687.42         3758.03 
      0.0619321            3507         3507.27 
       0.067871         3240.54         3297.67 
      0.0738098         3026.44         3084.78 
      0.0800417         2769.15         2845.77 
      0.0862327         2545.62         2597.64 
      0.0921407         2335.13         2365.95 
      0.0982031         2112.74         2150.31 
       0.104506         1964.09         1962.41 
       0.110769         1816.09         1815.83 
       0.116806         1694.08         1707.35 
       0.122832         1618.96         1621.03 
       0.129052         1520.03         1542.72 
       0.135211         1445.24         1465.64 
       0.141259         1380.23         1384.92 
       0.147318          1303.8         1298.72 
       0.153489         1205.88         1209.24 
       0.159709         1133.76         1123.15 
       0.165845         1078.98         1047.32 
       0.171974          1007.9         983.433 
       0.178125         958.193         931.262 
       0.184229          921.11         889.094 
        0.19034         865.504         852.965 
       0.196428         848.612         819.415 
       0.202534          823.02         785.456 
       0.208729         783.344         749.355 
       0.214876           741.3         712.115 
       0.220989         719.369             675 
       0.227147         676.379         639.284 
        0.23329         648.354          606.81 
       0.239377          631.08         578.537 
       0.245482         591.967         554.062 
       0.251667         584.112         532.524 
       0.257832         564.718         513.234 
       0.263955         545.917          495.13 
       0.270079         528.477         477.229 
        0.27624         520.278         459.047 
       0.282372         498.944         440.806 
        0.28843         483.014         423.001 
       0.294538         462.768         405.748 
       0.300721         457.681         389.435 
        0.30691         436.989         374.513 
       0.313033         426.874         361.138 
       0.319153         411.002         348.972 
       0.325316         401.097         337.611 
        0.33145         389.172         326.872 
       0.337538         384.163         316.509 
       0.343633         372.029         306.296 
       0.349808         361.174         296.098 
       0.355968         355.381         286.148 
       0.362074         346.347          276.64 
       0.368217         337.573         267.539 
       0.374374         327.088         258.966 
       0.380519         321.094          250.96 
       0.386598         313.574         243.536 
       0.392688         309.888         236.511 
        0.39888         301.837         229.686 
       0.405048          295.93         223.127 
       0.411186         289.668         216.783 
       0.417313         283.883         210.608 
       0.423458         278.565         204.591 
       0.429607         272.022         198.769 
       0.435692         264.375         193.232 
       0.441815         262.816         187.908 
       0.447964         258.563         182.812 
       0.454126         248.036         177.942 
       0.460267         245.449         173.304 
       0.466387         242.167         168.865 
        0.47254         237.748         164.556 
       0.478662         235.406         160.403 
       0.484765         229.573         156.388 
       0.490885         226.102          152.48 
       0.497035         223.214         148.675 
       0.503198         217.506         144.992 
       0.509342         214.569         141.454 
       0.515458         211.769         138.062 
       0.521598         209.403         134.781 
       0.527764         206.048         131.607 
       0.533884         202.679         128.566 
           0.54         199.938         125.626 
       0.546137         198.601         122.766 
       0.552299         195.454         119.979 
       0.558452         191.689          117.28 
       0.564573         188.314         114.676 
       0.570708         186.143         112.144 
       0.576825         183.555         109.697 
       0.582926         180.981         107.332 
       0.589034         177.788         105.039 
       0.595184         176.321         102.803 
       0.601379         174.777          100.62 
       0.607522         170.625         98.5198 
       0.613639         170.528         96.4882 
       0.619772          166.61         94.5086 
       0.625918         165.289         92.5807 
       0.632068         163.454         90.7056 
       0.638161         161.921         88.8994 
         0.6443         159.692           87.13 
       0.650464         157.882         85.4031 
       0.656582         156.351         83.7364 
       0.662703         153.586         82.1151 
       0.668861         152.276          80.529 
       0.675024         150.531         78.9847 
       0.681124         149.171         77.4975 
       0.687237          146.64         76.0462 
       0.693381         145.096         74.6256 
       0.699536         143.621         73.2389 
       0.705665         144.322         71.8937 
       0.711789         140.538         70.5838 
       0.717957          140.02         69.2981 
        0.72409          138.05         68.0522 
       0.730186          135.83         66.8452 
       0.736317         135.658         65.6616 
       0.742472         134.204         64.5029 
       0.748622         133.352         63.3737 
        0.75476         131.928         62.2745 
       0.760888         130.274         61.2034 
       0.767043         129.029         60.1535 
       0.773185         127.746         59.1308 
       0.779291          126.69          58.138 
       0.785407           125.8         57.1669 
       0.791564         124.221         56.2122 
       0.797719         122.777         55.2801 
       0.803834         122.329         54.3755 
       0.809972         120.382         53.4882 
       0.816124         119.823         52.6191 
       0.822261         118.897          51.772 
       0.828378          117.76         50.9464 
       0.834502         116.809         50.1383 
       0.840667         115.833         49.3428 
       0.846816         114.743         48.5671 
       0.852925         113.494         47.8131 
       0.859047         112.253         47.0738 
       0.865192         112.096         46.3478 
       0.871341         111.078          45.637 
       0.877463         109.561         44.9444 
       0.883569          108.94         44.2682 
       0.889708         108.415         43.6026 
       0.895864          107.39         42.9491 
       0.902008         106.661         42.3106 
       0.908149         105.931         41.6856 
       0.914301         104.818         41.0724 
       0.920448         104.085         40.4723 
       0.926574          103.48         39.8864 
       0.932687         102.778         39.3135 
       0.938823         101.384           38.75 
       0.944975         101.163         38.1963 
       0.951105         100.169         37.6557 
       0.957225         98.9973         37.1265 
       0.963368         98.6835         36.6059 
       0.969511         98.1242         36.0953 
       0.975621         97.5393         35.5974 
       0.981748         96.5483         35.1078 
       0.987916         96.0373         34.6243 
        0.99406         95.5846          34.152 
        1.00019         94.2324         33.6895 
        1.00632         94.0347         33.2361 
        1.01246         93.0761         32.7905 
        1.01859         92.1378         32.3539 
        1.02471         92.5429         31.9259 
        1.03085         91.4663         31.5042 
        1.03698         90.6045         31.0912 
        1.04314         89.7424         30.6839 
        1.04929         89.5332         30.2849 
        1.05541         88.7569         29.8948 
        1.06154         88.4338         29.5106 
        1.06769         87.6866         29.1327 
        1.07382         87.2849         28.7628 
        1.07993         86.9664         28.4002 
        1.08607         86.1242         28.0424 
        1.09222         85.7623         27.6904 
        1.09836         85.1021          27.345 
        1.10449         84.5842          27.006 
        1.11063         83.7567         26.6724 
        1.11677         83.3592         26.3446 
         1.1229         83.0498         26.0229 
        1.12903          81.973         25.7064 
        1.13518         82.0393          25.395 
        1.14131         81.6642         25.0889 
        1.14745         80.6232         24.7881 
        1.15359         80.3822         24.4923 
        1.15973         79.7346         24.2012 
        1.16584         79.2324         23.9162 
        1.17197         78.8912         23.6354 
        1.17811         78.4171         23.3583 
        1.18424          77.684         23.0866 
        1.19038         77.5764         22.8184 
        1.19652         77.1226         22.5546 
        1.20267         76.5493          22.295 
        1.20881          76.053         22.0396 
        1.21495          75.559         21.7887 
        1.22108         75.0958         21.5418 
         1.2272         74.5207         21.2993 
        1.23334         74.2381           21.06 
        1.23949         73.9529         20.8239 
        1.24562         73.6127         20.5921 
        1.25174         73.1272         20.3642 
        1.25789         72.7428         20.1391 
        1.26402         72.2099         19.9179 
        1.27014         71.6555         19.7005 
        1.27628         71.4402         19.4858 
        1.28244         70.8349         19.2739 
        1.28858         70.5656         19.0655 
        1.29471         70.3282         18.8607 
        1.30084         69.8724         18.6591 
        1.30697         69.2729         18.4601 
        1.31312         68.8693         18.2639 
        1.31925         68.7616         18.0711 
        1.32537         68.3144         17.8813 
        1.33151         67.9084         17.6936 
        1.33765         67.7221         17.5087 
        1.34378          67.343         17.3268 
        1.34992         66.5054         17.1475 
        1.35606         66.3026         16.9703 
         1.3622         65.8771         16.7959 
        1.36833         65.7566         16.6245 
        1.37445          65.501         16.4555 
        1.38059         65.1364         16.2884 
        1.38675         64.7322         16.1232 
        1.39288         64.3466          15.961 
        1.39901         63.9606         15.8011 
        1.40515         63.6733         15.6431 
         1.4113         63.4858         15.4873 
        1.41742         62.8584         15.3343 
        1.42355         62.8105         15.1831 
         1.4297         62.3095         15.0334 
        1.43585         62.1869         14.8859 
        1.44198         61.8075         14.7409 
        1.44809          61.398         14.5981 
        1.45423         61.2486         14.4568 
        1.46036          60.854         14.3176 
        1.46649         60.5586         14.1801 
        1.47263         60.2777         14.0444 
        1.47877         60.0248         13.9106 
        1.48491         59.6701         13.7783 
        1.49104         59.3643          13.648 
        1.49718         58.9319         13.5193 
        1.50333         58.7538         13.3921 
        1.50947          58.369         13.2668 
         1.5156         58.1006         13.1433 
        1.52172          57.858         13.0214 
        1.52787         57.7331         12.9008 
          1.534         57.3369         12.7819 
        1.54013         56.9701         12.6646 
        1.54627         56.9077         12.5486 
        1.55241         56.5376         12.4341 
        1.55855         56.1736         12.3211 
        1.56467         55.8216         12.2099 
         1.5708         55.6933         12.0997 
        1.57695         55.3359         11.9908 
        1.58308         55.2923         11.8834 
        1.58922         54.9641         11.7773 
        1.59535         54.6106         11.6726 
         1.6015         54.3648          11.569 
        1.60764         54.2382         11.4667 
        1.61376         53.9764         11.3659 
        1.61989         53.4272         11.2663 
        1.62604         53.3471         11.1677 
        1.63218          53.023         11.0703 
        1.63831          52.821         10.9743 
        1.64444         52.6708         10.8794 
        1.65059         52.1746         10.7855 
        1.65673         52.0425         10.6927 
        1.66285         51.8746         10.6013 
        1.66898         51.4807          10.511 
        1.67512         51.2765         10.4215 
        1.68127         50.9594          10.333 
         1.6874         50.9027         10.2458 
        1.69353         50.5727         10.1596 
        1.69967         50.4171         10.0742 
        1.70581         50.1709         9.98984 
        1.71193           49.81         9.90677 
        1.71806         49.6272         9.82447 
        1.72421         49.3298         9.74296 
        1.73035         49.2136         9.66246 
        1.73649         48.9635         9.58291 
        1.74262         48.6739         9.50432 
        1.74876         48.6384         9.42657 
        1.75489         48.2146         9.34985 
        1.76101         48.0293         9.27402 
        1.76715         47.8069         9.19893 
        1.77329         47.6056         9.12459 
        1.77943         47.4386         9.05105 
        1.78557         47.2156         8.97843 
        1.79171         46.9212          8.9066 
        1.79785         46.7566         8.83555 
        1.80399         46.5396         8.76529 
        1.81012         46.3633          8.6959 
        1.81625         46.0782          8.6273 
        1.82239         45.9303         8.55934 
        1.82853         45.5634         8.49215 
        1.83466         45.4071         8.42575 
        1.84078         45.1175         8.36014 
        1.84692         45.0581         8.29513 
        1.85306         44.7576         8.23073 
         1.8592         44.6247         8.16712 
        1.86533         44.3153         8.10423 
        1.87147         44.2085         8.04193 
        1.87761         44.1249         7.98027 
        1.88375         43.8195         7.91933 
        1.88988         43.7529          7.8591 
        1.89601         43.4495         7.79946 
        1.90215         43.3145         7.74041 
        1.90829         43.1309         7.68199 
        1.91442         42.8574         7.62418 
        1.92056         42.7355         7.56702 
         1.9267         42.4555          7.5104 
        1.93284         42.2384         7.45432 
        1.93897         42.1176         7.39892 
        1.94509         41.9429         7.34422 
        1.95123          41.734         7.28993 
        1.95737          41.531         7.23615 
        1.96349         41.3343         7.18306 
        1.96964         41.0694         7.13035 
        1.97578         41.0057         7.07815 
        1.98192         40.7963         7.02659 
        1.98805         40.6361         6.97554 
        1.99419         40.3672         6.92499 
        2.00033         40.1681         6.87493 
        2.00647         40.0463         6.82537 
         2.0126         39.8496          6.7764 
        2.01874         39.7275         6.72783 
        2.02488         39.6292          6.6797 
        2.03101         39.3978         6.63213 
        2.03714         39.1276         6.58508 
        2.04328         38.9744         6.53843 
        2.04941         38.8088         6.49228 
        2.05554         38.6664          6.4466 
        2.06167         38.4661         6.40131 
        2.06781         38.3134         6.35645 
        2.07396         38.0787         6.31196 
        2.08009         38.0512         6.26797 
        2.08622          37.814         6.22446 
        2.09237         37.7251         6.18127 
        2.09851         37.4813         6.13849 
        2.10464         37.3524         6.09619 
        2.11077         37.1096         6.05434 
        2.11691         37.1017          6.0128 
        2.12305         36.8366         5.97165 
        2.12918         36.7467         5.93098 
        2.13531         36.5939         5.89069 
        2.14145         36.4346         5.85069 
         2.1476         36.1849         5.81101 
        2.15372         36.0805          5.7719 
        2.15985          35.914         5.73312 
        2.16599         35.8217         5.69458 
        2.17213         35.6714         5.65645 
        2.17827         35.3773         5.61867 
         2.1844          35.288         5.58127 
        2.19054         35.1939         5.54421 
        2.19666         35.0061         5.50754 
         2.2028           34.89         5.47116 
        2.20893         34.7133          5.4351 
        2.21508         34.5954         5.39933 
        2.22122         34.3701         5.36387 
        2.22736         34.2737         5.32881 
        2.23349         34.1296         5.29407 
        2.23962          33.971         5.25962 
        2.24577         33.7871         5.22545 
         2.2519         33.6336         5.19163 
        2.25802         33.5671         5.15817 
        2.26417         33.3977         5.12491 
        2.27031         33.2772         5.09192 
        2.27644         33.1615         5.05932 
        2.28257         33.0447           5.027 
        2.28872         32.7968         4.99491 
        2.29486         32.6839         4.96311 
        2.30099         32.5848         4.93165 
        2.30712         32.4834         4.90045 
        2.31326         32.3499         4.86947 
         2.3194         32.1641         4.83878 
        2.32553         32.0557         4.80841 
        2.33166         31.8841         4.77831 
         2.3378         31.7532         4.74843 
        2.34394         31.6188          4.7188 
        2.35007         31.4516         4.68947 
        2.35619         31.3334         4.66042 
        2.36233         31.2197         4.63155 
        2.36848         31.0401         4.60287 
        2.37462         30.9461         4.57449 
        2.38075         30.8108         4.54638 
        2.38689         30.7089         4.51848 
        2.39303         30.5399         4.49083 
        2.39916         30.4473         4.46344 
        2.40529         30.2779         4.43627 
        2.41143         30.1876         4.40932 
        2.41757         30.0592         4.38258 
         2.4237         29.9121         4.35611 
        2.42983         29.8307         4.32987 
        2.43598         29.7029         4.30377 
        2.44211         29.5363         4.27793 
        2.44823          29.418         4.25237 
        2.45437         29.2808         4.22694 
        2.46052         29.1615          4.2017 
        2.46665         29.1245         4.17672 
        2.47279           28.94         4.15194 
        2.47892         28.8081         4.12736 
        2.48507         28.6895         4.10295 
         2.4912          28.597         4.07878 
