# k  (h/Mpc)    P(k)  (Mpc/h)^3    P_linear(k)  (Mpc/h)^3
     0.00783031         8637.27         8703.73 
       0.013688         10354.1           10575 
       0.019231         10405.8           10526 
      0.0249154         9565.81         9544.11 
      0.0312784         8025.07         8068.72 
      0.0375637         6639.01         6709.39 
      0.0433917         5728.39            5732 
      0.0492413         5012.99         5047.71 
      0.0555754         4575.49         4568.94 
      0.0619321         4143.21         4245.21 
       0.067871         3939.28         3982.74 
      0.0738098         3670.26         3693.32 
      0.0800417         3330.36         3337.74 
      0.0862327         2935.96         2952.08 
      0.0921407         2598.01         2594.06 
      0.0982031         2313.81          2275.7 
       0.104506          2034.2         2021.09 
       0.110769         1872.04         1846.96 
       0.116806         1789.18         1738.34 
       0.122832         1691.18         1664.24 
       0.129052         1622.37         1597.69 
       0.135211         1566.77         1521.35 
       0.141259         1453.91         1427.31 
       0.147318         1333.41         1316.81 
       0.153489          1233.1         1198.42 
       0.159709         1151.57         1086.71 
       0.165845         1039.79         994.235 
       0.171974         1003.71         923.831 
       0.178125         957.651         873.745 
       0.184229          895.59         838.798 
        0.19034         879.444         811.021 
       0.196428         852.734         783.441 
       0.202534         797.734         751.083 
       0.208729          779.69         711.948 
       0.214876         741.918         668.559 
       0.220989          689.66         624.527 
       0.227147         667.327         583.216 
        0.23329          636.78         547.864 
       0.239377         622.593         519.672 
       0.245482         589.905          497.64 
       0.251667         567.369         479.884 
       0.257832           561.1         464.374 
       0.263955         531.392         449.039 
       0.270079         512.333         432.424 
        0.27624         490.838         414.055 
       0.282372         478.271         394.706 
        0.28843         472.772         375.565 
       0.294538         447.613         357.377 
       0.300721         432.216         340.927 
        0.30691         424.323         326.781 
       0.313033         405.037         314.896 
       0.319153         398.376         304.566 
       0.325316         389.716         295.034 
        0.33145          379.86         285.779 
       0.337538         366.306         276.404 
       0.343633         355.227         266.721 
       0.349808         345.372         256.729 
       0.355968         338.215         246.891 
       0.362074         327.733         237.575 
       0.368217         324.044         228.911 
       0.374374         316.505         221.031 
       0.380519         303.524         213.937 
       0.386598         299.305          207.53 
       0.392688         291.585         201.507 
        0.39888          284.72         195.603 
       0.405048         278.949         189.802 
       0.411186         276.777         184.042 
       0.417313          271.63         178.347 
       0.423458         264.193          172.75 
       0.429607         257.366         167.354 
       0.435692         253.147         162.302 
       0.441815         248.061          157.53 
       0.447964         241.623         153.045 
       0.454126         238.143         148.829 
       0.460267         235.008         144.838 
       0.466387          229.98         141.004 
        0.47254         227.184         137.253 
       0.478662         220.705         133.606 
       0.484765         217.939         130.041 
       0.490885         214.688         126.555 
       0.497035         211.741         123.169 
       0.503198         209.579         119.915 
       0.509342         204.035         116.812 
       0.515458         201.278         113.863 
       0.521598         196.773         111.039 
       0.527764         194.732          108.32 
       0.533884         193.844         105.716 
           0.54         189.485          103.19 
       0.546137          185.27         100.724 
       0.552299         183.595         98.3173 
       0.558452         180.414         95.9816 
       0.564573         179.455         93.7258 
       0.570708         175.164         91.5372 
       0.576825         172.868         89.4311 
       0.582926         171.066         87.4086 
       0.589034         168.478         85.4563 
       0.595184         167.059          83.557 
       0.601379         163.839         81.7045 
       0.607522         160.608         79.9215 
       0.613639         159.589          78.197 
       0.619772         157.778          76.517 
       0.625918         156.528          74.881 
       0.632068         152.947           73.29 
       0.638161         151.761         71.7583 
         0.6443         150.649         70.2599 
       0.650464         147.751         68.8004 
       0.656582         146.913         67.3956 
       0.662703         145.459         66.0328 
       0.668861         142.516          64.702 
       0.675024         142.467         63.4079 
       0.681124         140.226         62.1622 
       0.687237         138.493         60.9466 
       0.693381         137.018         59.7567 
       0.699536         135.553         58.5959 
       0.705665         134.117         57.4707 
       0.711789         132.449         56.3765 
       0.717957         130.944          55.304 
        0.72409         129.696         54.2665 
       0.730186         129.571         53.2628 
       0.736317          127.51         52.2797 
       0.742472         125.634         51.3183 
       0.748622         123.808         50.3821 
        0.75476         124.214         49.4714 
       0.760888         122.828         48.5846 
       0.767043          120.63         47.7159 
       0.773185         119.387         46.8704 
       0.779291         118.068         46.0503 
       0.785407         117.255         45.2489 
       0.791564         116.423         44.4618 
       0.797719         114.776         43.6942 
       0.803834         114.639         42.9499 
       0.809972         113.659         42.2205 
       0.816124         111.952         41.5068 
       0.822261         110.961         40.8117 
       0.828378         110.733         40.1348 
       0.834502         109.214         39.4728 
       0.840667         108.673         38.8216 
       0.846816         107.547          38.187 
       0.852925         106.374         37.5707 
       0.859047         105.723         36.9669 
       0.865192         104.819         36.3744 
       0.871341         103.735         35.7946 
       0.877463         102.895         35.2301 
       0.883569         102.812         34.6794 
       0.889708         101.812         34.1378 
       0.895864         100.921         33.6064 
       0.902008         99.9045         33.0876 
       0.908149         98.6544         32.5801 
       0.914301         98.5877         32.0825 
       0.920448         98.3022         31.5959 
       0.926574         96.3505         31.1212 
       0.932687         96.3119         30.6573 
       0.938823         95.6113         30.2014 
       0.944975         94.5982         29.7537 
       0.951105         93.7632         29.3168 
       0.957225         93.5379         28.8895 
       0.963368         92.5369         28.4693 
       0.969511         91.9906         28.0575 
       0.975621         91.0147         27.6562 
       0.981748         90.4038         27.2618 
       0.987916         89.7796         26.8727 
        0.99406         89.4809         26.4927 
        1.00019         88.4308         26.1209 
        1.00632         87.7931         25.7566 
        1.01246         87.3702         25.3988 
        1.01859         86.9662         25.0484 
        1.02471          86.277         24.7051 
        1.03085         85.4486         24.3671 
        1.03698         84.9207         24.0363 
        1.04314         84.3367         23.7102 
        1.04929         83.9959          23.391 
        1.05541         83.3557          23.079 
        1.06154         82.8114          22.772 
        1.06769         82.2123         22.4701 
        1.07382         81.4912         22.1748 
        1.07993         81.2444         21.8854 
        1.08607         80.5935         21.6001 
        1.09222         80.2646         21.3196 
        1.09836         79.5321         21.0445 
        1.10449         79.1111         20.7745 
        1.11063         78.6251         20.5091 
        1.11677         78.1458         20.2484 
         1.1229          77.467         19.9927 
        1.12903         77.1952         19.7412 
        1.13518         76.8093         19.4939 
        1.14131         76.1837          19.251 
        1.14745         75.8472         19.0124 
        1.15359         74.8964         18.7778 
        1.15973         74.8549         18.5471 
        1.16584         74.3527         18.3213 
        1.17197         73.8846          18.099 
        1.17811         73.3541         17.8798 
        1.18424         72.7297         17.6648 
        1.19038         72.6454         17.4528 
        1.19652         72.1738         17.2443 
        1.20267         71.6855         17.0393 
        1.20881         71.2617         16.8377 
        1.21495         70.8247         16.6396 
        1.22108         70.6692         16.4449 
         1.2272         69.9034         16.2537 
        1.23334         69.7792         16.0651 
        1.23949         69.2547         15.8791 
        1.24562          68.731         15.6966 
        1.25174         68.4634         15.5173 
        1.25789         68.2477         15.3402 
        1.26402         67.7544         15.1663 
        1.27014         67.4677         14.9954 
        1.27628         66.8891         14.8268 
        1.28244         66.8457         14.6604 
        1.28858         66.2868         14.4968 
        1.29471         65.8747         14.3361 
        1.30084         65.3078         14.1779 
        1.30697         65.3706          14.022 
        1.31312         64.8832         13.8682 
        1.31925         64.4076         13.7172 
        1.32537         64.1277         13.5686 
        1.33151         63.8494         13.4216 
        1.33765         63.5059          13.277 
        1.34378         63.1122         13.1348 
        1.34992         62.8958         12.9946 
        1.35606         62.4337         12.8561 
         1.3622         62.2516         12.7199 
        1.36833         61.8069          12.586 
        1.37445         61.2905         12.4541 
        1.38059          61.188         12.3238 
        1.38675         60.6067         12.1949 
        1.39288         60.5652         12.0685 
        1.39901         60.0368         11.9439 
        1.40515         59.8537         11.8208 
         1.4113         59.6329         11.6995 
        1.41742          59.212         11.5803 
        1.42355         59.0513         11.4627 
         1.4297         58.6787         11.3463 
        1.43585          58.353         11.2315 
        1.44198         57.9992         11.1188 
        1.44809         57.6407         11.0079 
        1.45423         57.4859         10.8981 
        1.46036         57.1339           10.79 
        1.46649          56.864         10.6833 
        1.47263         56.5817          10.578 
        1.47877         56.3736         10.4741 
        1.48491          56.006         10.3715 
        1.49104         55.6592         10.2706 
        1.49718         55.4587         10.1708 
        1.50333         55.2013         10.0723 
        1.50947         54.9723         9.97525 
         1.5156         54.7504         9.87965 
        1.52172         54.3289         9.78531 
        1.52787          54.051         9.69202 
          1.534         53.7629         9.60006 
        1.54013         53.7278          9.5094 
        1.54627         53.2131         9.41975 
        1.55241         53.0367         9.33124 
        1.55855         52.7971         9.24401 
        1.56467         52.3423         9.15813 
         1.5708         52.3416         9.07311 
        1.57695         52.0101         8.98905 
        1.58308         51.7251         8.90625 
        1.58922         51.5298         8.82444 
        1.59535         51.4226          8.7437 
         1.6015         51.2688         8.66386 
        1.60764         50.8955         8.58506 
        1.61376         50.6328         8.50746 
        1.61989         50.2396         8.43076 
        1.62604         50.1111         8.35484 
        1.63218         49.7902         8.27991 
        1.63831         49.7066         8.20607 
        1.64444         49.5078         8.13311 
        1.65059         49.1517         8.06087 
        1.65673         48.9125         7.98959 
        1.66285          48.757         7.91937 
        1.66898         48.3912         7.84997 
        1.67512         48.2268         7.78128 
        1.68127         48.0908         7.71335 
         1.6874          47.819         7.64638 
        1.69353         47.6199         7.58025 
        1.69967         47.4342         7.51475 
        1.70581         47.1066         7.45006 
        1.71193         46.9517         7.38638 
        1.71806         46.7386         7.32331 
        1.72421         46.5607         7.26085 
        1.73035          46.311          7.1992 
        1.73649         46.0157         7.13828 
        1.74262         45.7148         7.07811 
        1.74876         45.7952         7.01861 
        1.75489         45.4389         6.95991 
        1.76101         45.2756          6.9019 
        1.76715         45.1134         6.84448 
        1.77329         44.7118         6.78765 
        1.77943         44.7467         6.73144 
        1.78557         44.4842         6.67595 
        1.79171         44.2496         6.62108 
        1.79785         44.0789         6.56682 
        1.80399         43.8318         6.51318 
        1.81012         43.6693         6.46021 
        1.81625         43.4065         6.40786 
        1.82239         43.2157         6.35602 
        1.82853         43.0636         6.30477 
        1.83466         42.8666         6.25414 
        1.84078         42.6863         6.20413 
        1.84692         42.4837         6.15458 
        1.85306         42.2562         6.10552 
         1.8592         42.0926         6.05707 
        1.86533         41.9253         6.00917 
        1.87147         41.7196         5.96174 
        1.87761         41.5323         5.91481 
        1.88375          41.335         5.86844 
        1.88988         41.1747         5.82261 
        1.89601         40.9843         5.77725 
        1.90215         40.7488         5.73234 
        1.90829         40.6357         5.68794 
        1.91442         40.4106           5.644 
        1.92056         40.2941         5.60056 
         1.9267         40.1738         5.55754 
        1.93284         39.9424         5.51495 
        1.93897         39.7724         5.47288 
        1.94509          39.522         5.43135 
        1.95123         39.4253         5.39014 
        1.95737         39.2404         5.34933 
        1.96349         39.1348         5.30905 
        1.96964         38.8697         5.26908 
        1.97578         38.6924         5.22949 
        1.98192         38.4901          5.1904 
        1.98805         38.3338          5.1517 
        1.99419         38.2144          5.1134 
        2.00033         38.0558         5.07547 
        2.00647         37.9301         5.03793 
         2.0126         37.6874         5.00084 
        2.01874         37.5933         4.96407 
        2.02488         37.3281         4.92764 
        2.03101         37.2736         4.89164 
        2.03714         37.0759         4.85604 
        2.04328         36.9553         4.82075 
        2.04941         36.7244         4.78584 
        2.05554         36.6132         4.75131 
        2.06167         36.4633         4.71707 
        2.06781         36.2742         4.68316 
        2.07396         36.0927         4.64954 
        2.08009         35.9567         4.61631 
        2.08622         35.8387         4.58344 
        2.09237         35.6491         4.55083 
        2.09851         35.5203         4.51853 
        2.10464          35.384          4.4866 
        2.11077         35.2553         4.45502 
        2.11691         34.9933         4.42367 
        2.12305         34.8244         4.39263 
        2.12918         34.7466         4.36196 
        2.13531         34.5719         4.33158 
        2.14145         34.4665         4.30142 
         2.1476         34.3398         4.27151 
        2.15372         34.2358         4.24204 
        2.15985          33.982         4.21282 
        2.16599         33.8226         4.18379 
        2.17213         33.7362         4.15507 
        2.17827         33.5879         4.12662 
         2.1844         33.3962         4.09847 
        2.19054         33.3324         4.07057 
        2.19666         33.1168         4.04297 
         2.2028         32.9638         4.01561 
        2.20893           32.91         3.98848 
        2.21508         32.7581         3.96158 
        2.22122         32.6336         3.93491 
        2.22736         32.4131         3.90855 
        2.23349         32.3441         3.88243 
        2.23962         32.1995         3.85655 
        2.24577         32.0591         3.83087 
         2.2519         31.8791         3.80547 
        2.25802           31.77         3.78033 
        2.26417         31.6377         3.75536 
        2.27031         31.5064         3.73059 
        2.27644         31.4681         3.70611 
        2.28257         31.2265         3.68186 
        2.28872         31.1831         3.65778 
        2.29486         31.0313         3.63392 
        2.30099         30.8391         3.61032 
        2.30712         30.7663         3.58692 
        2.31326         30.6016         3.56369 
         2.3194          30.462         3.54068 
        2.32553         30.3786         3.51791 
        2.33166         30.2383         3.49536 
         2.3378         30.0797         3.47297 
        2.34394         29.9829         3.45077 
        2.35007         29.9243          3.4288 
        2.35619           29.78         3.40704 
        2.36233         29.6022         3.38542 
        2.36848         29.5495         3.36395 
        2.37462         29.4105         3.34271 
        2.38075         29.2458         3.32167 
        2.38689         29.1538          3.3008 
        2.39303         29.0693         3.28011 
        2.39916         28.8447         3.25962 
        2.40529          28.785         3.23931 
        2.41143         28.6573         3.21915 
        2.41757         28.5746         3.19916 
         2.4237         28.4583         3.17938 
        2.42983         28.2701         3.15976 
        2.43598         28.1777         3.14026 
        2.44211         28.0766         3.12096 
        2.44823         27.9405         3.10186 
        2.45437         27.9087         3.08287 
        2.46052         27.7282         3.06402 
        2.46665         27.6227         3.04537 
        2.47279         27.4645         3.02688 
        2.47892         27.3985         3.00853 
        2.48507         27.3011         2.99031 
         2.4912         27.1979         2.97228 
