# k  (h/Mpc)    P(k)  (Mpc/h)^3    P_linear(k)  (Mpc/h)^3
     0.00783031         3363.69         3398.05 
       0.013688         4034.34         4098.38 
       0.019231         4054.99         4086.66 
      0.0249154         3734.81         3730.72 
      0.0312784         3177.88         3185.79 
      0.0375637         2657.14         2671.22 
      0.0433917         2292.91         2289.31 
      0.0492413         2005.53         2011.37 
      0.0555754         1815.69         1808.22 
      0.0619321         1645.79         1668.04 
       0.067871         1554.34         1559.43 
      0.0738098         1445.92         1447.94 
      0.0800417         1318.96         1316.51 
      0.0862327          1172.4         1174.52 
      0.0921407         1040.83         1040.01 
      0.0982031         924.745          916.12 
       0.104506         812.709         812.121 
       0.110769          740.19         736.535 
       0.116806         698.026         686.417 
       0.122832          656.64         651.594 
       0.129052         630.142         622.912 
       0.135211         605.145         594.107 
       0.141259         567.057         560.927 
       0.147318         523.921         522.065 
       0.153489         484.986         479.103 
       0.159709         448.124         436.506 
       0.165845         404.628         399.056 
       0.171974          384.17         368.559 
       0.178125         361.177         345.363 
       0.184229          339.61         328.542 
        0.19034         330.284         315.741 
       0.196428         318.751         304.588 
       0.202534         300.863         292.967 
       0.208729         292.399         279.537 
       0.214876         279.197         264.457 
       0.220989         259.082         248.477 
       0.227147         248.779         232.585 
        0.23329         235.655         218.081 
       0.239377         225.887         205.772 
       0.245482         213.835          195.68 
       0.251667         204.095         187.474 
       0.257832         200.803         180.693 
       0.263955         190.681         174.609 
       0.270079         183.923         168.552 
        0.27624         176.311         162.107 
       0.282372         170.309         155.259 
        0.28843         167.102         148.253 
       0.294538          158.78         141.252 
       0.300721         151.181         134.582 
        0.30691         147.617          128.56 
       0.313033         141.061         123.354 
       0.319153         138.238         118.835 
       0.325316         132.875         114.819 
        0.33145         128.629          111.14 
       0.337538         124.684         107.615 
       0.343633          121.12         104.074 
       0.349808         117.084         100.435 
       0.355968         113.666         96.7694 
       0.362074         111.166         93.1902 
       0.368217         107.999         89.7334 
       0.374374         105.148           86.49 
       0.380519         100.573         83.5199 
       0.386598         98.0341         80.8323 
       0.392688         95.1166         78.3608 
        0.39888         93.3676         76.0102 
       0.405048         91.2201         73.7699 
       0.411186         89.1186         71.5984 
       0.417313         86.6678         69.4576 
       0.423458         84.3152         67.3379 
       0.429607         82.6633         65.2623 
       0.435692         81.2545          63.273 
       0.441815         78.3416         61.3587 
       0.447964          75.967         59.5431 
       0.454126         74.5584         57.8296 
       0.460267         73.8704         56.2196 
       0.466387         71.9009         54.6998 
        0.47254         70.9568         53.2368 
       0.478662         68.5149         51.8281 
       0.484765         67.2793         50.4617 
       0.490885          65.449         49.1261 
       0.497035         64.7484          47.817 
       0.503198         63.2006         46.5438 
       0.509342         61.5272         45.3195 
       0.515458         60.7234         44.1504 
       0.521598         59.2295          43.026 
       0.527764         58.4401         41.9446 
       0.533884         57.5884         40.9162 
           0.54         56.2126         39.9283 
       0.546137         54.6672         38.9704 
       0.552299         53.7118          38.037 
       0.558452         52.6246         37.1315 
       0.564573         52.3094         36.2563 
       0.570708         50.7942          35.405 
       0.576825         50.2384         34.5821 
       0.582926         49.4874         33.7876 
       0.589034          48.521         33.0184 
       0.595184         47.8849          32.271 
       0.601379         46.6367         31.5447 
       0.607522         45.8759         30.8484 
       0.613639         45.3487         30.1766 
       0.619772         44.4888         29.5228 
       0.625918         43.7722         28.8862 
       0.632068         43.3244         28.2673 
       0.638161         42.4695         27.6715 
         0.6443         41.9577         27.0883 
       0.650464         40.9576         26.5196 
       0.656582         40.7377         25.9714 
       0.662703         40.2033         25.4389 
       0.668861         39.1957         24.9187 
       0.675024         38.8676         24.4133 
       0.681124         38.5109         23.9277 
       0.687237         37.7226         23.4547 
       0.693381         37.1305         22.9924 
       0.699536         36.8766         22.5417 
       0.705665         36.2336         22.1047 
       0.711789         35.6672         21.6795 
       0.717957         35.0299         21.2624 
        0.72409         34.6945         20.8586 
       0.730186         34.5166         20.4678 
       0.736317         33.8376         20.0852 
       0.742472         33.4229         19.7111 
       0.748622         32.9387         19.3472 
        0.75476         32.2545         18.9934 
       0.760888          32.197          18.649 
       0.767043         31.6037          18.312 
       0.773185         31.2679          17.984 
       0.779291         30.8766         17.6658 
       0.785407         30.4373         17.3549 
       0.791564         30.3522         17.0495 
       0.797719         29.7158         16.7517 
       0.803834         29.5538         16.4629 
       0.809972         29.0516           16.18 
       0.816124         28.7709         15.9031 
       0.822261         28.4337         15.6336 
       0.828378         28.2068         15.3712 
       0.834502         27.8925         15.1146 
       0.840667         27.6161         14.8624 
       0.846816          27.072         14.6166 
       0.852925         26.9828         14.3779 
       0.859047         26.7591         14.1442 
       0.865192          26.355         13.9148 
       0.871341         26.0303         13.6905 
       0.877463         25.7695         13.4721 
       0.883569         25.6367          13.259 
       0.889708         25.2799         13.0495 
       0.895864         24.9607          12.844 
       0.902008         24.7106         12.6433 
       0.908149         24.4322         12.4471 
       0.914301         24.2886         12.2548 
       0.920448         23.9805         12.0667 
       0.926574         23.7484         11.8832 
       0.932687         23.4844          11.704 
       0.938823         23.1802         11.5278 
       0.944975         23.0285         11.3549 
       0.951105         22.8301         11.1861 
       0.957225         22.6604         11.0211 
       0.963368         22.3489         10.8589 
       0.969511         22.1475            10.7 
       0.975621         21.9688         10.5451 
       0.981748         21.7031         10.3929 
       0.987916         21.5841         10.2427 
        0.99406         21.2866         10.0961 
        1.00019         21.1761          9.9527 
        1.00632         21.0042         9.81221 
        1.01246          20.798         9.67424 
        1.01859         20.5784         9.53916 
        1.02471         20.4004         9.40684 
        1.03085         20.3041         9.27659 
        1.03698         20.1452          9.1491 
        1.04314          19.905         9.02347 
        1.04929         19.6831         8.90051 
        1.05541         19.6101         8.78035 
        1.06154          19.454         8.66212 
        1.06769         19.2185          8.5459 
        1.07382          19.046         8.43221 
        1.07993          18.887         8.32085 
        1.08607         18.7778         8.21106 
        1.09222         18.5897         8.10314 
        1.09836         18.4274          7.9973 
        1.10449          18.331         7.89347 
        1.11063         18.1901         7.79139 
        1.11677         18.1154         7.69114 
         1.1229         17.9202         7.59284 
        1.12903         17.7608         7.49618 
        1.13518         17.6305         7.40113 
        1.14131         17.5227         7.30778 
        1.14745          17.295         7.21609 
        1.15359         17.1457         7.12597 
        1.15973         17.0436         7.03736 
        1.16584         16.8984         6.95065 
        1.17197         16.7345         6.86528 
        1.17811         16.6543         6.78109 
        1.18424         16.5155         6.69856 
        1.19038         16.4538         6.61717 
        1.19652         16.2697         6.53717 
        1.20267         16.2019         6.45849 
        1.20881         16.0236         6.38112 
        1.21495         15.9327         6.30515 
        1.22108         15.8732         6.23043 
         1.2272         15.7404          6.1571 
        1.23334          15.647         6.08479 
        1.23949           15.51         6.01347 
        1.24562         15.3568         5.94349 
        1.25174         15.3132         5.87474 
        1.25789         15.1937         5.80687 
        1.26402         15.1095          5.7402 
        1.27014         15.0273         5.67474 
        1.27628         14.8569         5.61011 
        1.28244         14.8535         5.54637 
        1.28858         14.6858          5.4837 
        1.29471         14.5353         5.42215 
        1.30084         14.4524          5.3616 
        1.30697         14.4057         5.30189 
        1.31312         14.2869         5.24301 
        1.31925         14.2131         5.18521 
        1.32537         14.0897         5.12834 
        1.33151         14.0026         5.07212 
        1.33765         13.9475         5.01678 
        1.34378         13.8769         4.96238 
        1.34992         13.7644         4.90875 
        1.35606         13.6265          4.8558 
         1.3622         13.5428         4.80372 
        1.36833         13.5186         4.75253 
        1.37445         13.4257         4.70212 
        1.38059         13.3353         4.65228 
        1.38675         13.2606         4.60305 
        1.39288         13.1439         4.55472 
        1.39901         13.0746         4.50712 
        1.40515         13.0054         4.46008 
         1.4113         12.9157         4.41374 
        1.41742         12.8613         4.36823 
        1.42355         12.7491         4.32328 
         1.4297         12.6837         4.27883 
        1.43585         12.6228         4.23502 
        1.44198         12.5794           4.192 
        1.44809         12.4807         4.14965 
        1.45423         12.3999         4.10774 
        1.46036         12.3213         4.06647 
        1.46649         12.2472         4.02577 
        1.47263         12.1974         3.98559 
        1.47877         12.1143         3.94597 
        1.48491         12.0623         3.90683 
        1.49104         11.9801         3.86831 
        1.49718         11.9237         3.83028 
        1.50333         11.8643          3.7927 
        1.50947         11.8004          3.7557 
         1.5156         11.7363         3.71925 
        1.52172         11.6519         3.68328 
        1.52787         11.6262         3.64772 
          1.534         11.5467         3.61268 
        1.54013         11.4913         3.57813 
        1.54627         11.4012         3.54397 
        1.55241         11.3208         3.51025 
        1.55855         11.2913         3.47702 
        1.56467         11.2553         3.44432 
         1.5708         11.1899         3.41194 
        1.57695         11.1161         3.37993 
        1.58308         11.0476          3.3484 
        1.58922         11.0036         3.31726 
        1.59535         10.9497         3.28652 
         1.6015          10.842         3.25613 
        1.60764         10.8093         3.22614 
        1.61376          10.779         3.19661 
        1.61989         10.6915         3.16743 
        1.62604         10.6697         3.13854 
        1.63218          10.616         3.11004 
        1.63831         10.5361         3.08195 
        1.64444         10.4688         3.05421 
        1.65059         10.4211         3.02673 
        1.65673         10.3973         2.99963 
        1.66285         10.3198         2.97293 
        1.66898         10.3061         2.94656 
        1.67512         10.2571         2.92044 
        1.68127         10.1615         2.89463 
         1.6874         10.1475         2.86918 
        1.69353         10.0517         2.84405 
        1.69967         10.0294         2.81917 
        1.70581         9.98263         2.79459 
        1.71193         9.92673          2.7704 
        1.71806         9.88864         2.74644 
        1.72421         9.83412         2.72272 
        1.73035         9.79619         2.69931 
        1.73649         9.76478         2.67618 
        1.74262         9.66189         2.65334 
        1.74876         9.66305         2.63074 
        1.75489         9.62046         2.60846 
        1.76101         9.53733         2.58645 
        1.76715         9.52966         2.56465 
        1.77329         9.46979         2.54309 
        1.77943         9.40941         2.52176 
        1.78557         9.40528         2.50071 
        1.79171         9.34113         2.47989 
        1.79785         9.31321         2.45931 
        1.80399         9.24924         2.43896 
        1.81012         9.21657         2.41888 
        1.81625          9.1601         2.39903 
        1.82239         9.12279         2.37937 
        1.82853         9.06993         2.35994 
        1.83466         9.01587         2.34075 
        1.84078         8.99707         2.32179 
        1.84692         8.97879         2.30301 
        1.85306         8.93216         2.28441 
         1.8592          8.8916         2.26605 
        1.86533         8.84105         2.24791 
        1.87147         8.80411         2.22994 
        1.87761         8.77027         2.21216 
        1.88375         8.73548         2.19459 
        1.88988         8.68083         2.17723 
        1.89601         8.66009         2.16006 
        1.90215         8.60776         2.14305 
        1.90829         8.57072         2.12624 
        1.91442         8.53057          2.1096 
        1.92056         8.52974         2.09316 
         1.9267          8.4718         2.07687 
        1.93284         8.45229         2.06075 
        1.93897         8.38856         2.04484 
        1.94509         8.34963         2.02912 
        1.95123         8.33459         2.01353 
        1.95737         8.30593         1.99809 
        1.96349         8.23886         1.98285 
        1.96964         8.20915         1.96773 
        1.97578         8.19066         1.95276 
        1.98192         8.15706         1.93797 
        1.98805         8.11904         1.92334 
        1.99419         8.09099         1.90886 
        2.00033         8.05117         1.89452 
        2.00647         8.02049         1.88032 
         2.0126         7.99443          1.8663 
        2.01874         7.93962          1.8524 
        2.02488          7.9201         1.83863 
        2.03101         7.89833         1.82503 
        2.03714         7.84955         1.81158 
        2.04328         7.80975         1.79824 
        2.04941         7.77922         1.78505 
        2.05554         7.76277         1.77201 
        2.06167         7.74176         1.75907 
        2.06781         7.69927         1.74627 
        2.07396          7.6756         1.73357 
        2.08009         7.61249         1.72102 
        2.08622         7.62507         1.70861 
        2.09237         7.58892          1.6963 
        2.09851         7.54075          1.6841 
        2.10464         7.52942         1.67205 
        2.11077         7.47402         1.66013 
        2.11691         7.46728          1.6483 
        2.12305         7.42785         1.63658 
        2.12918         7.38776           1.625 
        2.13531         7.37403         1.61354 
        2.14145         7.34005         1.60216 
         2.1476         7.32122         1.59088 
        2.15372         7.28723         1.57976 
        2.15985         7.25952         1.56874 
        2.16599         7.23679         1.55779 
        2.17213         7.22929         1.54696 
        2.17827         7.18088         1.53623 
         2.1844         7.16526         1.52561 
        2.19054         7.13789         1.51509 
        2.19666         7.10711         1.50469 
         2.2028         7.07838         1.49437 
        2.20893         7.04943         1.48415 
        2.21508         7.02746         1.47401 
        2.22122         6.98333         1.46396 
        2.22736         6.96212         1.45402 
        2.23349          6.9377         1.44418 
        2.23962         6.92224         1.43443 
        2.24577         6.90183         1.42476 
         2.2519         6.88822         1.41519 
        2.25802         6.81721         1.40572 
        2.26417         6.81812         1.39631 
        2.27031         6.79423         1.38698 
        2.27644          6.7754         1.37776 
        2.28257         6.72436         1.36863 
        2.28872         6.71391         1.35956 
        2.29486         6.69311         1.35058 
        2.30099         6.68034          1.3417 
        2.30712         6.63297         1.33289 
        2.31326         6.61607         1.32414 
         2.3194         6.58939         1.31548 
        2.32553         6.56966         1.30692 
        2.33166         6.54065         1.29843 
         2.3378         6.52687            1.29 
        2.34394         6.49773         1.28165 
        2.35007         6.47712         1.27338 
        2.35619         6.45697          1.2652 
        2.36233          6.4223         1.25707 
        2.36848           6.408         1.24899 
        2.37462         6.38602           1.241 
        2.38075         6.36571         1.23309 
        2.38689         6.35296         1.22524 
        2.39303          6.3118         1.21746 
        2.39916         6.30379         1.20976 
        2.40529         6.27639         1.20212 
        2.41143         6.25448         1.19455 
        2.41757         6.22636         1.18703 
         2.4237         6.21797          1.1796 
        2.42983         6.19374         1.17223 
        2.43598         6.17337          1.1649 
        2.44211         6.14933         1.15764 
        2.44823         6.12186         1.15047 
        2.45437         6.10474         1.14333 
        2.46052         6.09617         1.13625 
        2.46665          6.0711         1.12925 
        2.47279         6.04754          1.1223 
        2.47892          6.0179         1.11541 
        2.48507         6.00222         1.10857 
         2.4912          5.9833          1.1018 
