# k  (h/Mpc)    P(k)  (Mpc/h)^3    P_linear(k)  (Mpc/h)^3
     0.00783031         6132.25         6178.48 
       0.013688         7817.65         7977.21 
       0.019231         8290.03         8383.43 
      0.0249154          8041.3         8043.86 
      0.0312784         7200.53         7257.13 
      0.0375637         6334.47         6420.01 
      0.0433917         5731.83         5759.37 
      0.0492413         5189.42         5251.95 
      0.0555754         4818.59         4848.24 
      0.0619321         4395.17         4526.61 
       0.067871         4164.73         4240.13 
      0.0738098         3879.43         3931.76 
      0.0800417         3544.06         3579.82 
      0.0862327         3180.45         3223.33 
      0.0921407         2875.32         2906.85 
      0.0982031         2628.92          2630.9 
       0.104506         2378.41         2407.64 
       0.110769         2223.34         2244.66 
       0.116806         2137.32         2126.69 
       0.122832            2012            2027 
       0.129052         1916.21         1924.55 
       0.135211         1832.04         1812.79 
       0.141259         1697.02         1692.25 
       0.147318         1559.52         1567.49 
       0.153489         1460.65         1446.45 
       0.159709         1383.71         1339.73 
       0.165845         1269.77         1253.96 
       0.171974            1239         1187.05 
       0.178125         1192.63         1134.12 
       0.184229         1116.67         1089.18 
        0.19034         1091.86         1045.61 
       0.196428         1053.01         999.537 
       0.202534         983.582         949.528 
       0.208729         957.391         896.453 
       0.214876          915.41         844.572 
       0.220989         854.592         796.919 
       0.227147         834.552         755.047 
        0.23329         803.629         719.968 
       0.239377         787.979         690.888 
       0.245482         750.312         665.558 
       0.251667         721.917         641.703 
       0.257832         713.796         617.988 
       0.263955         675.448         593.637 
       0.270079         652.598         568.536 
        0.27624         623.985         543.251 
       0.282372         609.354         519.078 
        0.28843         603.983         497.009 
       0.294538          574.13         477.061 
       0.300721         555.548         459.208 
        0.30691         547.085          443.25 
       0.313033          524.68         428.716 
       0.319153         516.008         414.793 
       0.325316         504.308         400.935 
        0.33145         492.732         387.118 
       0.337538         475.597         373.464 
       0.343633         461.178         360.097 
       0.349808         449.295         347.155 
       0.355968         440.197         335.086 
       0.362074         428.365         324.027 
       0.368217          423.55         313.783 
       0.374374         414.895         304.223 
       0.380519         398.597         295.188 
       0.386598         393.055         286.569 
       0.392688         384.481         278.116 
        0.39888         374.877         269.681 
       0.405048         368.485         261.462 
       0.411186         365.507         253.534 
       0.417313         358.997         245.956 
       0.423458         349.126         238.743 
       0.429607         341.397          231.92 
       0.435692          335.21         225.545 
       0.441815         329.495         219.444 
       0.447964         321.204         213.565 
       0.454126         316.609         207.873 
       0.460267         312.553         202.365 
       0.466387         306.978         197.015 
        0.47254         303.085         191.788 
       0.478662         294.686          186.76 
       0.484765         291.411         181.935 
       0.490885         287.766         177.288 
       0.497035         283.893         172.815 
       0.503198         280.931         168.524 
       0.509342         273.519         164.411 
       0.515458         270.544         160.459 
       0.521598         264.731         156.615 
       0.527764         261.698         152.871 
       0.533884         261.169         149.265 
           0.54         255.468         145.766 
       0.546137         249.865         142.362 
       0.552299         248.507         139.056 
       0.558452         244.301         135.871 
       0.564573         242.541         132.813 
       0.570708         237.688         129.849 
       0.576825         234.262          126.99 
       0.582926         231.827         124.226 
       0.589034         228.892         121.542 
       0.595184         227.276         118.918 
       0.601379         222.522         116.352 
       0.607522          218.98         113.879 
       0.613639         217.349         111.487 
       0.619772         215.352         109.159 
       0.625918         213.414         106.895 
       0.632068         208.913         104.697 
       0.638161         206.736         102.585 
         0.6443         205.854         100.518 
       0.650464         202.174         98.5025 
       0.656582          200.99         96.5564 
       0.662703         199.151         94.6615 
       0.668861         195.383         92.8063 
       0.675024         195.307         90.9995 
       0.681124         192.392         89.2594 
       0.687237         189.828         87.5623 
       0.693381         188.632         85.9026 
       0.699536         186.272         84.2841 
       0.705665         183.986         82.7152 
       0.711789         181.998         81.1884 
       0.717957         180.137         79.6902 
        0.72409         178.867         78.2385 
       0.730186         178.464          76.832 
       0.736317          175.42         75.4528 
       0.742472         173.247         74.1027 
       0.748622          170.75         72.7873 
        0.75476         171.131          71.507 
       0.760888         169.437         70.2599 
       0.767043         166.792         69.0381 
       0.773185          165.12         67.8483 
       0.779291         163.241         66.6938 
       0.785407         161.934         65.5648 
       0.791564         161.001         64.4552 
       0.797719          159.01         63.3721 
       0.803834         158.668         62.3211 
       0.809972         157.702         61.2904 
       0.816124         155.546         60.2811 
       0.822261         153.957         59.2974 
       0.828378          153.82         58.3389 
       0.834502         151.174         57.4011 
       0.840667           150.7          56.478 
       0.846816         149.349         55.5781 
       0.852925          147.85         54.7038 
       0.859047         146.685         53.8466 
       0.865192          145.62         53.0052 
       0.871341         143.947         52.1815 
       0.877463         143.021         51.3793 
       0.883569         142.799         50.5961 
       0.889708         141.622         49.8255 
       0.895864         140.196         49.0691 
       0.902008         139.025         48.3303 
       0.908149         137.286         47.6072 
       0.914301         137.415         46.8979 
       0.920448         136.476          46.204 
       0.926574         134.325         45.5266 
       0.932687          134.11         44.8645 
       0.938823             133         44.2132 
       0.944975         131.541         43.5736 
       0.951105         130.641          42.949 
       0.957225         130.554         42.3379 
       0.963368         128.975         41.7367 
       0.969511         127.881         41.1473 
       0.975621         126.974         40.5726 
       0.981748         125.933         40.0075 
       0.987916         125.229         39.4497 
        0.99406         124.654         38.9047 
        1.00019         123.348         38.3712 
        1.00632         122.775         37.8483 
        1.01246         121.839         37.3345 
        1.01859         121.183         36.8311 
        1.02471         120.173         36.3378 
        1.03085         119.171         35.8518 
        1.03698         118.485         35.3759 
        1.04314         117.719         34.9066 
        1.04929         117.316          34.447 
        1.05541         116.474         33.9977 
        1.06154         115.754         33.5553 
        1.06769         114.646         33.1202 
        1.07382         113.817         32.6943 
        1.07993         113.421          32.277 
        1.08607         112.403         31.8653 
        1.09222          112.14         31.4604 
        1.09836         110.891         31.0631 
        1.10449          110.35         30.6732 
        1.11063         109.572         30.2897 
        1.11677         108.954         29.9129 
         1.1229         108.134         29.5432 
        1.12903         107.812         29.1795 
        1.13518         107.201         28.8217 
        1.14131         106.472         28.4702 
        1.14745         105.631         28.1247 
        1.15359         104.579          27.785 
        1.15973         104.347         27.4508 
        1.16584         103.652         27.1237 
        1.17197         102.973         26.8015 
        1.17811         102.302         26.4835 
        1.18424         101.512         26.1717 
        1.19038         101.468         25.8641 
        1.19652         100.676         25.5616 
        1.20267         99.9243         25.2639 
        1.20881         99.3309         24.9711 
        1.21495         98.9061         24.6834 
        1.22108         98.3097         24.4004 
         1.2272         97.4506         24.1224 
        1.23334         97.1471         23.8483 
        1.23949         96.5739         23.5777 
        1.24562         95.7707         23.3121 
        1.25174         95.1723         23.0511 
        1.25789         95.2189         22.7933 
        1.26402         94.3145         22.5399 
        1.27014         93.8852         22.2911 
        1.27628         93.0086         22.0452 
        1.28244         92.7576         21.8027 
        1.28858         92.1672         21.5641 
        1.29471         91.6651         21.3297 
        1.30084         90.9484         21.0989 
        1.30697          90.959         20.8713 
        1.31312         90.1238         20.6468 
        1.31925         89.6164         20.4262 
        1.32537         89.1086         20.2092 
        1.33151         88.9154         19.9945 
        1.33765         88.1181         19.7831 
        1.34378         87.9068         19.5752 
        1.34992         87.3845         19.3702 
        1.35606         86.7775         19.1677 
         1.3622         86.4329         18.9685 
        1.36833         85.7163         18.7726 
        1.37445         85.1079         18.5796 
        1.38059         84.9451         18.3888 
        1.38675         84.1151         18.2001 
        1.39288         84.0861         18.0149 
        1.39901         83.2284         17.8324 
        1.40515         83.0249         17.6521 
         1.4113         82.6767         17.4743 
        1.41742         82.1758         17.2996 
        1.42355         81.6356         17.1271 
         1.4297          81.211         16.9564 
        1.43585         80.6728         16.7881 
        1.44198         80.2818         16.6227 
        1.44809         79.8104         16.4599 
        1.45423         79.3947         16.2987 
        1.46036         78.8393           16.14 
        1.46649         78.6941         15.9833 
        1.47263         78.2212         15.8286 
        1.47877         77.8969          15.676 
        1.48491         77.4453         15.5252 
        1.49104         76.8081         15.3767 
        1.49718         76.5569         15.2301 
        1.50333          76.169         15.0851 
        1.50947         75.8412         14.9424 
         1.5156         75.4679         14.8017 
        1.52172         74.9536         14.6628 
        1.52787         74.4853         14.5255 
          1.534         74.2733         14.3901 
        1.54013         73.9412         14.2566 
        1.54627         73.2888         14.1245 
        1.55241         72.8967         13.9941 
        1.55855         72.7247         13.8655 
        1.56467         72.0515          13.739 
         1.5708         71.9216         13.6136 
        1.57695         71.5227         13.4897 
        1.58308         71.0826         13.3676 
        1.58922         70.7603         13.2469 
        1.59535          70.512         13.1277 
         1.6015         70.3838         13.0099 
        1.60764         69.9192         12.8936 
        1.61376         69.4261          12.779 
        1.61989         68.8802         12.6658 
        1.62604         68.6957         12.5537 
        1.63218         68.4129          12.443 
        1.63831          68.143         12.3339 
        1.64444          67.753         12.2261 
        1.65059         67.4871         12.1193 
        1.65673         66.8956         12.0139 
        1.66285         66.7042         11.9101 
        1.66898         66.1197         11.8075 
        1.67512         66.0584         11.7059 
        1.68127          65.683         11.6054 
         1.6874         65.2558         11.5063 
        1.69353         65.0459         11.4085 
        1.69967         64.7532         11.3115 
        1.70581         64.3686         11.2158 
        1.71193         64.0277         11.1215 
        1.71806         63.6625         11.0281 
        1.72421         63.4642         10.9356 
        1.73035         63.1865         10.8442 
        1.73649         62.7859          10.754 
        1.74262         62.2984         10.6648 
        1.74876         62.1414         10.5766 
        1.75489            61.7         10.4896 
        1.76101         61.4159         10.4035 
        1.76715         61.4533         10.3184 
        1.77329         60.7755         10.2341 
        1.77943         60.7271         10.1507 
        1.78557         60.4653         10.0684 
        1.79171         60.0639         9.98693 
        1.79785         59.7837         9.90639 
        1.80399         59.4554         9.82676 
        1.81012         59.2011         9.74812 
        1.81625         58.8882         9.67037 
        1.82239         58.6342         9.59337 
        1.82853         58.3759         9.51724 
        1.83466         58.0344         9.44202 
        1.84078         57.7043          9.3677 
        1.84692         57.4402         9.29406 
        1.85306         57.1741         9.22113 
         1.8592         57.0158          9.1491 
        1.86533         56.6133         9.07788 
        1.87147         56.3586         9.00734 
        1.87761         56.0305         8.93753 
        1.88375         55.8611         8.86854 
        1.88988         55.6139         8.80036 
        1.89601         55.2702         8.73286 
        1.90215          55.004         8.66603 
        1.90829         54.7869         8.59993 
        1.91442         54.4736         8.53451 
        1.92056         54.2055         8.46984 
         1.9267         53.9878         8.40578 
        1.93284         53.7537         8.34234 
        1.93897         53.5462         8.27968 
        1.94509          53.085         8.21781 
        1.95123         52.8629         8.15641 
        1.95737         52.5654          8.0956 
        1.96349         52.4033         8.03557 
        1.96964          52.137         7.97598 
        1.97578         51.9309         7.91696 
        1.98192          51.666         7.85867 
        1.98805         51.4338         7.80096 
        1.99419         51.1969         7.74383 
        2.00033         50.9927         7.68724 
        2.00647         50.7491         7.63124 
         2.0126         50.4344          7.5759 
        2.01874         50.1743         7.52102 
        2.02488         49.9421         7.46664 
        2.03101         49.7345          7.4129 
        2.03714          49.493         7.35975 
        2.04328         49.2894         7.30706 
        2.04941         48.9994         7.25493 
        2.05554          48.889         7.20334 
        2.06167         48.6708          7.1522 
        2.06781         48.2741         7.10154 
        2.07396         48.1062         7.05131 
        2.08009         47.9802         7.00165 
        2.08622         47.6999         6.95253 
        2.09237         47.4781         6.90378 
        2.09851         47.2098          6.8555 
        2.10464         46.9848         6.80776 
        2.11077         46.8202         6.76053 
        2.11691         46.5038         6.71365 
        2.12305         46.3354         6.66722 
        2.12918         46.1262         6.62134 
        2.13531         45.9642         6.57588 
        2.14145         45.6951         6.53076 
         2.1476         45.4597           6.486 
        2.15372         45.3588         6.44189 
        2.15985         45.0042         6.39815 
        2.16599         44.8794         6.35469 
        2.17213         44.6442         6.31169 
        2.17827         44.3986         6.26909 
         2.1844         44.1817         6.22693 
        2.19054         43.9821         6.18514 
        2.19666         43.7579          6.1438 
         2.2028          43.571          6.1028 
        2.20893         43.3543         6.06216 
        2.21508         43.2036         6.02184 
        2.22122         42.9613         5.98188 
        2.22736         42.7085         5.94237 
        2.23349         42.5596         5.90322 
        2.23962         42.3652         5.86441 
        2.24577          42.214         5.82591 
         2.2519         41.9404         5.78782 
        2.25802          41.825         5.75013 
        2.26417          41.587         5.71267 
        2.27031         41.4596         5.67551 
        2.27644         41.2798         5.63879 
        2.28257         40.8965          5.6024 
        2.28872         40.9087         5.56626 
        2.29486         40.6624         5.53045 
        2.30099         40.4118         5.49503 
        2.30712         40.3067         5.45991 
        2.31326         40.0511         5.42503 
         2.3194         39.8624         5.39049 
        2.32553         39.7271          5.3563 
        2.33166         39.4821         5.32242 
         2.3378         39.3544          5.2888 
        2.34394         39.1559         5.25545 
        2.35007         38.9619         5.22244 
        2.35619         38.8985         5.18975 
        2.36233         38.5946         5.15727 
        2.36848         38.4354           5.125 
        2.37462         38.3093         5.09308 
        2.38075         38.1621         5.06146 
        2.38689         37.9789         5.03008 
        2.39303         37.8439         4.99898 
        2.39916         37.5313         4.96817 
        2.40529         37.3539         4.93763 
        2.41143         37.2548         4.90732 
        2.41757         37.1154         4.87725 
         2.4237          36.927          4.8475 
        2.42983         36.7654         4.81799 
        2.43598          36.631         4.78865 
        2.44211         36.4586         4.75961 
        2.44823         36.2236         4.73087 
        2.45437         36.1301          4.7023 
        2.46052         35.8958         4.67393 
        2.46665         35.7355         4.64585 
        2.47279         35.5204         4.61802 
        2.47892         35.4613         4.59039 
        2.48507         35.2908         4.56296 
         2.4912         35.1545         4.53581 
