# k  (h/Mpc)    Pcb(k)  (Mpc/h)^3    Pcb_linear(k)  (Mpc/h)^3
     0.00783031         14733.2         14950.6 
       0.013688         19570.6         19404.3 
       0.019231         20455.6         20463.3 
      0.0249154         19199.5         19681.3 
      0.0312784         17461.7         17756.6 
      0.0375637         15533.8         15649.5 
      0.0433917         13559.7         13949.3 
      0.0492413         12406.9         12627.3 
      0.0555754         11080.6         11588.8 
      0.0619321         10675.6         10808.6 
       0.067871         9714.76           10164 
      0.0738098         9061.17         9493.02 
      0.0800417         8192.82         8714.98 
      0.0862327         7519.87         7890.79 
      0.0921407         6915.03         7118.37 
      0.0982031         6208.78         6407.06 
       0.104506         5820.85         5802.61 
       0.110769         5372.99         5349.76 
       0.116806         5043.83          5031.5 
       0.122832         4807.49         4789.59 
       0.129052         4479.38         4572.12 
       0.135211         4271.21         4349.86 
       0.141259         4110.63         4104.93 
       0.147318         3893.67         3833.67 
       0.153489         3581.19         3547.28 
       0.159709         3394.82         3272.08 
       0.165845         3276.42         3033.91 
       0.171974         3087.05         2839.56 
       0.178125         2936.91         2687.75 
       0.184229         2811.72          2570.7 
        0.19034         2672.89         2473.11 
       0.196428         2626.45         2381.34 
       0.202534         2529.25         2284.33 
       0.208729         2428.37         2176.32 
       0.214876         2338.03         2061.33 
       0.220989         2263.47         1945.26 
       0.227147         2170.24         1834.03 
        0.23329         2088.42         1734.81 
       0.239377         2062.83         1651.05 
       0.245482         1940.49         1581.17 
       0.251667         1932.41          1521.7 
       0.257832         1859.07         1469.24 
       0.263955         1800.14         1419.37 
       0.270079         1744.09         1368.52 
        0.27624         1725.31         1315.09 
       0.282372         1654.88         1260.12 
        0.28843         1654.18          1205.9 
       0.294538         1577.25         1153.48 
       0.300721         1567.71         1104.67 
        0.30691         1510.93         1061.01 
       0.313033         1481.08         1022.93 
       0.319153         1464.62         988.993 
       0.325316          1415.1         957.618 
        0.33145         1386.49         927.749 
       0.337538          1363.4         898.445 
       0.343633         1337.11         868.915 
       0.349808         1296.28         838.949 
       0.355968         1286.78         809.425 
       0.362074         1276.17         781.231 
       0.368217         1236.36         754.482 
       0.374374         1195.05         729.627 
       0.380519         1198.13         706.814 
       0.386598         1166.21         685.914 
       0.392688         1160.34          666.28 
        0.39888         1129.54         647.179 
       0.405048         1118.44          628.65 
       0.411186         1102.32         610.542 
       0.417313         1079.59         592.725 
       0.423458         1062.51         575.245 
       0.429607         1049.08          558.33 
       0.435692         1030.48           542.3 
       0.441815         1023.45         526.988 
       0.447964         1001.28         512.479 
       0.454126         994.741         498.719 
       0.460267         971.871         485.664 
       0.466387         958.349         473.186 
        0.47254         955.681         461.043 
       0.478662         944.156         449.267 
       0.484765         921.432         437.818 
       0.490885         915.951         426.646 
       0.497035         895.668          415.75 
       0.503198         891.827         405.209 
       0.509342         880.447         395.115 
       0.515458         877.314         385.489 
       0.521598          857.46          376.22 
       0.527764         840.557         367.268 
       0.533884         840.354         358.701 
           0.54         832.781         350.421 
       0.546137         823.183         342.356 
       0.552299         814.324         334.474 
       0.558452         807.423         326.821 
       0.564573         796.315         319.428 
       0.570708         789.095         312.249 
       0.576825         768.016         305.324 
       0.582926         772.521         298.643 
       0.589034         764.423         292.172 
       0.595184         757.068         285.871 
       0.601379         747.235         279.729 
       0.607522         736.778         273.824 
       0.613639         738.021         268.113 
       0.619772         722.047         262.542 
       0.625918         716.576         257.109 
       0.632068         708.663         251.821 
       0.638161         706.134         246.729 
         0.6443         693.212         241.745 
       0.650464         692.133         236.888 
       0.656582         687.166         232.205 
       0.662703         683.156         227.652 
       0.668861         671.402         223.199 
       0.675024         665.605         218.864 
       0.681124         662.402         214.689 
       0.687237         656.807         210.616 
       0.693381         649.264         206.631 
       0.699536         637.348         202.743 
       0.705665         638.417         198.972 
       0.711789         633.412           195.3 
       0.717957         627.439         191.697 
        0.72409         624.225         188.205 
       0.730186         614.771         184.824 
       0.736317         611.888         181.508 
       0.742472         608.352         178.264 
       0.748622         601.789         175.103 
        0.75476          592.31         172.028 
       0.760888         588.151         169.033 
       0.767043         586.398         166.098 
       0.773185         581.082          163.24 
       0.779291         576.237         160.466 
       0.785407         570.297         157.753 
       0.791564         564.721         155.086 
       0.797719         562.328         152.483 
       0.803834         556.996         149.956 
       0.809972         553.558         147.479 
       0.816124         552.331         145.053 
       0.822261         543.784         142.689 
       0.828378         540.815         140.385 
       0.834502         535.263         138.131 
       0.840667         531.058         135.913 
       0.846816         528.002          133.75 
       0.852925         523.393         131.649 
       0.859047         522.993         129.589 
       0.865192         515.859         127.567 
       0.871341          511.44         125.587 
       0.877463         510.882         123.658 
       0.883569         504.803         121.776 
       0.889708         502.519         119.923 
       0.895864         499.867         118.105 
       0.902008         495.717         116.329 
       0.908149         489.478          114.59 
       0.914301         487.319         112.885 
       0.920448         484.596         111.217 
       0.926574         476.324         109.588 
       0.932687         475.849         107.996 
       0.938823         471.112          106.43 
       0.944975         471.266         104.892 
       0.951105         464.901         103.391 
       0.957225         461.634         101.921 
       0.963368         457.492         100.476 
       0.969511         455.821         99.0586 
       0.975621         452.689         97.6767 
       0.981748         449.474         96.3179 
       0.987916         446.482         94.9767 
        0.99406         439.214         93.6664 
        1.00019         437.924         92.3837 
        1.00632         435.769         91.1265 
        1.01246         432.238          89.891 
        1.01859         431.561         88.6808 
        1.02471         425.894         87.4945 
        1.03085         424.015         86.3261 
        1.03698         422.078         85.1817 
        1.04314           417.9         84.0535 
        1.04929         412.911         82.9485 
        1.05541         413.967          81.868 
        1.06154         407.896         80.8043 
        1.06769         404.994         79.7581 
        1.07382         402.596          78.734 
        1.07993         400.249         77.7304 
        1.08607          398.89         76.7404 
        1.09222         394.581         75.7667 
        1.09836         392.111         74.8113 
        1.10449         388.664         73.8736 
        1.11063         384.044         72.9511 
        1.11677         384.999         72.0449 
         1.1229         382.308         71.1557 
        1.12903         378.936          70.281 
        1.13518         374.606         69.4203 
        1.14131         373.602         68.5747 
        1.14745         370.131         67.7437 
        1.15359         368.392         66.9265 
        1.15973          365.81         66.1226 
        1.16584         363.198         65.3356 
        1.17197         361.612         64.5604 
        1.17811         358.198         63.7956 
        1.18424         354.854         63.0455 
        1.19038         352.869         62.3054 
        1.19652         351.186         61.5776 
        1.20267         348.931         60.8615 
        1.20881          347.17         60.1571 
        1.21495         344.066          59.465 
        1.22108         342.107         58.7841 
         1.2272         339.322         58.1155 
        1.23334         337.155         57.4558 
        1.23949         334.872          56.805 
        1.24562         333.345         56.1661 
        1.25174         330.553         55.5381 
        1.25789         326.979         54.9179 
        1.26402         325.194         54.3084 
        1.27014         323.135         53.7097 
        1.27628         320.935         53.1183 
        1.28244         320.973         52.5347 
        1.28858         316.998         51.9608 
        1.29471         315.278         51.3967 
        1.30084          313.29         50.8417 
        1.30697         311.287          50.294 
        1.31312         307.899         49.7537 
        1.31925         307.077         49.2231 
        1.32537         305.799         48.7008 
        1.33151         302.279         48.1843 
        1.33765         300.298         47.6757 
        1.34378         299.164         47.1754 
        1.34992         296.947         46.6821 
        1.35606         295.187         46.1948 
         1.3622         293.137         45.7154 
        1.36833          291.29          45.244 
        1.37445         289.389         44.7795 
        1.38059           286.6         44.3202 
        1.38675          285.12         43.8662 
        1.39288         283.516         43.4205 
        1.39901         282.232         42.9813 
        1.40515         280.071         42.5471 
         1.4113         278.581         42.1192 
        1.41742         276.198         41.6989 
        1.42355         274.474         41.2835 
         1.4297         272.711         40.8726 
        1.43585         271.229         40.4675 
        1.44198         269.465         40.0695 
        1.44809          266.83         39.6776 
        1.45423         265.254         39.2896 
        1.46036         264.168         38.9075 
        1.46649         261.949         38.5304 
        1.47263         260.564          38.158 
        1.47877         258.465         37.7908 
        1.48491         256.477         37.4278 
        1.49104         255.576         37.0704 
        1.49718         253.518         36.7174 
        1.50333         252.046         36.3685 
        1.50947         250.508         36.0249 
         1.5156         248.257         35.6863 
        1.52172           247.6          35.352 
        1.52787         245.391         35.0214 
          1.534         244.465         34.6955 
        1.54013         241.848         34.3741 
        1.54627         240.934         34.0562 
        1.55241         239.492         33.7423 
        1.55855         237.564         33.4328 
        1.56467         236.257         33.1281 
         1.5708         235.442         32.8263 
        1.57695          233.23         32.5279 
        1.58308         232.018         32.2339 
        1.58922         229.122         31.9434 
        1.59535         228.366         31.6566 
         1.6015         227.455         31.3729 
        1.60764         225.608         31.0928 
        1.61376         224.553          30.817 
        1.61989          222.93         30.5443 
        1.62604          221.27         30.2743 
        1.63218         220.163         30.0078 
        1.63831         218.608         29.7451 
        1.64444         217.654         29.4855 
        1.65059         216.241         29.2284 
        1.65673         214.689         28.9746 
        1.66285         213.043         28.7246 
        1.66898         211.752         28.4775 
        1.67512         210.871         28.2328 
        1.68127         208.584         27.9908 
         1.6874         207.426         27.7522 
        1.69353         206.489         27.5166 
        1.69967         205.026         27.2831 
        1.70581         203.958         27.0525 
        1.71193         202.303         26.8254 
        1.71806         201.541         26.6005 
        1.72421         199.952         26.3777 
        1.73035           199.2         26.1577 
        1.73649         197.857         25.9403 
        1.74262         196.361         25.7256 
        1.74876         194.905         25.5132 
        1.75489         193.897         25.3036 
        1.76101         192.624         25.0965 
        1.76715         191.585         24.8914 
        1.77329         190.567         24.6883 
        1.77943         189.397         24.4875 
        1.78557         187.753         24.2892 
        1.79171         187.057         24.0931 
        1.79785         185.428         23.8991 
        1.80399         184.598         23.7073 
        1.81012         183.429         23.5179 
        1.81625         182.292         23.3306 
        1.82239         181.018         23.1452 
        1.82853         180.441         22.9618 
        1.83466         179.008         22.7806 
        1.84078         178.007         22.6016 
        1.84692         176.622         22.4242 
        1.85306         175.852         22.2486 
         1.8592           174.6          22.075 
        1.86533         173.904         21.9035 
        1.87147         172.537         21.7336 
        1.87761         171.693         21.5654 
        1.88375         170.175         21.3992 
        1.88988         168.787         21.2349 
        1.89601          168.58         21.0723 
        1.90215         167.406         20.9113 
        1.90829         166.183         20.7521 
        1.91442         165.151         20.5945 
        1.92056         164.444         20.4387 
         1.9267         162.839         20.2843 
        1.93284         162.091         20.1315 
        1.93897         161.434         19.9805 
        1.94509         160.303         19.8314 
        1.95123          159.44         19.6835 
        1.95737         158.353          19.537 
        1.96349         157.369         19.3923 
        1.96964         156.357         19.2488 
        1.97578         155.503         19.1066 
        1.98192          154.52         18.9661 
        1.98805         153.422         18.8271 
        1.99419         152.661         18.6894 
        2.00033          151.71         18.5531 
        2.00647         150.932         18.4182 
         2.0126         149.729         18.2848 
        2.01874         149.419         18.1526 
        2.02488          148.39         18.0215 
        2.03101         147.086          17.892 
        2.03714         146.428         17.7639 
        2.04328         145.377          17.637 
        2.04941         144.864         17.5114 
        2.05554         143.555         17.3871 
        2.06167         142.976         17.2638 
        2.06781         141.994         17.1417 
        2.07396         141.127         17.0207 
        2.08009         140.525          16.901 
        2.08622         139.406         16.7826 
        2.09237         138.582         16.6652 
        2.09851         137.846         16.5488 
        2.10464         137.369         16.4338 
        2.11077         136.386           16.32 
        2.11691         135.525          16.207 
        2.12305         134.805         16.0951 
        2.12918         133.902         15.9845 
        2.13531         133.425          15.875 
        2.14145         132.156         15.7662 
         2.1476         131.302         15.6583 
        2.15372         131.045          15.552 
        2.15985         130.485         15.4466 
        2.16599           129.2         15.3419 
        2.17213         128.611         15.2382 
        2.17827         127.815         15.1355 
         2.1844         126.942         15.0339 
        2.19054         126.271         14.9332 
        2.19666          125.49         14.8336 
         2.2028         124.922         14.7347 
        2.20893         124.362         14.6368 
        2.21508         123.593         14.5396 
        2.22122         122.586         14.4433 
        2.22736         121.962          14.348 
        2.23349         121.226         14.2537 
        2.23962           120.5         14.1601 
        2.24577         119.872         14.0673 
         2.2519         119.403         13.9755 
        2.25802         118.594         13.8846 
        2.26417         117.988         13.7943 
        2.27031           117.1         13.7048 
        2.27644         116.504         13.6162 
        2.28257         115.818         13.5285 
        2.28872         115.368         13.4414 
        2.29486         114.348         13.3551 
        2.30099         113.838         13.2697 
        2.30712         113.257          13.185 
        2.31326         112.541         13.1009 
         2.3194         111.979         13.0177 
        2.32553         111.344         12.9352 
        2.33166         110.836         12.8536 
         2.3378         110.257         12.7725 
        2.34394         109.599         12.6921 
        2.35007         108.855         12.6125 
        2.35619         108.206         12.5337 
        2.36233         107.689         12.4554 
        2.36848         107.094         12.3776 
        2.37462         106.652         12.3006 
        2.38075         105.757         12.2244 
        2.38689          105.34         12.1487 
        2.39303         104.843         12.0737 
        2.39916         104.338         11.9994 
        2.40529         103.753         11.9258 
        2.41143         103.217         11.8527 
        2.41757         102.385         11.7802 
         2.4237          101.82         11.7085 
        2.42983         101.188         11.6373 
        2.43598          100.82         11.5666 
        2.44211         100.307         11.4965 
        2.44823         99.6749         11.4273 
        2.45437         99.2719         11.3583 
        2.46052         98.5103         11.2899 
        2.46665         97.9558         11.2222 
        2.47279         97.7088         11.1551 
        2.47892         97.0639         11.0885 
        2.48507         96.4641         11.0224 
         2.4912         95.8826         10.9569 
