# k  (h/Mpc)    Pcb(k)  (Mpc/h)^3    Pcb_linear(k)  (Mpc/h)^3
     0.00783031         571.026         577.135 
       0.013688         647.365         649.659 
       0.019231         596.725          596.87 
      0.0249154          492.68         493.959 
      0.0312784         376.911         375.904 
      0.0375637         287.492         285.987 
      0.0433917          232.85         232.147 
      0.0492413         202.284         201.545 
      0.0555754         184.818         185.088 
      0.0619321         176.026         175.454 
       0.067871         164.728         165.152 
      0.0738098         149.678         150.049 
      0.0800417         129.231         129.606 
      0.0862327         108.318         108.162 
      0.0921407         90.5974          90.254 
      0.0982031         76.8819         76.6621 
       0.104506         68.6261         68.0389 
       0.110769         64.3456         63.9198 
       0.116806         62.4649         62.3618 
       0.122832         61.4606         61.2716 
       0.129052          58.968          59.042 
       0.135211         54.9637         55.0165 
       0.141259         49.7869         49.6103 
       0.147318         44.0541         43.7054 
       0.153489         38.5513         38.2532 
       0.159709         34.3915         34.0569 
       0.165845         31.8644         31.3942 
       0.171974         30.2151         29.9722 
       0.178125         29.5758         29.3013 
       0.184229         29.0783         28.8177 
        0.19034         28.1265         28.0386 
       0.196428         26.9192         26.7253 
       0.202534         25.2547         24.9063 
       0.208729         23.0833         22.8034 
       0.214876         21.0295         20.7874 
       0.220989         19.4457         19.1086 
       0.227147         18.1231         17.8659 
        0.23329         17.2979         17.0525 
       0.239377         16.8084         16.5428 
       0.245482         16.3227         16.1591 
       0.251667          15.995         15.7369 
       0.257832         15.3917         15.1745 
       0.263955         14.7012         14.4556 
       0.270079         13.8783         13.6277 
        0.27624         13.0896         12.7766 
       0.282372         12.3345         12.0031 
        0.28843          11.647         11.3662 
       0.294538         11.1454         10.8692 
       0.300721         10.8103         10.4891 
        0.30691         10.4407          10.185 
       0.313033         10.1536         9.90411 
       0.319153         9.78095          9.6021 
       0.325316         9.53136         9.25465 
        0.33145         9.13292         8.87138 
       0.337538         8.73705         8.47397 
       0.343633         8.32472         8.08838 
       0.349808         7.99887          7.7327 
       0.355968         7.69541         7.42728 
       0.362074         7.42421         7.17154 
       0.368217         7.20258         6.95145 
       0.374374         6.97514         6.75214 
       0.380519         6.79913          6.5577 
       0.386598         6.61256         6.36057 
       0.392688          6.4229         6.15367 
        0.39888         6.18989         5.93708 
       0.405048         5.97958         5.72319 
       0.411186         5.78052         5.51941 
       0.417313         5.57699         5.33132 
       0.423458         5.41611         5.16135 
       0.429607         5.24672         5.00748 
       0.435692         5.09965         4.86767 
       0.441815         4.96556           4.735 
       0.447964         4.85354         4.60475 
       0.454126         4.69736         4.47427 
       0.460267         4.57439         4.34452 
       0.466387          4.4295         4.21642 
        0.47254         4.31397         4.09047 
       0.478662         4.20519         3.97055 
       0.484765         4.07117         3.85822 
       0.490885         3.96961         3.75277 
       0.497035         3.89687         3.65305 
       0.503198         3.78226         3.55844 
       0.509342         3.69219          3.4681 
       0.515458         3.59883         3.38066 
       0.521598         3.51337         3.29434 
       0.527764         3.41309         3.20906 
       0.533884         3.35134         3.12654 
           0.54         3.26184         3.04675 
       0.546137         3.18637         2.96969 
       0.552299         3.11259         2.89547 
       0.558452         3.02682         2.82462 
       0.564573         2.96793          2.7573 
       0.570708         2.89949         2.69259 
       0.576825          2.8278         2.63029 
       0.582926         2.77352         2.56985 
       0.589034         2.69612         2.51073 
       0.595184         2.64384         2.45267 
       0.601379          2.5827         2.39585 
       0.607522         2.53784         2.34129 
       0.613639         2.49081         2.28881 
       0.619772          2.4215         2.23798 
       0.625918         2.38227         2.18873 
       0.632068         2.33952         2.14104 
       0.638161         2.28242         2.09527 
         0.6443         2.23563         2.05057 
       0.650464         2.18391         2.00703 
       0.656582         2.15113         1.96506 
       0.662703         2.10746         1.92425 
       0.668861         2.07209          1.8843 
       0.675024         2.02619          1.8454 
       0.681124         1.98287         1.80797 
       0.687237         1.95116          1.7715 
       0.693381         1.91461         1.73589 
       0.699536         1.86554         1.70124 
       0.705665         1.83499         1.66774 
       0.711789         1.80444         1.63522 
       0.717957         1.76749         1.60337 
        0.72409         1.73574         1.57257 
       0.730186         1.70332         1.54276 
       0.736317         1.68438         1.51356 
       0.742472         1.65289           1.485 
       0.748622         1.61818         1.45719 
        0.75476         1.58739         1.43015 
       0.760888         1.55881         1.40384 
       0.767043         1.54059         1.37809 
       0.773185         1.50686         1.35304 
       0.779291         1.48512         1.32877 
       0.785407         1.45843         1.30507 
       0.791564         1.43729         1.28181 
       0.797719         1.41507         1.25914 
       0.803834         1.39411         1.23716 
       0.809972         1.36982         1.21564 
       0.816124         1.34421         1.19459 
       0.822261         1.31848          1.1741 
       0.828378         1.30089         1.15416 
       0.834502         1.28571         1.13466 
       0.840667         1.25679          1.1155 
       0.846816         1.23792         1.09683 
       0.852925         1.22568         1.07871 
       0.859047         1.20572         1.06097 
       0.865192         1.18465         1.04357 
       0.871341          1.1686         1.02655 
       0.877463         1.15332         1.00999 
       0.883569         1.13158        0.993838 
       0.889708         1.11561         0.97796 
       0.895864         1.09798        0.962392 
       0.902008          1.0805        0.947197 
       0.908149         1.06717        0.932342 
       0.914301         1.04594        0.917784 
       0.920448         1.03251        0.903553 
       0.926574         1.01722        0.889676 
       0.932687         1.00215        0.876122 
       0.938823        0.992452        0.862804 
       0.944975         0.97777        0.849735 
       0.951105        0.964791        0.836985 
       0.957225        0.954637        0.824521 
       0.963368        0.939626        0.812271 
       0.969511        0.924647        0.800272 
       0.975621         0.91047        0.788581 
       0.981748        0.901801        0.777096 
       0.987916        0.887397        0.765769 
        0.99406        0.874013        0.754713 
        1.00019        0.866203        0.743898 
        1.00632        0.851158        0.733306 
        1.01246        0.840691        0.722906 
        1.01859        0.830639        0.712726 
        1.02471        0.818629        0.702757 
        1.03085        0.810501        0.692945 
        1.03698        0.797961        0.683343 
        1.04314        0.788951        0.673883 
        1.04929        0.777845        0.664625 
        1.05541        0.769709         0.65558 
        1.06154        0.758233        0.646681 
        1.06769        0.749289        0.637936 
        1.07382        0.739444        0.629381 
        1.07993        0.728726        0.621004 
        1.08607        0.723706        0.612745 
        1.09222        0.712425         0.60463 
        1.09836        0.706495        0.596671 
        1.10449        0.697844        0.588866 
        1.11063        0.686104        0.581193 
        1.11677         0.67764        0.573661 
         1.1229        0.670939        0.566275 
        1.12903        0.662455        0.559014 
        1.13518        0.655627        0.551875 
        1.14131        0.646523        0.544866 
        1.14745        0.635579        0.537982 
        1.15359        0.631127        0.531218 
        1.15973        0.621736        0.524567 
        1.16584        0.618219        0.518061 
        1.17197        0.610202        0.511656 
        1.17811        0.604309        0.505341 
        1.18424        0.598308        0.499151 
        1.19038        0.589268        0.493048 
        1.19652        0.581736         0.48705 
        1.20267        0.577887        0.481152 
        1.20881        0.569773        0.475354 
        1.21495        0.564866        0.469661 
        1.22108        0.558108        0.464063 
         1.2272         0.55362         0.45857 
        1.23334         0.54593        0.453154 
        1.23949        0.540175        0.447812 
        1.24562        0.534913        0.442573 
        1.25174         0.52965        0.437425 
        1.25789        0.524049        0.432344 
        1.26402        0.516809        0.427353 
        1.27014        0.511588        0.422454 
        1.27628        0.508403        0.417617 
        1.28244        0.500487        0.412847 
        1.28858        0.496212        0.408159 
        1.29471        0.491756        0.403554 
        1.30084        0.485551        0.399024 
        1.30697        0.480466        0.394558 
        1.31312        0.474081        0.390154 
        1.31925        0.470541        0.385831 
        1.32537        0.466312        0.381578 
        1.33151        0.462475        0.377374 
        1.33765        0.457131        0.373237 
        1.34378        0.451236         0.36917 
        1.34992        0.447884         0.36516 
        1.35606         0.44285        0.361202 
         1.3622        0.438962         0.35731 
        1.36833        0.434228        0.353485 
        1.37445        0.428603        0.349718 
        1.38059        0.425143        0.345995 
        1.38675        0.423423        0.342317 
        1.39288        0.417852        0.338708 
        1.39901        0.413989        0.335152 
        1.40515        0.410384         0.33164 
         1.4113        0.405493         0.32818 
        1.41742        0.401733        0.324783 
        1.42355        0.399729        0.321427 
         1.4297        0.394219         0.31811 
        1.43585         0.39067         0.31484 
        1.44198        0.388861        0.311629 
        1.44809        0.383638         0.30847 
        1.45423        0.380359        0.305342 
        1.46036        0.376889        0.302264 
        1.46649         0.37363        0.299228 
        1.47263        0.369867        0.296231 
        1.47877        0.366246        0.293276 
        1.48491        0.363187        0.290357 
        1.49104        0.359067        0.287485 
        1.49718        0.356559        0.284649 
        1.50333        0.353311        0.281847 
        1.50947        0.350271        0.279089 
         1.5156        0.346784        0.276372 
        1.52172        0.343815        0.273691 
        1.52787        0.340436        0.271041 
          1.534        0.337712        0.268428 
        1.54013        0.334357        0.265853 
        1.54627        0.331745        0.263308 
        1.55241        0.328447        0.260795 
        1.55855        0.325567        0.258319 
        1.56467        0.324101        0.255882 
         1.5708        0.320154        0.253469 
        1.57695         0.31812        0.251084 
        1.58308        0.315165        0.248736 
        1.58922        0.312438        0.246416 
        1.59535        0.309627        0.244126 
         1.6015        0.306895        0.241863 
        1.60764         0.30476         0.23963 
        1.61376        0.301522         0.23743 
        1.61989        0.299531        0.235257 
        1.62604        0.296742        0.233107 
        1.63218        0.294866        0.230984 
        1.63831        0.292295        0.228893 
        1.64444        0.289647        0.226828 
        1.65059        0.287395        0.224783 
        1.65673        0.284728        0.222765 
        1.66285        0.282859        0.220778 
        1.66898        0.281103        0.218815 
        1.67512        0.277728        0.216871 
        1.68127        0.275377         0.21495 
         1.6874        0.274302        0.213057 
        1.69353        0.271384        0.211187 
        1.69967        0.269326        0.209335 
        1.70581        0.267145        0.207507 
        1.71193        0.265135        0.205707 
        1.71806        0.262923        0.203925 
        1.72421        0.260968        0.202161 
        1.73035        0.258482         0.20042 
        1.73649        0.257111        0.198699 
        1.74262        0.254948        0.197001 
        1.74876        0.252764        0.195321 
        1.75489         0.25084        0.193664 
        1.76101         0.24888        0.192027 
        1.76715        0.246921        0.190406 
        1.77329        0.245147        0.188802 
        1.77943        0.242857        0.187217 
        1.78557        0.241381        0.185651 
        1.79171        0.239748        0.184104 
        1.79785        0.237668        0.182574 
        1.80399        0.236007        0.181061 
        1.81012        0.234355        0.179568 
        1.81625         0.23254        0.178093 
        1.82239        0.231081        0.176631 
        1.82853        0.228643        0.175187 
        1.83466        0.227225        0.173761 
        1.84078        0.225317        0.172352 
        1.84692         0.22379        0.170956 
        1.85306        0.222723        0.169575 
         1.8592        0.220742         0.16821 
        1.86533        0.219546        0.166862 
        1.87147        0.217661        0.165527 
        1.87761         0.21617        0.164205 
        1.88375         0.21421          0.1629 
        1.88988        0.213047        0.161611 
        1.89601        0.211115        0.160335 
        1.90215        0.210029        0.159071 
        1.90829        0.208205        0.157822 
        1.91442        0.206974        0.156586 
        1.92056        0.205499        0.155365 
         1.9267        0.203872        0.154155 
        1.93284        0.202447        0.152958 
        1.93897        0.200898        0.151776 
        1.94509        0.199986        0.150608 
        1.95123        0.198244        0.149451 
        1.95737         0.19717        0.148304 
        1.96349        0.195436        0.147173 
        1.96964        0.194255         0.14605 
        1.97578        0.192747        0.144938 
        1.98192        0.191596         0.14384 
        1.98805        0.190553        0.142754 
        1.99419        0.188964        0.141678 
        2.00033        0.187785        0.140614 
        2.00647         0.18675         0.13956 
         2.0126        0.185084        0.138519 
        2.01874        0.184073        0.137487 
        2.02488        0.182973        0.136465 
        2.03101        0.181463        0.135455 
        2.03714        0.180049        0.134457 
        2.04328        0.179343        0.133467 
        2.04941        0.178004        0.132488 
        2.05554        0.176838        0.131519 
        2.06167        0.175817        0.130559 
        2.06781        0.174041        0.129609 
        2.07396        0.173152        0.128666 
        2.08009         0.17202        0.127735 
        2.08622        0.171016        0.126814 
        2.09237        0.170175          0.1259 
        2.09851        0.168931        0.124995 
        2.10464        0.167779        0.124101 
        2.11077        0.166898        0.123216 
        2.11691        0.165569        0.122338 
        2.12305         0.16451        0.121469 
        2.12918        0.163697         0.12061 
        2.13531        0.162396        0.119759 
        2.14145        0.161509        0.118915 
         2.1476        0.160531        0.118078 
        2.15372        0.159779        0.117253 
        2.15985        0.158383        0.116435 
        2.16599        0.157222        0.115623 
        2.17213        0.156594        0.114819 
        2.17827        0.155598        0.114023 
         2.1844        0.154857        0.113236 
        2.19054        0.153556        0.112455 
        2.19666        0.152411        0.111683 
         2.2028        0.151921        0.110918 
        2.20893        0.151046        0.110159 
        2.21508        0.149751        0.109407 
        2.22122        0.148564        0.108662 
        2.22736        0.148123        0.107925 
        2.23349        0.147065        0.107195 
        2.23962        0.146496        0.106471 
        2.24577        0.145193        0.105754 
         2.2519        0.144591        0.105044 
        2.25802        0.143554        0.104342 
        2.26417         0.14286        0.103644 
        2.27031        0.141853        0.102952 
        2.27644        0.141103        0.102269 
        2.28257        0.140273        0.101591 
        2.28872        0.139364        0.100919 
        2.29486        0.138659        0.100253 
        2.30099        0.137727       0.0995939 
        2.30712        0.137041       0.0989408 
        2.31326        0.136041       0.0982924 
         2.3194        0.135858       0.0976502 
        2.32553          0.1349       0.0970148 
        2.33166        0.134221       0.0963854 
         2.3378        0.133312       0.0957607 
        2.34394        0.132118       0.0951413 
        2.35007        0.131566       0.0945283 
        2.35619        0.130852       0.0939215 
        2.36233        0.129847       0.0933186 
        2.36848        0.129323       0.0927197 
        2.37462        0.128465       0.0921273 
        2.38075        0.128093       0.0915407 
        2.38689        0.127135       0.0909588 
        2.39303        0.126731        0.090382 
        2.39916        0.125556       0.0898108 
        2.40529        0.125053       0.0892446 
        2.41143        0.124392       0.0886829 
        2.41757          0.1237       0.0881258 
         2.4237        0.123078       0.0875745 
        2.42983         0.12225        0.087028 
        2.43598        0.121881       0.0864847 
        2.44211        0.121113        0.085947 
        2.44823        0.120542       0.0854151 
        2.45437        0.119528       0.0848862 
        2.46052        0.119083       0.0843613 
        2.46665         0.11827       0.0838419 
        2.47279        0.117768        0.083327 
        2.47892        0.117025       0.0828161 
        2.48507        0.116328        0.082309 
         2.4912        0.115868       0.0818071 
