# k  (h/Mpc)    P(k)  (Mpc/h)^3    P_linear(k)  (Mpc/h)^3
     0.00783031            9496         9624.26 
       0.013688         12204.9         12131.8 
       0.019231         12579.8         12571.4 
      0.0249154         11702.2         11911.7 
      0.0312784         10472.6         10575.4 
      0.0375637         9156.52         9170.21 
      0.0433917         7923.57         8053.01 
      0.0492413         7141.28         7192.87 
      0.0555754         6357.22         6529.47 
      0.0619321         6054.68         6051.82 
       0.067871         5540.77         5679.53 
      0.0738098         5170.65         5306.04 
      0.0800417         4698.75         4874.21 
      0.0862327         4296.44         4408.11 
      0.0921407         3914.01         3959.94 
      0.0982031         3482.64         3536.44 
       0.104506         3213.62         3168.17 
       0.110769         2936.12         2888.52 
       0.116806          2728.2          2693.9 
       0.122832         2598.02         2553.37 
       0.129052         2431.12         2437.99 
       0.135211            2325         2328.08 
       0.141259         2234.72         2207.71 
       0.147318         2113.65         2069.56 
       0.153489         1943.98         1916.21 
       0.159709         1826.51         1761.17 
       0.165845         1733.56         1620.87 
       0.171974         1616.17         1502.61 
       0.178125         1529.16         1409.22 
       0.184229         1462.97         1339.21 
        0.19034         1374.91         1285.31 
       0.196428         1354.65         1239.58 
       0.202534         1313.67         1194.17 
       0.208729         1254.86         1143.42 
       0.214876         1195.22         1086.87 
       0.220989         1156.47         1026.32 
       0.227147         1095.62         964.871 
        0.23329         1047.96          907.36 
       0.239377          1023.6          857.27 
       0.245482         955.359         815.326 
       0.251667         947.085         780.834 
       0.257832          912.56         752.492 
       0.263955         884.085         727.707 
       0.270079          854.33          703.72 
        0.27624         845.712         678.583 
       0.282372         810.139         651.881 
        0.28843         794.693         624.158 
       0.294538         755.508         595.976 
       0.300721         751.105         568.557 
        0.30691         717.078         543.412 
       0.313033         702.957         521.419 
       0.319153         683.801         502.339 
       0.325316         663.093         485.549 
        0.33145         645.754         470.453 
       0.337538         637.581         456.208 
       0.343633           618.5         442.046 
       0.349808         598.353         427.403 
       0.355968         593.816         412.529 
       0.362074          583.38         397.749 
       0.368217         567.139         383.281 
       0.374374          544.44         369.556 
       0.380519         541.008         356.899 
       0.386598         527.886         345.501 
       0.392688         525.314         335.073 
        0.39888         509.919          325.29 
       0.405048         500.555          316.07 
       0.411186         491.684         307.154 
       0.417313         482.567         298.373 
       0.423458         474.392         289.603 
       0.429607         465.247         280.911 
       0.435692         454.604         272.512 
       0.441815         451.361         264.365 
       0.447964         442.162          256.59 
       0.454126         430.239         249.279 
       0.460267         424.077         242.445 
       0.466387         419.326         236.023 
        0.47254         411.161         229.887 
       0.478662         409.974         224.013 
       0.484765         397.424         218.304 
       0.490885         393.488         212.691 
       0.497035         386.539          207.17 
       0.503198         380.211         201.766 
       0.509342         377.299         196.533 
       0.515458         373.234         191.513 
       0.521598         365.756         186.693 
       0.527764         359.197         182.074 
       0.533884         356.807         177.687 
           0.54         351.892         173.483 
       0.546137         350.604          169.42 
       0.552299          343.46         165.471 
       0.558452         340.996         161.635 
       0.564573         335.659         157.907 
       0.570708         330.085         154.264 
       0.576825         324.535         150.735 
       0.582926         322.182         147.324 
       0.589034          319.02          144.02 
       0.595184         316.018         140.806 
       0.601379         312.583         137.681 
       0.607522         307.225         134.691 
       0.613639         305.952         131.814 
       0.619772         298.737         129.019 
       0.625918         297.618         126.297 
       0.632068          293.36         123.643 
       0.638161         292.198         121.081 
         0.6443         287.194         118.567 
       0.650464         284.716         116.114 
       0.656582         283.277         113.749 
       0.662703         280.972         111.453 
       0.668861         276.057         109.211 
       0.675024         273.251         107.032 
       0.681124         272.138         104.936 
       0.687237          268.76         102.894 
       0.693381         264.868         100.897 
       0.699536         262.729         98.9506 
       0.705665         261.224          97.064 
       0.711789         258.137         95.2279 
       0.717957         256.667          93.426 
        0.72409         253.865         91.6799 
       0.730186         251.082         89.9884 
       0.736317         248.579         88.3303 
       0.742472         247.472          86.708 
       0.748622         245.419         85.1287 
        0.75476         243.399         83.5931 
       0.760888         240.114         82.0987 
       0.767043         239.939         80.6359 
       0.773185         236.926         79.2124 
       0.779291         232.898         77.8319 
       0.785407         232.389         76.4825 
       0.791564         230.101         75.1566 
       0.797719         227.607         73.8627 
       0.803834         226.389         72.6074 
       0.809972         224.663         71.3767 
       0.816124         224.792         70.1718 
       0.822261          221.25         68.9981 
       0.828378         219.622          67.855 
       0.834502         219.268         66.7369 
       0.840667         215.819         65.6371 
       0.846816         214.629         64.5654 
       0.852925         213.468         63.5246 
       0.859047         211.517         62.5047 
       0.865192         209.816         61.5041 
       0.871341          207.84         60.5249 
       0.877463         206.517         59.5716 
       0.883569         205.345         58.6414 
       0.889708         203.585         57.7264 
       0.895864         201.108         56.8286 
       0.902008         200.521         55.9519 
       0.908149         199.667         55.0944 
       0.914301         197.305         54.2535 
       0.920448         195.843          53.431 
       0.926574         194.882         52.6286 
       0.932687         194.395         51.8444 
       0.938823         192.029         51.0735 
       0.944975         190.436         50.3165 
       0.951105          189.71         49.5777 
       0.957225         187.717         48.8551 
       0.963368         185.767         48.1445 
       0.969511         185.104         47.4481 
       0.975621         183.852         46.7692 
       0.981748         183.576          46.102 
       0.987916         181.363         45.4437 
        0.99406         180.045         44.8008 
        1.00019         179.843         44.1716 
        1.00632         178.124         43.5552 
        1.01246         176.992         42.9496 
        1.01859         175.998         42.3566 
        1.02471          174.63         41.7756 
        1.03085         172.777         41.2035 
        1.03698         171.989         40.6434 
        1.04314          170.75         40.0914 
        1.04929         169.448          39.551 
        1.05541         169.038         39.0227 
        1.06154         167.711         38.5029 
        1.06769         167.599         37.9917 
        1.07382         166.189         37.4916 
        1.07993         164.742         37.0016 
        1.08607          163.81         36.5184 
        1.09222         163.043         36.0433 
        1.09836         161.595         35.5773 
        1.10449         160.285         35.1201 
        1.11063         159.153         34.6705 
        1.11677         158.876         34.2289 
         1.1229         157.229         33.7958 
        1.12903         156.532         33.3699 
        1.13518         156.209          32.951 
        1.14131         154.591         32.5395 
        1.14745         154.084         32.1353 
        1.15359         152.916         31.7379 
        1.15973         152.533         31.3471 
        1.16584         150.898         30.9646 
        1.17197          150.28          30.588 
        1.17811         149.434         30.2165 
        1.18424         148.622         29.8523 
        1.19038         148.157         29.4931 
        1.19652         147.037           29.14 
        1.20267         146.217         28.7926 
        1.20881         145.025          28.451 
        1.21495         144.411         28.1155 
        1.22108         143.731         27.7855 
         1.2272         142.467         27.4615 
        1.23334         141.823         27.1421 
        1.23949         140.489         26.8269 
        1.24562         140.093         26.5176 
        1.25174         138.571         26.2137 
        1.25789         138.164         25.9137 
        1.26402         137.539         25.6189 
        1.27014         136.613         25.3294 
        1.27628         135.956         25.0435 
        1.28244         135.353         24.7615 
        1.28858         134.723         24.4842 
        1.29471         133.234         24.2119 
        1.30084         132.818         23.9439 
        1.30697          132.06         23.6796 
        1.31312         131.712         23.4188 
        1.31925         130.488         23.1629 
        1.32537         129.999          22.911 
        1.33151         128.691          22.662 
        1.33765         128.409         22.4168 
        1.34378         127.519         22.1758 
        1.34992         127.298         21.9381 
        1.35606         126.415         21.7034 
         1.3622         125.515         21.4726 
        1.36833          124.84         21.2456 
        1.37445         123.998         21.0221 
        1.38059         123.676         20.8011 
        1.38675          122.65         20.5828 
        1.39288         122.262         20.3685 
        1.39901         121.802         20.1573 
        1.40515         120.958         19.9487 
         1.4113         119.795         19.7431 
        1.41742         119.661         19.5412 
        1.42355         118.752         19.3417 
         1.4297         118.097         19.1445 
        1.43585         117.166           18.95 
        1.44198         117.036          18.759 
        1.44809         116.083         18.5711 
        1.45423         115.281          18.385 
        1.46036          115.07         18.2017 
        1.46649         114.342          18.021 
        1.47263         113.776         17.8425 
        1.47877         113.283         17.6666 
        1.48491         112.266         17.4927 
        1.49104         111.897         17.3216 
        1.49718         110.995         17.1526 
        1.50333         110.586         16.9856 
        1.50947         110.011         16.8212 
         1.5156         109.448         16.6592 
        1.52172         108.733         16.4993 
        1.52787         108.377         16.3412 
          1.534         107.699         16.1854 
        1.54013         106.928         16.0317 
        1.54627         106.513         15.8798 
        1.55241         105.876         15.7299 
        1.55855         105.461          15.582 
        1.56467          104.93         15.4365 
         1.5708         104.191         15.2925 
        1.57695         103.986           15.15 
        1.58308         102.942         15.0097 
        1.58922         102.901         14.8711 
        1.59535         102.225         14.7343 
         1.6015         101.683          14.599 
        1.60764          101.07         14.4655 
        1.61376         100.811          14.334 
        1.61989         100.086         14.2041 
        1.62604         99.6546         14.0755 
        1.63218         99.1976         13.9485 
        1.63831         98.4112         13.8234 
        1.64444         98.0527         13.6998 
        1.65059         97.4307         13.5774 
        1.65673         96.6975         13.4567 
        1.66285           96.58         13.3377 
        1.66898         95.8433         13.2202 
        1.67512         95.4176         13.1038 
        1.68127         94.8662         12.9888 
         1.6874          94.368         12.8754 
        1.69353          93.853         12.7634 
        1.69967         93.3367         12.6524 
        1.70581         93.0353         12.5429 
        1.71193         92.6936          12.435 
        1.71806         91.8939         12.3282 
        1.72421         91.5405         12.2225 
        1.73035         90.9862          12.118 
        1.73649         90.5047         12.0149 
        1.74262         90.0797          11.913 
        1.74876         89.6889         11.8122 
        1.75489         88.9544         11.7129 
        1.76101         88.7192         11.6146 
        1.76715         88.1482         11.5174 
        1.77329         87.8251         11.4212 
        1.77943         87.2268          11.326 
        1.78557         86.9805          11.232 
        1.79171         86.3533         11.1391 
        1.79785         85.9907         11.0473 
        1.80399         85.6168         10.9565 
        1.81012         85.2353         10.8668 
        1.81625         84.6547         10.7782 
        1.82239         84.3259         10.6904 
        1.82853         84.0517         10.6036 
        1.83466         83.4141         10.5179 
        1.84078         83.2335         10.4333 
        1.84692         82.5054         10.3494 
        1.85306         82.0773         10.2663 
         1.8592         81.6271         10.1843 
        1.86533         81.3256         10.1033 
        1.87147         80.6947          10.023 
        1.87761         80.4743         9.94355 
        1.88375         80.0907         9.86507 
        1.88988         79.6822         9.78751 
        1.89601         79.1961         9.71075 
        1.90215         78.8791         9.63475 
        1.90829         78.5511          9.5596 
        1.91442         78.0734         9.48524 
        1.92056         77.4816         9.41174 
         1.9267         77.3234         9.33894 
        1.93284         76.7147         9.26687 
        1.93897         76.3454          9.1957 
        1.94509         76.0092         9.12543 
        1.95123         75.6141         9.05572 
        1.95737         75.4581         8.98668 
        1.96349         74.8015         8.91854 
        1.96964         74.4679         8.85091 
        1.97578         74.2701         8.78396 
        1.98192         73.7546         8.71783 
        1.98805         73.4873         8.65237 
        1.99419         72.9337         8.58758 
        2.00033         72.6854         8.52343 
        2.00647          72.381         8.45994 
         2.0126         71.8266         8.39722 
        2.01874         71.4687         8.33503 
        2.02488          71.246         8.27341 
        2.03101         70.9582         8.21253 
        2.03714         70.4069         8.15232 
        2.04328         70.2019         8.09265 
        2.04941         69.7276         8.03362 
        2.05554         69.4571         7.97522 
        2.06167         69.1042         7.91732 
        2.06781         68.7357         7.85999 
        2.07396         68.3779         7.80315 
        2.08009         68.1052         7.74696 
        2.08622         67.7999         7.69139 
        2.09237         67.3855         7.63626 
        2.09851         67.1901         7.58166 
        2.10464         66.7386         7.52768 
        2.11077         66.3098         7.47429 
        2.11691         66.0778          7.4213 
        2.12305         65.7483         7.36882 
        2.12918         65.4287         7.31698 
        2.13531          65.047         7.26563 
        2.14145          64.725         7.21465 
         2.1476         64.5083         7.16411 
        2.15372         64.1566          7.1143 
        2.15985           63.79         7.06492 
        2.16599         63.4765         7.01586 
        2.17213         63.1947         6.96732 
        2.17827         62.8728         6.91925 
         2.1844         62.4665         6.87168 
        2.19054         62.1709         6.82454 
        2.19666         61.9269          6.7779 
         2.2028         61.7934         6.73166 
        2.20893          61.407         6.68583 
        2.21508         61.0135         6.64037 
        2.22122          60.828         6.59532 
        2.22736         60.4834         6.55079 
        2.23349         60.2004         6.50667 
        2.23962         59.8077         6.46294 
        2.24577         59.4586         6.41957 
         2.2519         59.2102         6.37666 
        2.25802         59.0136         6.33421 
        2.26417         58.6279         6.29202 
        2.27031          58.412         6.25018 
        2.27644         58.1131         6.20885 
        2.28257          57.784         6.16789 
        2.28872         57.5409         6.12722 
        2.29486         57.3011         6.08693 
        2.30099         56.9933         6.04708 
        2.30712         56.7563         6.00757 
        2.31326         56.3625         5.96835 
         2.3194         56.1935          5.9295 
        2.32553         55.7984         5.89106 
        2.33166         55.5505         5.85297 
         2.3378         55.2948         5.81517 
        2.34394         54.8969          5.7777 
        2.35007         54.6468          5.7406 
        2.35619         54.5098         5.70388 
        2.36233         54.3461         5.66738 
        2.36848          53.942         5.63114 
        2.37462         53.6801         5.59528 
        2.38075         53.4442         5.55978 
        2.38689         53.2207         5.52455 
        2.39303          52.994         5.48963 
        2.39916         52.8124         5.45505 
        2.40529         52.4915         5.42076 
        2.41143         52.2306         5.38675 
        2.41757         51.9297         5.35302 
         2.4237           51.74         5.31963 
        2.42983           51.42         5.28654 
        2.43598         51.1609         5.25363 
        2.44211         50.9598         5.22107 
        2.44823         50.6913         5.18885 
        2.45437          50.444         5.15681 
        2.46052         50.1169         5.12502 
        2.46665         49.9327         5.09355 
        2.47279         49.7403         5.06235 
        2.47892         49.5597          5.0314 
        2.48507         49.2428         5.00068 
         2.4912         49.0929         4.97027 
