# k  (h/Mpc)    Pcb(k)  (Mpc/h)^3    Pcb_linear(k)  (Mpc/h)^3
     0.00783031         16306.9         16550.5 
       0.013688         19243.5         19063.4 
       0.019231         18130.2         18064.6 
      0.0249154         15338.5         15619.7 
      0.0312784         12577.2         12659.7 
      0.0375637         10365.3         10306.3 
      0.0433917         8724.58         8814.11 
      0.0492413         7857.92         7868.33 
      0.0555754         7042.38         7214.19 
      0.0619321         6722.73         6675.63 
       0.067871         5998.86         6115.84 
      0.0738098         5373.11         5459.74 
      0.0800417         4630.38         4725.78 
      0.0862327         4045.19         4052.04 
      0.0921407         3613.23         3535.15 
      0.0982031         3209.82         3159.01 
       0.104506         3043.08         2912.24 
       0.110769         2857.17         2759.23 
       0.116806         2713.63            2640 
       0.122832          2578.2         2503.37 
       0.129052         2354.95         2323.09 
       0.135211         2173.24         2113.19 
       0.141259         2025.06         1902.26 
       0.147318         1867.45          1713.3 
       0.153489          1698.4         1561.41 
       0.159709         1607.64         1453.04 
       0.165845         1551.26            1381 
       0.171974         1479.04          1327.9 
       0.178125         1413.61          1277.3 
       0.184229          1349.1         1218.61 
        0.19034         1258.32         1148.12 
       0.196428         1216.91         1070.18 
       0.202534         1159.77         992.135 
       0.208729         1092.55         921.002 
       0.214876         1038.97         863.111 
       0.220989         1001.02          818.58 
       0.227147         960.138         783.974 
        0.23329         922.687         755.039 
       0.239377         903.942         727.337 
       0.245482         842.863         697.498 
       0.251667         834.303         664.399 
       0.257832         798.028         629.724 
       0.263955         768.408          595.84 
       0.270079         737.095         564.691 
        0.27624         726.573         537.413 
       0.282372         697.576         514.474 
        0.28843         684.389         495.142 
       0.294538         648.926         477.672 
       0.300721         644.962         460.753 
        0.30691         616.536         443.638 
       0.313033         603.376         426.291 
       0.319153         586.638         408.784 
       0.325316         568.798         391.601 
        0.33145          552.21         375.519 
       0.337538         542.391         360.958 
       0.343633         526.565          347.83 
       0.349808         507.148         335.802 
       0.355968         503.007         324.709 
       0.362074         495.544         314.201 
       0.368217         480.728          303.87 
       0.374374         459.649         293.619 
       0.380519         458.115         283.546 
       0.386598         445.292          273.88 
       0.392688         442.103         264.632 
        0.39888           429.3         255.799 
       0.405048         420.479         247.598 
       0.411186          413.72         239.961 
       0.417313         405.258         232.774 
       0.423458         396.576         225.884 
       0.429607         390.771         219.208 
       0.435692         380.555         212.783 
       0.441815         376.723         206.496 
       0.447964         368.739         200.377 
       0.454126          360.66         194.483 
       0.460267         353.713          188.88 
       0.466387         349.327         183.566 
        0.47254         343.011         178.475 
       0.478662         341.702         173.638 
       0.484765         329.296         169.012 
       0.490885         326.193         164.535 
       0.497035         320.121         160.173 
       0.503198         315.511          155.94 
       0.509342         313.272          151.86 
       0.515458         309.279         147.939 
       0.521598         301.317         144.146 
       0.527764         297.247         140.481 
       0.533884          294.48         136.985 
           0.54         290.205         133.625 
       0.546137         288.651         130.372 
       0.552299         282.673         127.215 
       0.558452         281.209         124.162 
       0.564573         277.235         121.219 
       0.570708         271.548         118.363 
       0.576825         266.699         115.607 
       0.582926          264.51         112.947 
       0.589034         261.896          110.37 
       0.595184         259.629         107.859 
       0.601379         255.388         105.412 
       0.607522         251.903         103.063 
       0.613639         250.156         100.798 
       0.619772         245.076         98.5969 
       0.625918         243.892          96.457 
       0.632068         239.819         94.3788 
       0.638161         238.702         92.3795 
         0.6443         234.882         90.4236 
       0.650464         232.579         88.5176 
       0.656582         229.978         86.6812 
       0.662703         229.574         84.8977 
       0.668861         225.613         83.1558 
       0.675024         222.711         81.4625 
       0.681124         221.186         79.8342 
       0.687237         218.683         78.2476 
       0.693381         215.276          76.697 
       0.699536         213.489         75.1858 
       0.705665         211.487         73.7219 
       0.711789         209.825         72.2986 
       0.717957          208.82         70.9034 
        0.72409         206.424         69.5532 
       0.730186         203.883         68.2468 
       0.736317         201.628         66.9673 
       0.742472         200.274         65.7163 
       0.748622         198.576         64.4989 
        0.75476           196.6         63.3153 
       0.760888          194.47         62.1635 
       0.767043         194.166         61.0361 
       0.773185         192.234         59.9392 
       0.779291         188.586         58.8757 
       0.785407         188.125         57.8367 
       0.791564         186.308         56.8164 
       0.797719         183.643         55.8214 
       0.803834         182.576         54.8568 
       0.809972         181.807         53.9117 
       0.816124         180.896         52.9871 
       0.822261         179.256         52.0868 
       0.828378         177.305         51.2103 
       0.834502         176.575         50.3534 
       0.840667         174.381         49.5107 
       0.846816         172.877         48.6899 
       0.852925         172.137          47.893 
       0.859047         170.624         47.1125 
       0.865192         168.541          46.347 
       0.871341         167.237         45.5981 
       0.877463         166.139         44.8692 
       0.883569         165.739         44.1583 
       0.889708         163.735         43.4593 
       0.895864         162.202         42.7738 
       0.902008         161.152         42.1046 
       0.908149         160.665         41.4503 
       0.914301         158.465          40.809 
       0.920448         157.579         40.1819 
       0.926574         156.369         39.5703 
       0.932687         156.387         38.9728 
       0.938823          154.23         38.3857 
       0.944975         153.314         37.8094 
       0.951105         152.376         37.2471 
       0.957225         151.206         36.6972 
       0.963368         149.104         36.1568 
       0.969511         148.744         35.6272 
       0.975621         147.467         35.1112 
       0.981748         147.383         34.6042 
       0.987916         145.852         34.1041 
        0.99406         144.595         33.6157 
        1.00019         144.409          33.138 
        1.00632         142.948         32.6701 
        1.01246         142.089         32.2106 
        1.01859         141.653         31.7607 
        1.02471         139.795           31.32 
        1.03085         138.615         30.8862 
        1.03698          138.09         30.4616 
        1.04314          136.66         30.0432 
        1.04929         136.233         29.6337 
        1.05541         135.667         29.2336 
        1.06154         134.546         28.8399 
        1.06769         134.311         28.4529 
        1.07382         132.955         28.0743 
        1.07993         132.024         27.7035 
        1.08607         131.345         27.3379 
        1.09222         130.834         26.9786 
        1.09836         129.724         26.6262 
        1.10449         128.412         26.2805 
        1.11063         127.584         25.9407 
        1.11677         127.088          25.607 
         1.1229         126.141         25.2798 
        1.12903         125.685         24.9581 
        1.13518         125.086         24.6418 
        1.14131          123.83         24.3311 
        1.14745         123.602          24.026 
        1.15359         122.593         23.7262 
        1.15973         121.957         23.4313 
        1.16584         120.837         23.1428 
        1.17197         120.317         22.8589 
        1.17811         119.622         22.5788 
        1.18424         119.167         22.3043 
        1.19038         118.801         22.0335 
        1.19652         117.757         21.7674 
        1.20267         117.097         21.5057 
        1.20881         116.356         21.2484 
        1.21495         115.503         20.9958 
        1.22108         114.984         20.7473 
         1.2272         113.987         20.5034 
        1.23334         113.619         20.2629 
        1.23949         112.943         20.0257 
        1.24562         112.249          19.793 
        1.25174          111.67         19.5644 
        1.25789         111.046         19.3387 
        1.26402         109.831         19.1169 
        1.27014         109.386         18.8992 
        1.27628         109.091         18.6843 
        1.28244         108.731         18.4723 
        1.28858         108.098         18.2639 
        1.29471         107.066         18.0592 
        1.30084         106.946         17.8578 
        1.30697         105.831         17.6593 
        1.31312         105.409         17.4634 
        1.31925         104.672         17.2712 
        1.32537         104.315         17.0821 
        1.33151         103.457         16.8951 
        1.33765         102.946         16.7111 
        1.34378         102.512         16.5301 
        1.34992         102.203         16.3518 
        1.35606         101.658         16.1757 
         1.3622         100.729         16.0025 
        1.36833         100.234         15.8323 
        1.37445          99.799         15.6646 
        1.38059          99.054         15.4989 
        1.38675         98.4698         15.3352 
        1.39288         98.3577         15.1745 
        1.39901         97.7761         15.0163 
        1.40515         96.9709         14.8599 
         1.4113          96.597         14.7058 
        1.41742         95.9974         14.5545 
        1.42355         95.5056         14.4051 
         1.4297         95.1381         14.2573 
        1.43585         94.3875         14.1117 
        1.44198          93.946         13.9687 
        1.44809         93.5744         13.8279 
        1.45423         93.2195         13.6885 
        1.46036         92.6428         13.5514 
        1.46649         91.9638         13.4161 
        1.47263         91.3748         13.2825 
        1.47877         91.1304         13.1508 
        1.48491         90.3917         13.0207 
        1.49104         90.2675         12.8926 
        1.49718         89.7184         12.7662 
        1.50333         89.2516         12.6413 
        1.50947         88.7148         12.5183 
         1.5156         88.3087         12.3971 
        1.52172         87.8018         12.2776 
        1.52787         87.3413         12.1594 
          1.534         86.8115         12.0429 
        1.54013         86.4166          11.928 
        1.54627         86.0978         11.8144 
        1.55241         85.5115         11.7023 
        1.55855         85.0668         11.5918 
        1.56467         84.8379         11.4831 
         1.5708         84.1652         11.3754 
        1.57695         84.0916          11.269 
        1.58308          83.489         11.1642 
        1.58922         83.1862         11.0606 
        1.59535         82.7534         10.9584 
         1.6015         82.2485         10.8574 
        1.60764         81.8457         10.7577 
        1.61376         81.5736         10.6595 
        1.61989         81.0587         10.5625 
        1.62604         80.6822         10.4664 
        1.63218         80.4872         10.3717 
        1.63831         79.6065         10.2783 
        1.64444         79.3477          10.186 
        1.65059         79.0372         10.0947 
        1.65673         78.4582         10.0046 
        1.66285         78.2183         9.91582 
        1.66898         77.9436         9.82811 
        1.67512         77.2732          9.7413 
        1.68127         77.1151         9.65546 
         1.6874         76.4987         9.57085 
        1.69353         76.1569         9.48732 
        1.69967         75.9436         9.40458 
        1.70581         75.5634         9.32287 
        1.71193          75.166         9.24244 
        1.71806         74.8185          9.1628 
        1.72421         74.3631         9.08394 
        1.73035         74.0638          9.0061 
        1.73649         73.7683         8.92919 
        1.74262         73.2535         8.85325 
        1.74876          73.024         8.77813 
        1.75489         72.5325         8.70405 
        1.76101         72.2481         8.63085 
        1.76715         71.7334         8.55839 
        1.77329         71.5379         8.48668 
        1.77943         71.0681         8.41575 
        1.78557         70.9632         8.34575 
        1.79171         70.2899         8.27653 
        1.79785         69.9496         8.20808 
        1.80399         69.7544         8.14043 
        1.81012         69.5118         8.07363 
        1.81625         69.1039         8.00761 
        1.82239         68.7775         7.94224 
        1.82853         68.4988         7.87763 
        1.83466         68.1784          7.8138 
        1.84078         67.6947         7.75075 
        1.84692         67.4874         7.68829 
        1.85306         67.1189         7.62645 
         1.8592         66.8869         7.56539 
        1.86533         66.4689         7.50503 
        1.87147         65.9924         7.44527 
        1.87761         65.8605         7.38613 
        1.88375         65.5395          7.3277 
        1.88988         65.1283         7.26998 
        1.89601         64.8874         7.21284 
        1.90215         64.4085         7.15628 
        1.90829         64.1523         7.10035 
        1.91442         63.9331         7.04501 
        1.92056         63.5602         6.99032 
         1.9267         63.2962         6.93615 
        1.93284         62.9418         6.88253 
        1.93897          62.679         6.82957 
        1.94509         62.4639         6.77729 
        1.95123         62.0881         6.72543 
        1.95737         61.7471         6.67407 
        1.96349         61.4109         6.62339 
        1.96964         61.1594         6.57308 
        1.97578         60.8332         6.52328 
        1.98192         60.8112          6.4741 
        1.98805          60.243         6.42542 
        1.99419         60.0277         6.37724 
        2.00033         59.8235         6.32953 
        2.00647         59.4953         6.28232 
         2.0126         59.1241         6.23568 
        2.01874         58.7745         6.18944 
        2.02488         58.6294         6.14363 
        2.03101         58.3136         6.09837 
        2.03714         57.9621          6.0536 
        2.04328         57.7328         6.00924 
        2.04941         57.5052         5.96536 
        2.05554         57.3207         5.92195 
        2.06167          57.034         5.87891 
        2.06781         56.6067          5.8363 
        2.07396           56.38         5.79405 
        2.08009         56.2235         5.75229 
        2.08622         55.8702         5.71099 
        2.09237         55.6388         5.67002 
        2.09851         55.4939         5.62945 
        2.10464         55.0834         5.58933 
        2.11077         54.8717         5.54966 
        2.11691          54.546         5.51029 
        2.12305          54.349          5.4713 
        2.12918         54.1305         5.43278 
        2.13531         53.7259         5.39463 
        2.14145          53.535         5.35676 
         2.1476         53.2705         5.31921 
        2.15372         53.0879         5.28221 
        2.15985         52.8205         5.24552 
        2.16599         52.5438         5.20908 
        2.17213         52.3772         5.17303 
        2.17827         52.0886         5.13732 
         2.1844         51.7908         5.10199 
        2.19054         51.5552         5.06698 
        2.19666         51.3445         5.03234 
         2.2028         51.2459           4.998 
        2.20893         50.9147         4.96396 
        2.21508         50.7036          4.9302 
        2.22122         50.4852         4.89675 
        2.22736         50.2055         4.86368 
        2.23349         49.9713         4.83092 
        2.23962         49.6784         4.79844 
        2.24577         49.4131         4.76624 
         2.2519         49.2512         4.73438 
        2.25802         49.0886         4.70286 
        2.26417          48.768         4.67154 
        2.27031          48.579         4.64048 
        2.27644         48.3658         4.60979 
        2.28257         48.1208         4.57938 
        2.28872         47.8244         4.54919 
        2.29486         47.6484         4.51928 
        2.30099         47.4525          4.4897 
        2.30712         47.2616         4.46037 
        2.31326          46.969         4.43125 
         2.3194         46.7487         4.40241 
        2.32553          46.537         4.37388 
        2.33166         46.2483         4.34562 
         2.3378         46.0937         4.31756 
        2.34394         45.8864         4.28974 
        2.35007         45.6925         4.26221 
        2.35619          45.463         4.23496 
        2.36233         45.2652         4.20788 
        2.36848         45.1116         4.18098 
        2.37462         44.8296         4.15437 
        2.38075         44.7193         4.12802 
        2.38689         44.4923         4.10188 
        2.39303         44.2304         4.07596 
        2.39916         44.0165          4.0503 
        2.40529         43.9121         4.02487 
        2.41143         43.7051         3.99963 
        2.41757         43.4739          3.9746 
         2.4237         43.2653         3.94983 
        2.42983         43.0451         3.92528 
        2.43598         42.8865         3.90086 
        2.44211          42.695          3.8767 
        2.44823         42.4994          3.8528 
        2.45437         42.2667         3.82903 
        2.46052         42.0955         3.80544 
        2.46665         41.9447          3.7821 
        2.47279         41.6519         3.75896 
        2.47892         41.5369           3.736 
        2.48507         41.3196         3.71321 
         2.4912         41.1961         3.69065 
