# k  (h/Mpc)    Pcb(k)  (Mpc/h)^3    Pcb_linear(k)  (Mpc/h)^3
     0.00783031         184.916         186.788 
       0.013688         214.559         215.478 
       0.019231          204.16         204.302 
      0.0249154         176.352         176.703 
      0.0312784         143.496         143.243 
      0.0375637         117.011         116.628 
      0.0433917          99.927         99.7483 
      0.0492413         89.2122         89.0491 
      0.0555754         81.5648         81.6487 
      0.0619321         75.6706         75.5553 
       0.067871         69.1203          69.221 
      0.0738098          61.714         61.7961 
      0.0800417         53.4145         53.4895 
      0.0862327          45.903         45.8643 
      0.0921407         40.0843         40.0141 
      0.0982031         35.7826         35.7568 
       0.104506         33.0692         32.9638 
       0.110769          31.284         31.2319 
       0.116806         29.8463         29.8825 
       0.122832         28.3425          28.336 
       0.129052         26.2524         26.2955 
       0.135211         23.8865         23.9197 
       0.141259         21.5586         21.5323 
       0.147318         19.4617         19.3934 
       0.153489          17.719         17.6741 
       0.159709         16.4867         16.4475 
       0.165845         15.7099         15.6321 
       0.171974         15.0382          15.031 
       0.178125         14.4743         14.4583 
       0.184229         13.8235         13.7939 
        0.19034         12.9838         12.9961 
       0.196428         12.1341         12.1138 
       0.202534          11.297         11.2304 
       0.208729         10.4656         10.4252 
       0.214876         9.79101         9.76995 
       0.220989          9.3199          9.2659 
       0.227147         8.89154         8.87418 
        0.23329         8.56065         8.54665 
       0.239377         8.25011         8.23307 
       0.245482         7.89804         7.89532 
       0.251667         7.55045         7.52066 
       0.257832          7.1478         7.12816 
       0.263955         6.77293         6.74461 
       0.270079         6.42401         6.39202 
        0.27624         6.13102         6.08326 
       0.282372         5.87062          5.8236 
        0.28843         5.63548         5.60477 
       0.294538         5.43614         5.40702 
       0.300721         5.25877         5.21551 
        0.30691         5.04835         5.02177 
       0.313033         4.85321         4.82542 
       0.319153          4.6344         4.62725 
       0.325316         4.47281         4.43275 
        0.33145         4.28658         4.25071 
       0.337538         4.12019         4.08588 
       0.343633         3.96328         3.93728 
       0.349808         3.83404         3.80113 
       0.355968         3.70981         3.67556 
       0.362074         3.58576         3.55661 
       0.368217         3.46877         3.43967 
       0.374374         3.34447         3.32364 
       0.380519         3.23866         3.20961 
       0.386598          3.1332          3.1002 
       0.392688          3.0339         2.99551 
        0.39888         2.92895         2.89554 
       0.405048         2.83683          2.8027 
       0.411186         2.75129         2.71626 
       0.417313         2.66561          2.6349 
       0.423458         2.59157         2.55691 
       0.429607         2.50986         2.48134 
       0.435692         2.43723         2.40861 
       0.441815         2.36609         2.33744 
       0.447964         2.30374         2.26818 
       0.454126         2.22941         2.20146 
       0.460267         2.16636         2.13804 
       0.466387          2.1027         2.07789 
        0.47254         2.04699         2.02026 
       0.478662         1.99486         1.96551 
       0.484765         1.93772         1.91315 
       0.490885         1.88949         1.86247 
       0.497035         1.84709          1.8131 
       0.503198         1.79428         1.76518 
       0.509342         1.75061         1.71899 
       0.515458         1.70262         1.67461 
       0.521598            1.66         1.63168 
       0.527764         1.61437         1.59019 
       0.533884         1.58129         1.55061 
           0.54         1.54113         1.51257 
       0.546137         1.50516         1.47576 
       0.552299          1.4688         1.44002 
       0.558452         1.43098         1.40546 
       0.564573         1.40033         1.37215 
       0.570708         1.36746         1.33982 
       0.576825         1.33394         1.30862 
       0.582926         1.30717         1.27852 
       0.589034         1.27171         1.24934 
       0.595184         1.24457         1.22092 
       0.601379         1.21668         1.19322 
       0.607522         1.19284         1.16663 
       0.613639         1.16967         1.14099 
       0.619772         1.13976         1.11608 
       0.625918         1.11751         1.09185 
       0.632068         1.09561         1.06833 
       0.638161         1.07054          1.0457 
         0.6443         1.04809         1.02356 
       0.650464         1.02398         1.00198 
       0.656582         1.00532        0.981196 
       0.662703        0.985323        0.961009 
       0.668861        0.968203        0.941291 
       0.675024        0.946491        0.922123 
       0.681124        0.925882        0.903691 
       0.687237        0.910258        0.885732 
       0.693381        0.892893         0.86818 
       0.699536        0.871497        0.851073 
       0.705665        0.855788        0.834503 
       0.711789        0.841499        0.818392 
       0.717957        0.823736        0.802599 
        0.72409        0.808586        0.787315 
       0.730186        0.793144        0.772527 
       0.736317        0.781913        0.758043 
       0.742472        0.766625        0.743883 
       0.748622        0.751494        0.730103 
        0.75476        0.736763        0.716705 
       0.760888          0.7232        0.703667 
       0.767043        0.714386        0.690905 
       0.773185        0.699157        0.678488 
       0.779291        0.687024         0.66645 
       0.785407        0.675286        0.654688 
       0.791564        0.664299        0.643139 
       0.797719        0.653573        0.631877 
       0.803834        0.642838        0.620958 
       0.809972        0.631149         0.61026 
       0.816124        0.620028        0.599793 
       0.822261        0.608723        0.589602 
       0.828378        0.599928         0.57968 
       0.834502        0.591253        0.569981 
       0.840667        0.579507        0.560442 
       0.846816         0.57037        0.551151 
       0.852925        0.563053        0.542131 
       0.859047        0.553912        0.533295 
       0.865192         0.54386         0.52463 
       0.871341        0.535288        0.516153 
       0.877463        0.528444        0.507903 
       0.883569        0.519009        0.499856 
       0.889708        0.511345        0.491943 
       0.895864        0.503097        0.484183 
       0.902008        0.495051        0.476609 
       0.908149        0.487562        0.469202 
       0.914301        0.478457        0.461942 
       0.920448        0.472213        0.454844 
       0.926574        0.464863        0.447921 
       0.932687        0.457684        0.441158 
       0.938823        0.452703        0.434511 
       0.944975        0.445782        0.427988 
       0.951105        0.439433        0.421623 
       0.957225        0.434138        0.415399 
       0.963368        0.427204        0.409281 
       0.969511        0.420383        0.403287 
       0.975621        0.414059        0.397446 
       0.981748        0.409809        0.391706 
       0.987916        0.403332        0.386045 
        0.99406        0.397362        0.380518 
        1.00019        0.392883         0.37511 
        1.00632        0.385995        0.369813 
        1.01246        0.380673        0.364612 
        1.01859        0.376262        0.359519 
        1.02471        0.370924         0.35453 
        1.03085        0.366958         0.34962 
        1.03698        0.361125        0.344814 
        1.04314        0.356592        0.340078 
        1.04929         0.35134        0.335443 
        1.05541        0.347335        0.330914 
        1.06154         0.34226        0.326457 
        1.06769        0.337469        0.322076 
        1.07382        0.333305        0.317791 
        1.07993        0.328704        0.313594 
        1.08607        0.325691        0.309455 
        1.09222        0.320687        0.305388 
        1.09836        0.317711        0.301399 
        1.10449        0.313568        0.297486 
        1.11063        0.308646        0.293639 
        1.11677        0.304381        0.289862 
         1.1229        0.301221        0.286158 
        1.12903         0.29711        0.282517 
        1.13518        0.294035        0.278936 
        1.14131        0.290071        0.275419 
        1.14745        0.285498        0.271966 
        1.15359        0.282882        0.268572 
        1.15973        0.278686        0.265234 
        1.16584        0.276521        0.261969 
        1.17197        0.272938        0.258754 
        1.17811        0.270168        0.255584 
        1.18424        0.267276        0.252476 
        1.19038        0.263423        0.249412 
        1.19652        0.259779        0.246399 
        1.20267        0.257742        0.243437 
        1.20881        0.254281        0.240525 
        1.21495        0.252002        0.237665 
        1.22108        0.248741        0.234852 
         1.2272        0.246289        0.232091 
        1.23334        0.242962        0.229369 
        1.23949        0.240391        0.226684 
        1.24562        0.237677         0.22405 
        1.25174         0.23528        0.221462 
        1.25789        0.232887        0.218907 
        1.26402        0.229434        0.216397 
        1.27014        0.227222        0.213933 
        1.27628        0.225198          0.2115 
        1.28244        0.221847          0.2091 
        1.28858        0.219928        0.206741 
        1.29471        0.218124        0.204424 
        1.30084        0.215215        0.202145 
        1.30697        0.212838        0.199897 
        1.31312        0.209959         0.19768 
        1.31925        0.208069        0.195504 
        1.32537        0.206177        0.193363 
        1.33151        0.204313        0.191247 
        1.33765        0.202159        0.189163 
        1.34378        0.199473        0.187115 
        1.34992        0.197523        0.185096 
        1.35606        0.195565        0.183103 
         1.3622        0.193671        0.181143 
        1.36833        0.191436        0.179216 
        1.37445        0.189012        0.177318 
        1.38059        0.187361        0.175442 
        1.38675        0.186196        0.173589 
        1.39288        0.184018        0.171771 
        1.39901        0.182105        0.169979 
        1.40515        0.180542        0.168209 
         1.4113        0.178246        0.166465 
        1.41742        0.176574        0.164752 
        1.42355         0.17525        0.163061 
         1.4297        0.173038        0.161388 
        1.43585         0.17152        0.159739 
        1.44198        0.170236         0.15812 
        1.44809        0.168193        0.156527 
        1.45423        0.166667         0.15495 
        1.46036        0.165004        0.153397 
        1.46649        0.163819        0.151865 
        1.47263        0.161978        0.150353 
        1.47877        0.160127        0.148863 
        1.48491        0.158894         0.14739 
        1.49104        0.157018         0.14594 
        1.49718        0.155634        0.144509 
        1.50333        0.154547        0.143095 
        1.50947        0.152903        0.141703 
         1.5156        0.151403        0.140331 
        1.52172         0.15009        0.138978 
        1.52787        0.148679         0.13764 
          1.534        0.147152        0.136321 
        1.54013        0.145812        0.135021 
        1.54627        0.144792        0.133735 
        1.55241        0.143172        0.132466 
        1.55855        0.141799        0.131216 
        1.56467         0.14109        0.129985 
         1.5708        0.139488        0.128766 
        1.57695        0.138275        0.127561 
        1.58308        0.136926        0.126375 
        1.58922        0.135832        0.125203 
        1.59535        0.134595        0.124046 
         1.6015        0.133319        0.122902 
        1.60764        0.132204        0.121774 
        1.61376        0.130804        0.120662 
        1.61989        0.129855        0.119564 
        1.62604        0.128872        0.118477 
        1.63218        0.127731        0.117404 
        1.63831        0.126718        0.116347 
        1.64444        0.125551        0.115303 
        1.65059        0.124426        0.114269 
        1.65673        0.123478        0.113249 
        1.66285         0.12258        0.112244 
        1.66898        0.121497        0.111251 
        1.67512        0.120203        0.110268 
        1.68127        0.119169        0.109297 
         1.6874         0.11849        0.108339 
        1.69353        0.117084        0.107393 
        1.69967        0.116573        0.106457 
        1.70581        0.115226        0.105532 
        1.71193        0.114412        0.104622 
        1.71806        0.113314         0.10372 
        1.72421        0.112732        0.102827 
        1.73035        0.111571        0.101946 
        1.73649        0.110866        0.101076 
        1.74262        0.109893        0.100216 
        1.74876        0.108947       0.0993657 
        1.75489         0.10819       0.0985272 
        1.76101        0.107157       0.0976985 
        1.76715         0.10632       0.0968783 
        1.77329        0.105364       0.0960665 
        1.77943        0.104578       0.0952637 
        1.78557        0.103938       0.0944713 
        1.79171        0.103146       0.0936878 
        1.79785        0.102276        0.092913 
        1.80399        0.101447       0.0921472 
        1.81012        0.100682        0.091391 
        1.81625       0.0998793       0.0906437 
        1.82239       0.0991293       0.0899037 
        1.82853       0.0982483       0.0891723 
        1.83466       0.0975593       0.0884498 
        1.84078       0.0968159       0.0877361 
        1.84692        0.095967       0.0870291 
        1.85306       0.0954853       0.0863291 
         1.8592       0.0945349       0.0856379 
        1.86533       0.0940085       0.0849547 
        1.87147       0.0932024       0.0842782 
        1.87761       0.0926349       0.0836088 
        1.88375       0.0918294       0.0829474 
        1.88988       0.0911387        0.082294 
        1.89601         0.09043       0.0816472 
        1.90215       0.0898116       0.0810069 
        1.90829       0.0890002       0.0803738 
        1.91442       0.0886206       0.0797474 
        1.92056       0.0878382       0.0791283 
         1.9267        0.087116       0.0785152 
        1.93284       0.0864985       0.0779082 
        1.93897       0.0858658       0.0773088 
        1.94509       0.0853908        0.076717 
        1.95123        0.084698       0.0761299 
        1.95737       0.0841405       0.0755486 
        1.96349       0.0834407       0.0749748 
        1.96964       0.0827767       0.0744054 
        1.97578        0.082213       0.0738417 
        1.98192       0.0817104       0.0732849 
        1.98805       0.0812247       0.0727339 
        1.99419       0.0804522       0.0721885 
        2.00033       0.0798707       0.0716484 
        2.00647       0.0795357       0.0711141 
         2.0126       0.0787661       0.0705861 
        2.01874       0.0783798       0.0700627 
        2.02488       0.0778357       0.0695441 
        2.03101       0.0772699       0.0690318 
        2.03714         0.07664       0.0685251 
        2.04328       0.0762617       0.0680229 
        2.04941       0.0755628       0.0675262 
        2.05554       0.0751687       0.0670348 
        2.06167       0.0747849       0.0665477 
        2.06781       0.0740928       0.0660653 
        2.07396       0.0736312        0.065587 
        2.08009       0.0731445       0.0651144 
        2.08622       0.0726897       0.0646469 
        2.09237       0.0721807       0.0641831 
        2.09851       0.0717273       0.0637238 
        2.10464       0.0712814       0.0632697 
        2.11077       0.0707515       0.0628207 
        2.11691       0.0703036        0.062375 
        2.12305       0.0698193       0.0619336 
        2.12918       0.0694496       0.0614976 
        2.13531       0.0688271       0.0610658 
        2.14145       0.0683311       0.0606371 
         2.1476       0.0680011        0.060212 
        2.15372       0.0676722       0.0597932 
        2.15985       0.0671168       0.0593779 
        2.16599       0.0666611       0.0589654 
        2.17213       0.0662806       0.0585573 
        2.17827       0.0657644       0.0581531 
         2.1844       0.0654685       0.0577532 
        2.19054       0.0650009       0.0573568 
        2.19666       0.0645395       0.0569648 
         2.2028       0.0641512        0.056576 
        2.20893       0.0638799       0.0561907 
        2.21508       0.0633316       0.0558086 
        2.22122       0.0628497       0.0554299 
        2.22736       0.0626466       0.0550555 
        2.23349        0.062179       0.0546847 
        2.23962       0.0619031       0.0543171 
        2.24577       0.0613974       0.0539526 
         2.2519       0.0610492       0.0535919 
        2.25802        0.060643       0.0532351 
        2.26417       0.0602892       0.0528806 
        2.27031       0.0598855        0.052529 
        2.27644       0.0595091       0.0521816 
        2.28257       0.0591663       0.0518374 
        2.28872       0.0588043       0.0514957 
        2.29486        0.058591       0.0511571 
        2.30099        0.058077       0.0508222 
        2.30712       0.0577363       0.0504902 
        2.31326       0.0573363       0.0501607 
         2.3194        0.057181       0.0498342 
        2.32553       0.0567497       0.0495113 
        2.33166       0.0565285       0.0491913 
         2.3378       0.0561408       0.0488737 
        2.34394       0.0557359       0.0485589 
        2.35007       0.0554076       0.0482472 
        2.35619       0.0549914       0.0479387 
        2.36233        0.054766       0.0476321 
        2.36848       0.0545766       0.0473276 
        2.37462       0.0541029       0.0470265 
        2.38075       0.0538754       0.0467282 
        2.38689        0.053554       0.0464323 
        2.39303       0.0532983       0.0461389 
        2.39916       0.0528727       0.0458485 
        2.40529       0.0526203       0.0455605 
        2.41143       0.0522637       0.0452749 
        2.41757       0.0520112       0.0449915 
         2.4237       0.0517678       0.0447112 
        2.42983        0.051457       0.0444332 
        2.43598       0.0512313       0.0441569 
        2.44211       0.0508396       0.0438834 
        2.44823       0.0506124       0.0436128 
        2.45437       0.0502835       0.0433437 
        2.46052       0.0500399       0.0430768 
        2.46665       0.0496921       0.0428125 
        2.47279       0.0494245       0.0425506 
        2.47892       0.0490635       0.0422906 
        2.48507       0.0488379       0.0420326 
         2.4912       0.0486029       0.0417773 
