# k  (h/Mpc)    P(k)  (Mpc/h)^3    P_linear(k)  (Mpc/h)^3
     0.00783031         1518.93         1537.12 
       0.013688         1827.14         1829.74 
       0.019231         1798.02         1797.88 
      0.0249154         1601.22         1611.06 
      0.0312784         1344.62         1345.37 
      0.0375637         1111.07         1107.09 
      0.0433917         938.426         939.013 
      0.0492413         824.896         823.131 
      0.0555754         739.861         742.944 
      0.0619321         692.471         688.647 
       0.067871         641.739         643.946 
      0.0738098         591.736         594.193 
      0.0800417         529.782         533.346 
      0.0862327         467.378         468.241 
      0.0921407         409.807         408.861 
      0.0982031         357.074         357.122 
       0.104506         320.018         316.715 
       0.110769         292.531         289.801 
       0.116806         274.242         273.367 
       0.122832         263.865         262.059 
       0.129052         251.206         251.318 
       0.135211         238.172          238.39 
       0.141259         223.439         222.323 
       0.147318         205.798         203.698 
       0.153489          185.85         184.209 
       0.159709         168.625         166.352 
       0.165845         155.739         152.063 
       0.171974         144.006         141.584 
       0.178125         137.116         134.396 
       0.184229         132.231         129.443 
        0.19034         126.425         125.318 
       0.196428         122.924         120.872 
       0.202534         118.395         115.392 
       0.208729          111.13         108.718 
       0.214876         103.442         101.445 
       0.220989         97.3739         94.2808 
       0.227147         90.2196         87.8018 
        0.23329          85.048         82.4821 
       0.239377         81.3795         78.4138 
       0.245482         77.4093         75.3328 
       0.251667         75.6595         72.8441 
       0.257832         73.1809         70.5579 
       0.263955         70.6909         68.1392 
       0.270079         67.9104         65.3969 
        0.27624         65.4535         62.3277 
       0.282372         62.3332         59.1327 
        0.28843         59.0067         56.0529 
       0.294538         56.1686         53.2276 
       0.300721          54.227         50.7677 
        0.30691         51.7404         48.7277 
       0.313033         50.0576         47.0479 
       0.319153         47.9186         45.5802 
       0.325316         47.2046         44.1766 
        0.33145         45.5034          42.752 
       0.337538         44.1443         41.2559 
       0.343633         42.4011         39.6892 
       0.349808         40.9611         38.0782 
       0.355968         39.4989         36.5216 
       0.362074         38.0063         35.0865 
       0.368217         36.7254         33.7898 
       0.374374           35.46         32.6413 
       0.380519         34.5476         31.6201 
       0.386598         33.6139         30.6957 
       0.392688         32.8528         29.8097 
        0.39888         31.8314         28.9167 
       0.405048          30.998         28.0197 
       0.411186         30.1355         27.1165 
       0.417313         29.0787          26.223 
       0.423458         28.2448         25.3548 
       0.429607         27.3808          24.531 
       0.435692         26.5171          23.774 
       0.441815         25.9257          23.072 
       0.447964         25.4205         22.4175 
       0.454126         24.4648         21.8018 
       0.460267         23.9827         21.2146 
       0.466387         23.2398         20.6426 
        0.47254         22.8129         20.0741 
       0.478662         22.3535         19.5169 
       0.484765         21.6386          18.972 
       0.490885         21.1032         18.4409 
       0.497035         20.7859         17.9287 
       0.503198         20.1926         17.4425 
       0.509342         19.6709         16.9841 
       0.515458         19.1999         16.5508 
       0.521598         18.8242         16.1356 
       0.527764         18.3733         15.7349 
       0.533884         18.0499         15.3495 
           0.54         17.6212         14.9731 
       0.546137         17.2906          14.603 
       0.552299         16.9589         14.2407 
       0.558452         16.4294           13.89 
       0.564573         16.1743         13.5535 
       0.570708         15.8532         13.2286 
       0.576825         15.4391         12.9171 
       0.582926         15.1456         12.6186 
       0.589034         14.7253         12.3313 
       0.595184         14.5077         12.0521 
       0.601379         14.1876         11.7796 
       0.607522         13.9572         11.5164 
       0.613639         13.7682         11.2608 
       0.619772         13.3891         11.0111 
       0.625918         13.2738         10.7681 
       0.632068         13.0507         10.5325 
       0.638161         12.7261         10.3066 
         0.6443         12.4612         10.0863 
       0.650464         12.2073         9.87211 
       0.656582         12.1075         9.66595 
       0.662703         11.8701         9.46576 
       0.668861         11.6377         9.27013 
       0.675024          11.405         9.07987 
       0.681124         11.2024         8.89682 
       0.687237         11.0187         8.71837 
       0.693381         10.8729         8.54386 
       0.699536         10.5743         8.37369 
       0.705665           10.47         8.20881 
       0.711789         10.2713          8.0485 
       0.717957         10.0978          7.8914 
        0.72409         9.92773         7.73944 
       0.730186         9.78789         7.59251 
       0.736317         9.67017         7.44872 
       0.742472         9.50903         7.30822 
       0.748622         9.35866         7.17153 
        0.75476         9.16671         7.03866 
       0.760888         9.03724         6.90936 
       0.767043         8.92158         6.78278 
       0.773185         8.73943          6.6596 
       0.779291          8.6694         6.54016 
       0.785407         8.53424         6.42345 
       0.791564         8.39348         6.30886 
       0.797719         8.22732         6.19712 
       0.803834         8.17926          6.0888 
       0.809972         8.08485         5.98269 
       0.816124         7.90791          5.8789 
       0.822261         7.78422         5.77787 
       0.828378         7.69014         5.67954 
       0.834502         7.62263         5.58342 
       0.840667         7.47908         5.48892 
       0.846816         7.34459         5.39688 
       0.852925         7.27721         5.30754 
       0.859047         7.18009         5.22004 
       0.865192          7.1095         5.13424 
       0.871341         7.02969         5.05031 
       0.877463            6.91         4.96865 
       0.883569         6.79973           4.889 
       0.889708         6.68661          4.8107 
       0.895864         6.61799         4.73392 
       0.902008         6.54985         4.65897 
       0.908149         6.47685          4.5857 
       0.914301         6.38257         4.51389 
       0.920448         6.28475         4.44369 
       0.926574         6.20409         4.37522 
       0.932687          6.1372         4.30835 
       0.938823         6.05456         4.24264 
       0.944975         5.97531         4.17815 
       0.951105         5.91253         4.11524 
       0.957225         5.87996         4.05373 
       0.963368         5.79732         3.99328 
       0.969511         5.72318         3.93405 
       0.975621         5.64801         3.87635 
       0.981748          5.5846         3.81966 
       0.987916         5.53007         3.76375 
        0.99406         5.43721         3.70917 
        1.00019         5.36046         3.65579 
        1.00632         5.33557          3.6035 
        1.01246         5.26998         3.55216 
        1.01859          5.1937         3.50191 
        1.02471         5.14749         3.45269 
        1.03085          5.0858         3.40425 
        1.03698         5.01588         3.35684 
        1.04314          4.9761         3.31013 
        1.04929         4.91313         3.26442 
        1.05541         4.85385         3.21976 
        1.06154         4.81215         3.17583 
        1.06769         4.78448         3.13265 
        1.07382         4.70388         3.09041 
        1.07993         4.65074         3.04905 
        1.08607         4.62266         3.00828 
        1.09222         4.56795         2.96821 
        1.09836         4.51902         2.92892 
        1.10449         4.47411         2.89039 
        1.11063         4.42105         2.85251 
        1.11677         4.38943         2.81532 
         1.1229         4.34782         2.77886 
        1.12903         4.29164         2.74302 
        1.13518         4.24586         2.70777 
        1.14131         4.19687         2.67317 
        1.14745         4.14586         2.63919 
        1.15359         4.12186          2.6058 
        1.15973         4.07259         2.57297 
        1.16584         4.02813         2.54085 
        1.17197         3.99188         2.50924 
        1.17811         3.96824         2.47807 
        1.18424         3.92692         2.44751 
        1.19038         3.90113         2.41739 
        1.19652         3.85538         2.38778 
        1.20267         3.81432         2.35867 
        1.20881         3.78861         2.33005 
        1.21495         3.75252         2.30196 
        1.22108         3.71215         2.27433 
         1.2272         3.68675         2.24721 
        1.23334         3.63847         2.22048 
        1.23949         3.60389         2.19412 
        1.24562         3.58272         2.16826 
        1.25174         3.54221         2.14286 
        1.25789         3.51704         2.11778 
        1.26402         3.48631         2.09316 
        1.27014         3.45303         2.06898 
        1.27628          3.4243         2.04511 
        1.28244         3.38207         2.02157 
        1.28858          3.3701         1.99844 
        1.29471         3.32705         1.97571 
        1.30084         3.29535         1.95336 
        1.30697         3.29138         1.93133 
        1.31312          3.2303          1.9096 
        1.31925         3.21209         1.88827 
        1.32537         3.18384         1.86729 
        1.33151         3.16997         1.84655 
        1.33765         3.12779         1.82614 
        1.34378         3.10804         1.80608 
        1.34992         3.09091          1.7863 
        1.35606          3.0466         1.76678 
         1.3622          3.0347         1.74759 
        1.36833         3.00678         1.72872 
        1.37445         2.98147         1.71015 
        1.38059         2.97016         1.69179 
        1.38675         2.94612         1.67365 
        1.39288         2.91886         1.65586 
        1.39901         2.88485         1.63833 
        1.40515          2.8657         1.62101 
         1.4113         2.84558         1.60395 
        1.41742         2.82444          1.5872 
        1.42355         2.80085         1.57066 
         1.4297         2.77706         1.55431 
        1.43585         2.76349         1.53819 
        1.44198         2.74598         1.52236 
        1.44809         2.71639         1.50679 
        1.45423          2.6942         1.49138 
        1.46036         2.66958         1.47621 
        1.46649          2.6532         1.46124 
        1.47263         2.63016         1.44647 
        1.47877         2.60849         1.43191 
        1.48491          2.5906         1.41753 
        1.49104         2.57533         1.40337 
        1.49718         2.55578          1.3894 
        1.50333         2.53907         1.37559 
        1.50947         2.51722           1.362 
         1.5156         2.49886         1.34862 
        1.52172         2.48198         1.33541 
        1.52787         2.46531         1.32235 
          1.534         2.44304         1.30949 
        1.54013         2.42971          1.2968 
        1.54627         2.40725         1.28427 
        1.55241         2.38898         1.27189 
        1.55855         2.37762          1.2597 
        1.56467         2.36163          1.2477 
         1.5708         2.34156         1.23582 
        1.57695         2.32369         1.22408 
        1.58308         2.30482         1.21251 
        1.58922         2.29636         1.20109 
        1.59535         2.27968         1.18982 
         1.6015         2.26104         1.17868 
        1.60764         2.24756         1.16769 
        1.61376         2.23422         1.15686 
        1.61989         2.21627         1.14617 
        1.62604         2.19984         1.13558 
        1.63218         2.19363         1.12514 
        1.63831         2.17183         1.11485 
        1.64444          2.1582         1.10468 
        1.65059         2.14262         1.09462 
        1.65673         2.13258         1.08469 
        1.66285         2.11391         1.07492 
        1.66898         2.10272         1.06526 
        1.67512          2.0842          1.0557 
        1.68127         2.07228         1.04625 
         1.6874          2.0663         1.03693 
        1.69353         2.04063         1.02774 
        1.69967         2.03145         1.01863 
        1.70581         2.02436         1.00964 
        1.71193         2.00702         1.00079 
        1.71806         1.99795        0.992027 
        1.72421         1.98426        0.983351 
        1.73035          1.9722        0.974789 
        1.73649         1.95825         0.96633 
        1.74262         1.94549        0.957978 
        1.74876         1.93775        0.949719 
        1.75489         1.92096        0.941574 
        1.76101         1.90666        0.933527 
        1.76715         1.89974        0.925563 
        1.77329          1.8902        0.917681 
        1.77943         1.87081        0.909888 
        1.78557         1.86275        0.902197 
        1.79171         1.85573        0.894593 
        1.79785          1.8396        0.887075 
        1.80399         1.82976        0.879645 
        1.81012         1.82057        0.872309 
        1.81625          1.8094        0.865061 
        1.82239         1.79626        0.857883 
        1.82853         1.78208        0.850791 
        1.83466         1.77744        0.843785 
        1.84078         1.76704        0.836865 
        1.84692         1.75824        0.830011 
        1.85306         1.74338        0.823226 
         1.8592         1.73243        0.816527 
        1.86533           1.723        0.809906 
        1.87147         1.71652         0.80335 
        1.87761         1.70431        0.796864 
        1.88375         1.69359        0.790457 
        1.88988         1.68603        0.784127 
        1.89601         1.67436        0.777863 
        1.90215         1.66135        0.771662 
        1.90829         1.65138        0.765532 
        1.91442         1.64743        0.759468 
        1.92056         1.63528        0.753474 
         1.9267         1.62668        0.747539 
        1.93284         1.62205        0.741664 
        1.93897         1.61114        0.735863 
        1.94509         1.60004        0.730137 
        1.95123         1.58989        0.724457 
        1.95737         1.58034        0.718832 
        1.96349          1.5746        0.713282 
        1.96964         1.56785        0.707775 
        1.97578         1.55462        0.702322 
        1.98192         1.54846        0.696938 
        1.98805         1.53992         0.69161 
        1.99419         1.53369        0.686337 
        2.00033         1.52722        0.681116 
        2.00647         1.51491        0.675951 
         2.0126          1.5098        0.670848 
        2.01874         1.49726        0.665789 
        2.02488          1.4929        0.660778 
        2.03101         1.48001        0.655828 
        2.03714         1.47392        0.650933 
        2.04328         1.46787        0.646082 
        2.04941         1.45631        0.641285 
        2.05554         1.45201         0.63654 
        2.06167         1.44414        0.631836 
        2.06781         1.43856        0.627178 
        2.07396         1.43052        0.622562 
        2.08009         1.42281        0.617999 
        2.08622         1.41436        0.613487 
        2.09237         1.40699        0.609011 
        2.09851         1.40002        0.604579 
        2.10464         1.39694        0.600198 
        2.11077         1.38633        0.595866 
        2.11691          1.3791        0.591567 
        2.12305         1.37385        0.587309 
        2.12918         1.36712        0.583104 
        2.13531         1.35942         0.57894 
        2.14145         1.35233        0.574806 
         2.1476         1.34356        0.570708 
        2.15372         1.33787         0.56667 
        2.15985         1.33099        0.562668 
        2.16599         1.32587        0.558692 
        2.17213          1.3154        0.554759 
        2.17827         1.31237        0.550864 
         2.1844         1.30648         0.54701 
        2.19054         1.30096        0.543192 
        2.19666         1.29319        0.539416 
         2.2028         1.28653        0.535671 
        2.20893         1.28139        0.531961 
        2.21508         1.27551        0.528281 
        2.22122         1.26601        0.524635 
        2.22736         1.26136        0.521031 
        2.23349         1.25793        0.517461 
        2.23962         1.24874        0.513923 
        2.24577         1.24528        0.510415 
         2.2519         1.23809        0.506944 
        2.25802          1.2337        0.503511 
        2.26417         1.22767          0.5001 
        2.27031         1.22195        0.496717 
        2.27644         1.21585        0.493376 
        2.28257         1.20911        0.490065 
        2.28872         1.20505        0.486778 
        2.29486         1.19745        0.483522 
        2.30099         1.19216        0.480302 
        2.30712         1.18605         0.47711 
        2.31326         1.18313        0.473941 
         2.3194         1.17784        0.470803 
        2.32553           1.173        0.467699 
        2.33166         1.16512        0.464624 
         2.3378            1.16        0.461572 
        2.34394         1.15401        0.458546 
        2.35007         1.14953        0.455552 
        2.35619         1.14636        0.452588 
        2.36233         1.13851        0.449644 
        2.36848         1.13443        0.446719 
        2.37462         1.13037        0.443827 
        2.38075         1.12464        0.440962 
        2.38689         1.12075        0.438121 
        2.39303         1.11399        0.435305 
        2.39916          1.1099        0.432517 
        2.40529         1.10509        0.429753 
        2.41143         1.09907        0.427011 
        2.41757         1.09525        0.424292 
         2.4237         1.09258        0.421601 
        2.42983         1.08492        0.418934 
        2.43598         1.08265        0.416283 
        2.44211         1.07724        0.413659 
        2.44823         1.07199        0.411064 
        2.45437         1.06776        0.408484 
        2.46052         1.06457        0.405923 
        2.46665         1.05875        0.403389 
        2.47279         1.05375        0.400877 
        2.47892         1.04924        0.398385 
        2.48507         1.04615        0.395912 
         2.4912          1.0395        0.393464 
