# k  (h/Mpc)    Pcb(k)  (Mpc/h)^3    Pcb_linear(k)  (Mpc/h)^3
     0.00783031         14802.7         15007.7 
       0.013688         16047.7         15915.7 
       0.019231         14063.8           13997 
      0.0249154         10984.8         11129.5 
      0.0312784         8134.67         8136.23 
      0.0375637         6075.45         5998.05 
      0.0433917         4786.83         4781.71 
      0.0492413         4156.16         4121.83 
      0.0555754         3734.67         3781.49 
      0.0619321         3628.04         3577.16 
       0.067871         3306.58         3341.46 
      0.0738098         2971.28         2993.64 
      0.0800417         2514.08         2535.68 
      0.0862327         2094.86         2073.72 
      0.0921407         1766.39         1704.46 
      0.0982031         1486.55         1437.86 
       0.104506         1361.92          1279.7 
       0.110769         1277.97         1211.94 
       0.116806         1238.49         1189.45 
       0.122832         1210.79         1168.16 
       0.129052         1132.57         1116.39 
       0.135211         1049.34          1025.6 
       0.141259         958.967         909.911 
       0.147318          854.89         790.239 
       0.153489         749.137         685.894 
       0.159709         684.546         610.645 
       0.165845         644.797         566.685 
       0.171974         614.221         545.718 
       0.178125         597.165         536.439 
       0.184229         579.519         527.201 
        0.19034         545.978         509.324 
       0.196428          527.14         479.961 
       0.202534         499.248         441.672 
       0.208729         459.798         400.133 
       0.214876         426.006         362.778 
       0.220989         401.181          333.64 
       0.227147         380.978         313.497 
        0.23329         364.442         301.104 
       0.239377         356.992         293.347 
       0.245482         333.837         286.562 
       0.251667         331.262          277.79 
       0.257832         318.153         265.793 
       0.263955         304.159         250.981 
       0.270079         287.829         234.822 
        0.27624         280.118         219.191 
       0.282372         268.607         205.753 
        0.28843         257.502         195.295 
       0.294538         244.567         187.407 
       0.300721         241.428         181.376 
        0.30691         230.593         176.203 
       0.313033         225.191         170.962 
       0.319153         216.145         164.991 
       0.325316          210.49         158.139 
        0.33145         201.958         150.787 
       0.337538          197.62         143.512 
       0.343633         189.825         136.743 
       0.349808         182.699          130.78 
       0.355968         179.435         125.772 
       0.362074         175.302         121.621 
       0.368217         170.002         117.942 
       0.374374         163.067         114.437 
       0.380519         160.767         110.891 
       0.386598         156.385         107.193 
       0.392688         153.337         103.358 
        0.39888         149.306         99.4369 
       0.405048         144.901         95.6614 
       0.411186         141.601         92.1857 
       0.417313         138.244         89.0497 
       0.423458         134.831         86.2227 
       0.429607         131.987         83.6614 
       0.435692          127.58         81.2885 
       0.441815         126.138         78.9627 
       0.447964         123.331          76.646 
       0.454126         118.526         74.3248 
       0.460267          116.66         72.0169 
       0.466387         114.861         69.7685 
        0.47254         111.908         67.6107 
       0.478662          111.36         65.5895 
       0.484765         107.243         63.7015 
       0.490885         105.506         61.9327 
       0.497035         103.771         60.2604 
       0.503198         101.092         58.6561 
       0.509342         99.5618         57.0983 
       0.515458         97.8071         55.5764 
       0.521598         95.6206         54.0818 
       0.527764         94.5726         52.6182 
       0.533884         93.0474         51.2087 
           0.54         91.0791         49.8517 
       0.546137         90.1291         48.5505 
       0.552299         88.3077         47.3088 
       0.558452         86.8714         46.1276 
       0.564573         85.3432          44.999 
       0.570708         83.5586         43.9039 
       0.576825         82.5552         42.8425 
       0.582926         80.6237         41.8131 
       0.589034         79.5786         40.8119 
       0.595184         78.4744         39.8336 
       0.601379         76.9275         38.8788 
       0.607522         75.6529         37.9625 
       0.613639         74.9136          37.081 
       0.619772         73.4148         36.2285 
       0.625918         72.3795         35.4049 
       0.632068         71.3873         34.6096 
       0.638161         70.6548         33.8471 
         0.6443         69.6613         33.1017 
       0.650464         68.9535         32.3741 
       0.656582         67.5063          31.671 
       0.662703         66.6602         30.9868 
       0.668861          65.519         30.3181 
       0.675024         64.7374         29.6686 
       0.681124         64.0742         29.0457 
       0.687237         62.7806         28.4407 
       0.693381         61.8953         27.8514 
       0.699536         61.3928         27.2785 
       0.705665         60.9858         26.7244 
       0.711789         59.8126         26.1862 
       0.717957         59.4666         25.6587 
        0.72409         58.2625          25.148 
       0.730186         57.4181         24.6539 
       0.736317         57.1159         24.1701 
       0.742472         56.4763         23.6974 
       0.748622         55.6807         23.2378 
        0.75476         55.1153         22.7915 
       0.760888         54.3917         22.3579 
       0.767043          53.921         21.9341 
       0.773185         53.2888         21.5224 
       0.779291          52.459         21.1237 
       0.785407          52.053         20.7346 
       0.791564          51.772         20.3529 
       0.797719         50.5741          19.981 
       0.803834          50.311         19.6207 
       0.809972         49.5678         19.2679 
       0.816124         49.2115          18.923 
       0.822261         48.7969         18.5874 
       0.828378         48.4746         18.2609 
       0.834502         47.8934          17.942 
       0.840667         47.2746         17.6287 
       0.846816         46.6372         17.3237 
       0.852925         46.2591         17.0279 
       0.859047         45.6427         16.7383 
       0.865192         45.4056         16.4546 
       0.871341         44.9188         16.1772 
       0.877463         44.2293         15.9075 
       0.883569         44.0697         15.6447 
       0.889708          43.559         15.3865 
       0.895864         43.2305         15.1334 
       0.902008         42.8219         14.8865 
       0.908149         42.4731         14.6453 
       0.914301          42.002         14.4091 
       0.920448         41.7216         14.1783 
       0.926574         41.2093         13.9534 
       0.932687         41.0709         13.7338 
       0.938823         40.5302         13.5181 
       0.944975         40.0797         13.3066 
       0.951105          39.731         13.1004 
       0.957225         39.3622         12.8989 
       0.963368          39.062          12.701 
       0.969511         38.8201         12.5072 
       0.975621         38.6267         12.3185 
       0.981748         38.1286         12.1332 
       0.987916         37.7045         11.9506 
        0.99406          37.559         11.7724 
        1.00019         37.2294         11.5982 
        1.00632         36.8637         11.4277 
        1.01246         36.6687         11.2603 
        1.01859         36.2348         11.0966 
        1.02471         35.9958         10.9363 
        1.03085         35.7107         10.7787 
        1.03698         35.4034         10.6245 
        1.04314         35.1488         10.4726 
        1.04929         34.8482          10.324 
        1.05541         34.4646          10.179 
        1.06154          34.475         10.0363 
        1.06769         34.0744         9.89621 
        1.07382         33.8934         9.75921 
        1.07993         33.6956         9.62512 
        1.08607         33.4159         9.49299 
        1.09222         33.1733         9.36321 
        1.09836         32.8031           9.236 
        1.10449         32.7303         9.11129 
        1.11063         32.3402         8.98875 
        1.11677         32.1226          8.8685 
         1.1229         31.8843         8.75066 
        1.12903           31.53         8.63484 
        1.13518          31.561         8.52103 
        1.14131          31.325         8.40933 
        1.14745         31.0204         8.29969 
        1.15359         30.8216         8.19198 
        1.15973          30.486         8.08614 
        1.16584         30.3398         7.98264 
        1.17197         30.1305          7.8808 
        1.17811         30.0178         7.78042 
        1.18424         29.7244         7.68209 
        1.19038         29.5343         7.58517 
        1.19652         29.4283         7.48995 
        1.20267         29.1315         7.39637 
        1.20881              29          7.3044 
        1.21495         28.7546         7.21414 
        1.22108         28.7311         7.12542 
         1.2272         28.3164          7.0384 
        1.23334         28.1669         6.95263 
        1.23949         28.1324         6.86809 
        1.24562         27.8029         6.78518 
        1.25174         27.7274         6.70376 
        1.25789         27.5971         6.62343 
        1.26402         27.2694         6.54456 
        1.27014         27.1755         6.46716 
        1.27628         26.9302         6.39077 
        1.28244         26.8603         6.31547 
        1.28858         26.6898         6.24148 
        1.29471         26.5795         6.16884 
        1.30084         26.4055         6.09741 
        1.30697          26.225         6.02701 
        1.31312         26.0654         5.95761 
        1.31925         25.8723         5.88952 
        1.32537         25.7265         5.82256 
        1.33151          25.592          5.7564 
        1.33765         25.4193          5.6913 
        1.34378         25.3091         5.62734 
        1.34992         25.1074         5.56431 
        1.35606         24.9797         5.50211 
         1.3622         24.8982         5.44097 
        1.36833         24.7036          5.3809 
        1.37445         24.5447         5.32177 
        1.38059         24.4024         5.26334 
        1.38675         24.2066         5.20565 
        1.39288         24.1404         5.14904 
        1.39901         24.0357         5.09331 
        1.40515         23.8473         5.03827 
         1.4113         23.6892         4.98406 
        1.41742         23.6621         4.93086 
        1.42355         23.4638         4.87833 
         1.4297         23.3622          4.8264 
        1.43585         23.2873         4.77525 
        1.44198         23.0533         4.72504 
        1.44809         22.9964         4.67564 
        1.45423          22.861         4.62676 
        1.46036         22.7587         4.57867 
        1.46649         22.6213         4.53124 
        1.47263         22.4771         4.48445 
        1.47877         22.3729         4.43833 
        1.48491         22.3542         4.39279 
        1.49104         22.1233         4.34798 
        1.49718         21.9914         4.30376 
        1.50333         22.0126         4.26009 
        1.50947         21.8018          4.2171 
         1.5156         21.7091         4.17478 
        1.52172          21.656         4.13303 
        1.52787         21.4964         4.09177 
          1.534            21.4         4.05112 
        1.54013         21.2575         4.01106 
        1.54627         21.1918         3.97147 
        1.55241          21.016          3.9324 
        1.55855         20.9616         3.89392 
        1.56467         20.7757         3.85605 
         1.5708         20.7985         3.81858 
        1.57695         20.6399         3.78155 
        1.58308          20.507         3.74509 
        1.58922         20.4236         3.70909 
        1.59535          20.346         3.67357 
         1.6015         20.1964         3.63846 
        1.60764         20.0972         3.60383 
        1.61376         20.0106         3.56974 
        1.61989         19.9304         3.53606 
        1.62604         19.8256         3.50274 
        1.63218         19.7681         3.46987 
        1.63831          19.622          3.4375 
        1.64444         19.5374         3.40552 
        1.65059         19.4863         3.37388 
        1.65673         19.3687         3.34267 
        1.66285         19.2891         3.31194 
        1.66898         19.1791         3.28158 
        1.67512          19.115         3.25155 
        1.68127         19.0047         3.22186 
         1.6874         18.8571         3.19261 
        1.69353         18.8293         3.16374 
        1.69967          18.714         3.13515 
        1.70581         18.6726         3.10693 
        1.71193         18.6075         3.07917 
        1.71806         18.4392         3.05168 
        1.72421         18.3812         3.02447 
        1.73035         18.2867         2.99762 
        1.73649         18.2094         2.97111 
        1.74262         18.1428         2.94493 
        1.74876         18.0463         2.91905 
        1.75489         17.9718         2.89354 
        1.76101          17.916         2.86833 
        1.76715         17.8337         2.84339 
        1.77329         17.7758         2.81872 
        1.77943         17.7016         2.79433 
        1.78557         17.5803         2.77026 
        1.79171         17.4939         2.74647 
        1.79785         17.4215         2.72295 
        1.80399         17.3987         2.69971 
        1.81012         17.2625         2.67677 
        1.81625          17.244         2.65411 
        1.82239         17.1021         2.63168 
        1.82853          17.083         2.60951 
        1.83466         16.9698         2.58762 
        1.84078         16.8557         2.56601 
        1.84692          16.827          2.5446 
        1.85306          16.754         2.52341 
         1.8592         16.6813          2.5025 
        1.86533         16.6075         2.48183 
        1.87147         16.5828         2.46137 
        1.87761         16.4656         2.44113 
        1.88375         16.3988         2.42114 
        1.88988         16.3484          2.4014 
        1.89601         16.3017         2.38186 
        1.90215         16.2287         2.36253 
        1.90829         16.1171         2.34341 
        1.91442         16.0747         2.32451 
        1.92056         16.0034         2.30583 
         1.9267         15.9449         2.28734 
        1.93284         15.8285         2.26904 
        1.93897         15.8191         2.25097 
        1.94509         15.7437         2.23314 
        1.95123         15.6656         2.21545 
        1.95737          15.605         2.19795 
        1.96349          15.561         2.18067 
        1.96964          15.487         2.16353 
        1.97578         15.3882         2.14657 
        1.98192         15.3214         2.12982 
        1.98805         15.2947         2.11325 
        1.99419         15.2331         2.09685 
        2.00033         15.1405         2.08062 
        2.00647         15.1015         2.06456 
         2.0126         15.0144          2.0487 
        2.01874          14.976         2.03298 
        2.02488         14.9292         2.01742 
        2.03101         14.8847         2.00204 
        2.03714         14.8011         1.98684 
        2.04328         14.7401         1.97177 
        2.04941         14.6872         1.95688 
        2.05554         14.6223         1.94215 
        2.06167         14.5455         1.92755 
        2.06781         14.5057         1.91309 
        2.07396         14.4644         1.89877 
        2.08009         14.3955         1.88461 
        2.08622         14.2993         1.87062 
        2.09237         14.2854         1.85674 
        2.09851         14.2227         1.84299 
        2.10464         14.1341         1.82941 
        2.11077         14.1327         1.81598 
        2.11691         14.0501         1.80266 
        2.12305         14.0052         1.78946 
        2.12918          13.936         1.77643 
        2.13531         13.9349         1.76353 
        2.14145         13.8386         1.75073 
         2.1476         13.8108         1.73804 
        2.15372         13.7323         1.72553 
        2.15985         13.6891         1.71314 
        2.16599         13.6192         1.70083 
        2.17213         13.5633         1.68866 
        2.17827         13.5153         1.67661 
         2.1844          13.468         1.66468 
        2.19054         13.4215         1.65287 
        2.19666         13.3627         1.64119 
         2.2028         13.3011         1.62961 
        2.20893         13.2681         1.61813 
        2.21508         13.2145         1.60676 
        2.22122         13.1318         1.59548 
        2.22736         13.1048         1.58434 
        2.23349          13.072         1.57331 
        2.23962         13.0216         1.56238 
        2.24577         12.9601         1.55154 
         2.2519         12.9288         1.54081 
        2.25802         12.8544         1.53021 
        2.26417         12.8051         1.51967 
        2.27031         12.7346         1.50923 
        2.27644         12.7245         1.49891 
        2.28257         12.6565         1.48869 
        2.28872         12.6213         1.47854 
        2.29486         12.5753         1.46849 
        2.30099         12.5194         1.45856 
        2.30712         12.4766         1.44871 
        2.31326         12.4507         1.43893 
         2.3194         12.3897         1.42925 
        2.32553         12.3471         1.41968 
        2.33166         12.2942         1.41019 
         2.3378         12.2613         1.40078 
        2.34394           12.19         1.39146 
        2.35007         12.1622         1.38223 
        2.35619          12.139         1.37309 
        2.36233         12.0773         1.36402 
        2.36848         12.0351           1.355 
        2.37462         11.9699         1.34609 
        2.38075           11.94         1.33727 
        2.38689         11.8872         1.32852 
        2.39303         11.8494         1.31984 
        2.39916         11.8181         1.31126 
        2.40529         11.8049         1.30275 
        2.41143          11.735         1.29431 
        2.41757         11.6755         1.28594 
         2.4237         11.6261         1.27766 
        2.42983         11.5908         1.26945 
        2.43598         11.5554         1.26129 
        2.44211         11.5291         1.25322 
        2.44823          11.482         1.24523 
        2.45437          11.434          1.2373 
        2.46052         11.3915         1.22942 
        2.46665         11.3633         1.22163 
        2.47279         11.3388          1.2139 
        2.47892          11.279         1.20624 
        2.48507         11.2258         1.19864 
         2.4912         11.1951         1.19112 
