# k  (h/Mpc)    Pcb(k)  (Mpc/h)^3    Pcb_linear(k)  (Mpc/h)^3
     0.00783031         10265.9         10399.1 
       0.013688         13873.6         13781.5 
       0.019231         14861.4         14873.8 
      0.0249154         14364.5         14674.8 
      0.0312784         13426.3         13624.8 
      0.0375637         12221.1         12315.8 
      0.0433917         10884.9         11176.8 
      0.0492413         10058.2         10233.3 
      0.0555754         9066.27         9446.07 
      0.0619321         8719.36         8829.85 
       0.067871         7984.75         8323.36 
      0.0738098         7480.98          7814.3 
      0.0800417         6828.67         7240.98 
      0.0862327         6326.08         6637.23 
      0.0921407         5854.56         6062.64 
      0.0982031         5303.45         5516.84 
       0.104506         4979.93         5031.77 
       0.110769         4602.33         4647.69 
       0.116806         4300.22         4362.67 
       0.122832         4099.64         4139.59 
       0.129052         3826.02         3944.12 
       0.135211         3654.81         3757.76 
       0.141259         3519.91         3564.26 
       0.147318         3345.57         3355.19 
       0.153489         3094.07         3133.05 
       0.159709         2939.96         2913.37 
       0.165845         2833.81         2714.75 
       0.171974         2663.41         2543.93 
       0.178125         2531.32         2403.09 
       0.184229         2430.99         2290.25 
        0.19034         2295.18         2196.44 
       0.196428         2261.88         2112.74 
       0.202534         2187.05         2030.37 
       0.208729         2099.83         1943.14 
       0.214876         2014.17         1851.71 
       0.220989         1958.51         1758.17 
       0.227147         1868.93         1665.61 
        0.23329         1799.12         1579.38 
       0.239377         1774.89         1503.07 
       0.245482         1666.13         1436.77 
       0.251667         1658.74         1379.21 
       0.257832         1598.72         1329.06 
       0.263955         1549.73         1283.42 
       0.270079         1503.12         1239.26 
        0.27624         1490.64         1194.51 
       0.282372         1427.69         1149.08 
        0.28843         1421.05         1103.81 
       0.294538         1354.58         1058.92 
       0.300721         1350.55         1015.65 
        0.30691         1296.67         975.581 
       0.313033         1273.54         939.667 
       0.319153         1253.65         907.296 
       0.325316         1212.84          877.66 
        0.33145         1187.04         850.187 
       0.337538         1172.94         824.078 
       0.343633          1144.6          798.43 
       0.349808         1110.28         772.664 
       0.355968         1104.87         747.191 
       0.362074         1092.25         722.461 
       0.368217         1061.45         698.493 
       0.374374         1023.13         675.704 
       0.380519         1022.72         654.417 
       0.386598         1000.16         634.776 
       0.392688         996.837         616.383 
        0.39888         968.987         598.739 
       0.405048         957.655         581.924 
       0.411186         943.937         565.724 
       0.417313         925.564         549.935 
       0.423458         912.985         534.426 
       0.429607         898.356         519.302 
       0.435692         881.611         504.807 
       0.441815         878.005         490.774 
       0.447964         859.108         477.327 
       0.454126         847.916         464.515 
       0.460267         832.922          452.36 
       0.466387          823.46           440.8 
        0.47254         813.542         429.647 
       0.478662          809.49         418.925 
       0.484765         790.038         408.547 
       0.490885         784.495         398.431 
       0.497035         768.792         388.544 
       0.503198         763.264         378.926 
       0.509342         755.341         369.648 
       0.515458         751.701         360.746 
       0.521598         736.374         352.145 
       0.527764         720.369         343.832 
       0.533884         721.742         335.886 
           0.54         712.658         328.228 
       0.546137         709.444         320.796 
       0.552299         698.776         313.559 
       0.558452          695.32         306.538 
       0.564573         684.826          299.75 
       0.570708         678.272         293.141 
       0.576825         661.111         286.747 
       0.582926         663.753         280.562 
       0.589034         658.058         274.558 
       0.595184         651.295         268.704 
       0.601379         644.362         262.995 
       0.607522         635.691         257.512 
       0.613639         636.814         252.215 
       0.619772         620.089         247.055 
       0.625918         618.573         242.027 
       0.632068         611.431         237.132 
       0.638161         609.401         232.415 
         0.6443         597.638         227.791 
       0.650464         596.274         223.278 
       0.656582         594.931         218.922 
       0.662703         590.148         214.683 
       0.668861         580.006         210.535 
       0.675024         576.429         206.497 
       0.681124         573.551         202.609 
       0.687237         568.556         198.817 
       0.693381         562.253         195.107 
       0.699536         554.458         191.486 
       0.705665         553.932         187.972 
       0.711789         548.859          184.55 
       0.717957         544.258          181.19 
        0.72409         540.781         177.932 
       0.730186         535.124         174.775 
       0.736317         531.257         171.679 
       0.742472         529.666         168.649 
       0.748622         523.729         165.696 
        0.75476         517.445         162.822 
       0.760888         512.408         160.022 
       0.767043         513.029         157.277 
       0.773185         506.559         154.604 
       0.779291         501.934         152.009 
       0.785407          498.41          149.47 
       0.791564         493.536         146.973 
       0.797719         491.281         144.536 
       0.803834         487.807          142.17 
       0.809972         484.797         139.849 
       0.816124         484.966         137.575 
       0.822261         477.172         135.359 
       0.828378         475.044         133.199 
       0.834502         471.299         131.086 
       0.840667         466.391         129.005 
       0.846816         464.829         126.976 
       0.852925         460.087         125.004 
       0.859047         460.661          123.07 
       0.865192         455.808         121.171 
       0.871341         452.138         119.312 
       0.877463         449.893           117.5 
       0.883569         446.379         115.731 
       0.889708         443.765          113.99 
       0.895864         439.542          112.28 
       0.902008         437.991          110.61 
       0.908149         435.061         108.975 
       0.914301         430.485         107.371 
       0.920448         427.553         105.801 
       0.926574         423.194         104.268 
       0.932687         423.643          102.77 
       0.938823         418.472         101.295 
       0.944975         418.689         99.8468 
       0.951105         413.753         98.4323 
       0.957225         410.772         97.0479 
       0.963368         406.954         95.6858 
       0.969511         405.277         94.3501 
       0.975621          402.14         93.0474 
       0.981748         402.036         91.7663 
       0.987916         398.593         90.5015 
        0.99406         392.594         89.2656 
        1.00019         392.867         88.0555 
        1.00632         390.258         86.8692 
        1.01246         387.027         85.7033 
        1.01859         387.361         84.5609 
        1.02471         382.305          83.441 
        1.03085         379.625         82.3378 
        1.03698         378.676          81.257 
        1.04314         375.575         80.1913 
        1.04929         372.181         79.1474 
        1.05541         371.508         78.1265 
        1.06154         367.168         77.1212 
        1.06769         365.305         76.1323 
        1.07382         363.708         75.1642 
        1.07993         361.352         74.2153 
        1.08607         360.563         73.2791 
        1.09222         357.435         72.3582 
        1.09836         354.855         71.4544 
        1.10449         351.458         70.5672 
        1.11063         348.992         69.6943 
        1.11677         348.564         68.8366 
         1.1229         346.646          67.995 
        1.12903         343.389         67.1668 
        1.13518          340.96         66.3518 
        1.14131         339.425          65.551 
        1.14745         338.016         64.7639 
        1.15359          335.15         63.9898 
        1.15973         333.943         63.2281 
        1.16584         331.036         62.4824 
        1.17197         330.451         61.7477 
        1.17811         327.514         61.0227 
        1.18424         324.995         60.3116 
        1.19038         323.611         59.6099 
        1.19652         321.281         58.9198 
        1.20267         320.635         58.2406 
        1.20881         318.554         57.5725 
        1.21495         315.648         56.9159 
        1.22108         314.521         56.2698 
         1.2272         312.409         55.6354 
        1.23334          310.29         55.0094 
        1.23949         309.055         54.3916 
        1.24562         307.226         53.7852 
        1.25174          303.94          53.189 
        1.25789         302.249            52.6 
        1.26402         301.244         52.0212 
        1.27014         298.962         51.4526 
        1.27628          297.56         50.8908 
        1.28244         296.712         50.3364 
        1.28858         293.918         49.7911 
        1.29471         291.298         49.2552 
        1.30084         290.411         48.7277 
        1.30697         288.505         48.2072 
        1.31312         286.409         47.6936 
        1.31925         286.417         47.1892 
        1.32537         284.759         46.6926 
        1.33151         281.917         46.2015 
        1.33765         280.141         45.7177 
        1.34378         279.185          45.242 
        1.34992         277.404         44.7727 
        1.35606          276.93         44.3091 
         1.3622          274.89          43.853 
        1.36833         272.553         43.4044 
        1.37445         271.039         42.9624 
        1.38059         268.821         42.5253 
        1.38675         268.214         42.0932 
        1.39288         265.786         41.6689 
        1.39901         265.362         41.2507 
        1.40515         263.467         40.8373 
         1.4113         261.691         40.4298 
        1.41742         260.792         40.0295 
        1.42355         257.874         39.6339 
         1.4297          257.08         39.2424 
        1.43585         255.368         38.8565 
        1.44198         254.131         38.4773 
        1.44809         253.119         38.1039 
        1.45423         250.738         37.7341 
        1.46036          250.28         37.3699 
        1.46649         248.174         37.0105 
        1.47263         246.431         36.6555 
        1.47877         245.425         36.3054 
        1.48491         243.838         35.9593 
        1.49104         242.887         35.6185 
        1.49718         240.552         35.2819 
        1.50333         239.575         34.9492 
        1.50947         238.315         34.6215 
         1.5156         236.485         34.2985 
        1.52172         235.511         33.9796 
        1.52787         233.927         33.6642 
          1.534         233.197         33.3532 
        1.54013         231.064         33.0465 
        1.54627         230.632         32.7431 
        1.55241         228.468         32.4436 
        1.55855          227.43         32.1482 
        1.56467         225.938         31.8573 
         1.5708         225.641         31.5693 
        1.57695         223.088         31.2844 
        1.58308         222.636         31.0037 
        1.58922         220.563         30.7262 
        1.59535         219.252         30.4523 
         1.6015         218.888         30.1814 
        1.60764         217.108         29.9139 
        1.61376         215.243         29.6504 
        1.61989         214.485         29.3899 
        1.62604         213.562          29.132 
        1.63218         212.324         28.8773 
        1.63831         211.161         28.6263 
        1.64444         209.973         28.3782 
        1.65059         208.394         28.1325 
        1.65673         207.641         27.8899 
        1.66285          206.46          27.651 
        1.66898         205.224         27.4147 
        1.67512         204.648         27.1808 
        1.68127         202.409         26.9495 
         1.6874         201.251         26.7213 
        1.69353         200.517          26.496 
        1.69967         199.241         26.2727 
        1.70581         198.033         26.0521 
        1.71193         196.764          25.835 
        1.71806         196.128         25.6198 
        1.72421         194.771         25.4067 
        1.73035         193.902         25.1963 
        1.73649         192.971         24.9883 
        1.74262          191.56         24.7828 
        1.74876         190.903         24.5796 
        1.75489         189.198          24.379 
        1.76101         188.262         24.1808 
        1.76715         187.685         23.9845 
        1.77329         186.703         23.7902 
        1.77943         185.399         23.5979 
        1.78557         184.303         23.4081 
        1.79171         183.189         23.2203 
        1.79785         182.137         23.0346 
        1.80399         181.228          22.851 
        1.81012         180.105         22.6696 
        1.81625         179.336         22.4903 
        1.82239         178.136         22.3127 
        1.82853         177.563         22.1371 
        1.83466         176.428         21.9635 
        1.84078         175.508         21.7921 
        1.84692         174.113         21.6221 
        1.85306         173.573         21.4538 
         1.8592          172.15         21.2876 
        1.86533         171.282         21.1232 
        1.87147         170.307         20.9604 
        1.87761         169.855         20.7992 
        1.88375         167.888           20.64 
        1.88988          167.37         20.4825 
        1.89601         166.392         20.3267 
        1.90215         165.402         20.1723 
        1.90829         164.818         20.0197 
        1.91442         164.047         19.8686 
        1.92056         162.974         19.7192 
         1.9267         162.127         19.5712 
        1.93284         161.534         19.4247 
        1.93897         160.304         19.2799 
        1.94509         159.817          19.137 
        1.95123           158.8         18.9951 
        1.95737         158.171         18.8546 
        1.96349         157.024         18.7159 
        1.96964         155.833         18.5782 
        1.97578         155.048         18.4418 
        1.98192         154.345          18.307 
        1.98805         153.169         18.1736 
        1.99419         152.646         18.0416 
        2.00033         151.782         17.9108 
        2.00647          151.25         17.7813 
         2.0126         150.051         17.6533 
        2.01874         149.358         17.5264 
        2.02488         148.933         17.4007 
        2.03101         147.484         17.2764 
        2.03714           146.6         17.1535 
        2.04328         146.085         17.0316 
        2.04941         145.166          16.911 
        2.05554         144.389         16.7917 
        2.06167         144.081         16.6734 
        2.06781         143.378         16.5562 
        2.07396         142.216           16.44 
        2.08009         141.284         16.3251 
        2.08622         140.792         16.2114 
        2.09237         139.762         16.0986 
        2.09851         139.141         15.9869 
        2.10464         138.417         15.8764 
        2.11077         137.783         15.7671 
        2.11691         137.074         15.6586 
        2.12305          135.91         15.5511 
        2.12918         135.429         15.4449 
        2.13531         134.691         15.3397 
        2.14145         133.859         15.2352 
         2.1476         133.365         15.1316 
        2.15372         132.644         15.0294 
        2.15985         132.097         14.9281 
        2.16599         131.225         14.8275 
        2.17213         130.296         14.7279 
        2.17827         130.048         14.6292 
         2.1844         129.175         14.5316 
        2.19054          128.49         14.4348 
        2.19666         127.822          14.339 
         2.2028         127.166          14.244 
        2.20893         126.329         14.1498 
        2.21508         125.569         14.0564 
        2.22122         125.105         13.9638 
        2.22736           124.3         13.8723 
        2.23349         123.885         13.7815 
        2.23962          123.08         13.6916 
        2.24577         122.623         13.6024 
         2.2519         121.925         13.5141 
        2.25802         120.924         13.4267 
        2.26417         120.568         13.3399 
        2.27031           119.8         13.2537 
        2.27644         119.225         13.1686 
        2.28257         118.793         13.0842 
        2.28872         118.026         13.0004 
        2.29486         117.467         12.9174 
        2.30099         116.929         12.8353 
        2.30712         116.105         12.7538 
        2.31326         115.642         12.6729 
         2.3194         114.906         12.5928 
        2.32553         114.384         12.5135 
        2.33166         113.869         12.4349 
         2.3378         113.256         12.3569 
        2.34394         112.887         12.2796 
        2.35007         112.131          12.203 
        2.35619         111.415         12.1272 
        2.36233         110.953         12.0518 
        2.36848         110.192         11.9769 
        2.37462         109.741         11.9028 
        2.38075         109.323         11.8295 
        2.38689         108.407         11.7566 
        2.39303         107.914         11.6845 
        2.39916         107.351          11.613 
        2.40529         107.143         11.5421 
        2.41143         106.611         11.4717 
        2.41757         105.755         11.4019 
         2.4237         105.331         11.3328 
        2.42983         104.827         11.2643 
        2.43598         104.209         11.1962 
        2.44211         103.761         11.1288 
        2.44823         103.271         11.0621 
        2.45437          102.66         10.9957 
        2.46052         101.944         10.9299 
        2.46665         101.482         10.8646 
        2.47279         101.039            10.8 
        2.47892         100.579         10.7358 
        2.48507         100.002         10.6721 
         2.4912         99.5713         10.6091 
