# k  (h/Mpc)    Pcb(k)  (Mpc/h)^3    Pcb_linear(k)  (Mpc/h)^3
     0.00783031         276.494         279.147 
       0.013688         341.839         343.203 
       0.019231         340.903         341.194 
      0.0249154          305.79         306.824 
      0.0312784         256.805         256.656 
      0.0375637         213.106         212.494 
      0.0433917         182.758         182.543 
      0.0492413          163.21         162.903 
      0.0555754         149.626         149.811 
      0.0619321         140.692         140.391 
       0.067871          131.05         131.291 
      0.0738098         119.876         120.144 
      0.0800417         106.145         106.457 
      0.0862327          92.476         92.5124 
      0.0921407           80.78          80.686 
      0.0982031         71.2565         71.2438 
       0.104506          64.853         64.5959 
       0.110769         60.7654         60.6031 
       0.116806         58.1267         58.1905 
       0.122832         56.1287         56.0973 
       0.129052         53.2644         53.3893 
       0.135211         49.6657         49.7974 
       0.141259         45.5974          45.582 
       0.147318         41.3404         41.2061 
       0.153489          37.273         37.1813 
       0.159709         34.0761         33.9717 
       0.165845         31.9719         31.7434 
       0.171974         30.3548         30.2929 
       0.178125          29.373          29.299 
       0.184229         28.5111         28.4158 
        0.19034         27.3154         27.3548 
       0.196428         26.0411         25.9966 
       0.202534         24.5397         24.3756 
       0.208729         22.7393          22.633 
       0.214876          21.066         21.0049 
       0.220989         19.8081         19.6349 
       0.227147         18.6395         18.5673 
        0.23329         17.8567         17.7863 
       0.239377         17.2844         17.2021 
       0.245482         16.7188         16.6899 
       0.251667         16.2399         16.1425 
       0.257832         15.5771         15.5098 
       0.263955         14.8803         14.7918 
       0.270079         14.1268         14.0257 
        0.27624         13.4275         13.2706 
       0.282372         12.7508         12.5901 
        0.28843         12.1406         12.0205 
       0.294538         11.6695         11.5511 
       0.300721         11.3192         11.1615 
        0.30691         10.9272         10.8197 
       0.313033         10.6009         10.4922 
       0.319153         10.1902         10.1486 
       0.325316         9.91563         9.77773 
        0.33145         9.51502         9.39038 
       0.337538          9.1319         9.00602 
       0.343633          8.7467          8.6398 
       0.349808         8.43304         8.30398 
       0.355968         8.14175         8.00864 
       0.362074         7.87229         7.75283 
       0.368217         7.64287         7.52168 
       0.374374         7.39713         7.30376 
       0.380519         7.20645         7.08976 
       0.386598         7.00026         6.87432 
       0.392688         6.79674         6.65507 
        0.39888         6.56094         6.43203 
       0.405048         6.35146         6.21551 
       0.411186         6.15306         6.01206 
       0.417313         5.94866         5.82417 
       0.423458         5.78795           5.651 
       0.429607         5.61213         5.49166 
       0.435692         5.46194         5.34365 
       0.441815         5.32054             5.2 
       0.447964         5.19907         5.05861 
       0.454126          5.0339         4.91843 
       0.460267         4.89784          4.7799 
       0.466387         4.75168         4.64463 
        0.47254          4.6303         4.51362 
       0.478662         4.51439          4.3895 
       0.484765         4.38424         4.27229 
       0.490885         4.27612          4.1614 
       0.497035         4.19477         4.05601 
       0.503198         4.07895          3.9549 
       0.509342         3.98607         3.85711 
       0.515458         3.88146           3.762 
       0.521598         3.79063         3.66873 
       0.527764         3.68871         3.57733 
       0.533884         3.61775         3.48904 
           0.54          3.5263         3.40365 
       0.546137         3.44744         3.32126 
       0.552299         3.36741         3.24216 
       0.558452         3.27921         3.16657 
       0.564573         3.21604          3.0942 
       0.570708         3.14433           3.024 
       0.576825         3.06913         2.95598 
       0.582926         3.01105         2.89001 
       0.589034         2.92746         2.82577 
       0.595184         2.87057         2.76288 
       0.601379         2.80764         2.70135 
       0.607522         2.75778         2.64215 
       0.613639         2.70843         2.58502 
       0.619772         2.63686         2.52962 
       0.625918         2.59009         2.47597 
       0.632068         2.54459         2.42406 
       0.638161          2.4855         2.37421 
         0.6443          2.4355         2.32542 
       0.650464         2.38036         2.27776 
       0.656582          2.3429         2.23165 
       0.662703         2.29689          2.1867 
       0.668861         2.25927          2.1427 
       0.675024         2.20937         2.09988 
       0.681124         2.16251         2.05872 
       0.687237         2.12908         2.01866 
       0.693381         2.09021         1.97957 
       0.699536         2.03875          1.9415 
       0.705665         2.00441         1.90463 
       0.711789          1.9726         1.86876 
       0.717957         1.93233         1.83356 
        0.72409         1.89922         1.79944 
       0.730186         1.86393         1.76637 
       0.736317         1.84173         1.73395 
       0.742472         1.80705         1.70223 
       0.748622         1.77151         1.67133 
        0.75476         1.73645         1.64129 
       0.760888         1.70674         1.61205 
       0.767043         1.68729         1.58342 
       0.773185         1.65151         1.55558 
       0.779291         1.62641         1.52857 
       0.785407         1.59906         1.50218 
       0.791564         1.57423         1.47626 
       0.797719         1.55085         1.45097 
       0.803834          1.5269         1.42643 
       0.809972          1.5006         1.40238 
       0.816124          1.4736         1.37883 
       0.822261         1.44733         1.35589 
       0.828378         1.42817         1.33355 
       0.834502         1.40971          1.3117 
       0.840667         1.38011          1.2902 
       0.846816         1.35963         1.26925 
       0.852925         1.34505          1.2489 
       0.859047         1.32359         1.22896 
       0.865192          1.3009          1.2094 
       0.871341         1.28199         1.19026 
       0.877463         1.26683         1.17162 
       0.883569         1.24385         1.15344 
       0.889708         1.22528         1.13555 
       0.895864         1.20741           1.118 
       0.902008          1.1879         1.10086 
       0.908149         1.17196          1.0841 
       0.914301         1.14952         1.06766 
       0.920448         1.13552         1.05159 
       0.926574         1.11872          1.0359 
       0.932687         1.10274         1.02057 
       0.938823         1.09195          1.0055 
       0.944975         1.07532        0.990702 
       0.951105         1.06144        0.976259 
       0.957225         1.04966        0.962131 
       0.963368         1.03366        0.948238 
       0.969511         1.01742        0.934622 
       0.975621          1.0018        0.921348 
       0.981748         0.99274        0.908301 
       0.987916        0.977683        0.895427 
        0.99406        0.962958        0.882854 
        1.00019        0.953522        0.870549 
        1.00632        0.937198        0.858492 
        1.01246         0.92533        0.846648 
        1.01859         0.91509        0.835049 
        1.02471         0.90208        0.823684 
        1.03085        0.893491        0.812493 
        1.03698        0.879383        0.801536 
        1.04314        0.869523        0.790736 
        1.04929        0.856962        0.780162 
        1.05541        0.848255        0.769826 
        1.06154        0.835851        0.759654 
        1.06769        0.825091        0.749652 
        1.07382        0.815645        0.739864 
        1.07993        0.803377        0.730276 
        1.08607        0.797805         0.72082 
        1.09222        0.785583        0.711523 
        1.09836        0.779276        0.702403 
        1.10449        0.769461        0.693456 
        1.11063        0.757374        0.684655 
        1.11677        0.747517        0.676013 
         1.1229        0.739963        0.667536 
        1.12903        0.730414        0.659198 
        1.13518        0.723651        0.650997 
        1.14131         0.71361        0.642942 
        1.14745        0.701722        0.635029 
        1.15359        0.696903        0.627249 
        1.15973        0.686311        0.619597 
        1.16584        0.682673        0.612109 
        1.17197        0.673514        0.604734 
        1.17811        0.666705         0.59746 
        1.18424        0.660808        0.590328 
        1.19038         0.65114        0.583292 
        1.19652        0.642475        0.576374 
        1.20267        0.638121         0.56957 
        1.20881        0.629232        0.562877 
        1.21495        0.624195        0.556304 
        1.22108        0.616806        0.549837 
         1.2272        0.611168         0.54349 
        1.23334        0.603403        0.537228 
        1.23949        0.596938        0.531052 
        1.24562        0.590899         0.52499 
        1.25174        0.585007        0.519033 
        1.25789        0.579279        0.513151 
        1.26402        0.571166        0.507372 
        1.27014        0.565603        0.501696 
        1.27628        0.561557        0.496091 
        1.28244        0.552963        0.490561 
        1.28858        0.548248        0.485124 
        1.29471        0.544008        0.479782 
        1.30084        0.536888        0.474526 
        1.30697         0.53147        0.469341 
        1.31312        0.524108        0.464227 
        1.31925        0.520266        0.459206 
        1.32537        0.515842        0.454265 
        1.33151        0.511575        0.449379 
        1.33765         0.50583        0.444569 
        1.34378        0.499307         0.43984 
        1.34992        0.495582        0.435176 
        1.35606        0.490095        0.430571 
         1.3622        0.485519        0.426041 
        1.36833        0.480648        0.421587 
        1.37445        0.474553          0.4172 
        1.38059        0.470534        0.412863 
        1.38675        0.468803        0.408577 
        1.39288        0.462575         0.40437 
        1.39901        0.458331        0.400224 
        1.40515        0.454279        0.396128 
         1.4113        0.448875        0.392091 
        1.41742         0.44486        0.388126 
        1.42355        0.442505        0.384208 
         1.4297        0.436621        0.380334 
        1.43585        0.432776        0.376515 
        1.44198        0.430601        0.372763 
        1.44809        0.425001         0.36907 
        1.45423        0.421329        0.365414 
        1.46036        0.417489        0.361814 
        1.46649        0.414251        0.358261 
        1.47263        0.409814        0.354754 
        1.47877        0.405456        0.351296 
        1.48491        0.402394        0.347878 
        1.49104        0.397862        0.344514 
        1.49718        0.394865        0.341192 
        1.50333        0.391932        0.337908 
        1.50947        0.388292        0.334675 
         1.5156        0.384294        0.331489 
        1.52172        0.381306        0.328345 
        1.52787        0.377639        0.325236 
          1.534        0.374541        0.322171 
        1.54013        0.370574        0.319149 
        1.54627        0.368163         0.31616 
        1.55241        0.364394         0.31321 
        1.55855         0.36085        0.310302 
        1.56467        0.359605        0.307438 
         1.5708        0.355416        0.304604 
        1.57695        0.352718        0.301801 
        1.58308        0.349417        0.299039 
        1.58922        0.346776        0.296311 
        1.59535        0.343481        0.293618 
         1.6015        0.340628        0.290955 
        1.60764        0.338145        0.288327 
        1.61376        0.334329        0.285738 
        1.61989        0.332299         0.28318 
        1.62604        0.329649        0.280647 
        1.63218        0.327314        0.278147 
        1.63831        0.324577        0.275684 
        1.64444        0.321646        0.273249 
        1.65059         0.31912        0.270839 
        1.65673        0.316423         0.26846 
        1.66285         0.31432        0.266117 
        1.66898        0.311974        0.263801 
        1.67512        0.308631        0.261508 
        1.68127         0.30601        0.259241 
         1.6874        0.304586        0.257006 
        1.69353        0.301483        0.254798 
        1.69967        0.299599        0.252612 
        1.70581        0.296651        0.250452 
        1.71193        0.294666        0.248326 
        1.71806        0.291999         0.24622 
        1.72421        0.290236        0.244134 
        1.73035        0.287427        0.242075 
        1.73649        0.285863        0.240041 
        1.74262        0.283437        0.238031 
        1.74876        0.281055        0.236044 
        1.75489        0.279224        0.234083 
        1.76101        0.276671        0.232145 
        1.76715        0.274646        0.230227 
        1.77329        0.272429        0.228328 
        1.77943        0.270299         0.22645 
        1.78557        0.268804        0.224596 
        1.79171        0.266763        0.222763 
        1.79785        0.264607        0.220949 
        1.80399        0.262579        0.219157 
        1.81012        0.260859        0.217387 
        1.81625        0.258812        0.215637 
        1.82239        0.257148        0.213904 
        1.82853        0.254566        0.212191 
        1.83466        0.253043        0.210499 
        1.84078         0.25106        0.208827 
        1.84692        0.249335         0.20717 
        1.85306        0.247986         0.20553 
         1.8592        0.245776         0.20391 
        1.86533        0.244452        0.202308 
        1.87147        0.242487        0.200722 
        1.87761         0.24105        0.199152 
        1.88375        0.238762        0.197601 
        1.88988        0.237332        0.196069 
        1.89601        0.235409        0.194552 
        1.90215        0.234034        0.193049 
        1.90829        0.232102        0.191564 
        1.91442        0.230979        0.190094 
        1.92056        0.228979        0.188641 
         1.9267        0.227287        0.187202 
        1.93284        0.225667        0.185777 
        1.93897        0.224219        0.184369 
        1.94509        0.223021         0.18298 
        1.95123        0.221098        0.181601 
        1.95737        0.220042        0.180235 
        1.96349        0.218219        0.178888 
        1.96964        0.216656         0.17755 
        1.97578        0.215096        0.176225 
        1.98192        0.213942        0.174916 
        1.98805        0.212728        0.173621 
        1.99419        0.210891        0.172339 
        2.00033        0.209453        0.171069 
        2.00647        0.208618        0.169813 
         2.0126        0.206745        0.168571 
        2.01874        0.205611         0.16734 
        2.02488        0.204267         0.16612 
        2.03101        0.202793        0.164914 
        2.03714        0.201365        0.163722 
        2.04328        0.200362         0.16254 
        2.04941        0.198856        0.161371 
        2.05554        0.197774        0.160215 
        2.06167        0.196667        0.159068 
        2.06781        0.194744        0.157932 
        2.07396         0.19365        0.156806 
        2.08009        0.192412        0.155693 
        2.08622        0.191472        0.154592 
        2.09237        0.190399        0.153499 
        2.09851        0.189163        0.152417 
        2.10464        0.187831        0.151348 
        2.11077        0.186597        0.150289 
        2.11691         0.18542        0.149239 
        2.12305        0.184326        0.148199 
        2.12918        0.183245        0.147171 
        2.13531         0.18189        0.146153 
        2.14145        0.180739        0.145142 
         2.1476        0.179788         0.14414 
        2.15372        0.178943        0.143152 
        2.15985        0.177494        0.142172 
        2.16599        0.176203        0.141199 
        2.17213        0.175488        0.140236 
        2.17827        0.174285        0.139283 
         2.1844        0.173442        0.138339 
        2.19054        0.172239        0.137403 
        2.19666        0.170783        0.136478 
         2.2028        0.170246         0.13556 
        2.20893        0.169441        0.134651 
        2.21508        0.167898        0.133749 
        2.22122        0.166855        0.132854 
        2.22736        0.166286         0.13197 
        2.23349        0.165081        0.131094 
        2.23962        0.164354        0.130226 
        2.24577        0.163047        0.129365 
         2.2519          0.1624        0.128513 
        2.25802        0.161198         0.12767 
        2.26417        0.160377        0.126832 
        2.27031        0.159362        0.126001 
        2.27644        0.158507         0.12518 
        2.28257        0.157603        0.124366 
        2.28872        0.156669        0.123558 
        2.29486        0.155842        0.122758 
        2.30099        0.154895        0.121966 
        2.30712         0.15406        0.121181 
        2.31326        0.152843        0.120401 
         2.3194        0.152733        0.119629 
        2.32553        0.151749        0.118865 
        2.33166        0.150952        0.118108 
         2.3378        0.149977        0.117356 
        2.34394        0.148918        0.116611 
        2.35007        0.148132        0.115873 
        2.35619        0.147192        0.115143 
        2.36233        0.146327        0.114417 
        2.36848        0.145796        0.113696 
        2.37462        0.144692        0.112983 
        2.38075        0.144288        0.112277 
        2.38689          0.1433        0.111576 
        2.39303         0.14286        0.110882 
        2.39916        0.141558        0.110194 
        2.40529        0.141017        0.109511 
        2.41143        0.140269        0.108835 
        2.41757        0.139414        0.108163 
         2.4237         0.13887        0.107499 
        2.42983         0.13792         0.10684 
        2.43598        0.137561        0.106185 
        2.44211        0.136566        0.105537 
        2.44823        0.136131        0.104895 
        2.45437        0.134946        0.104258 
        2.46052        0.134487        0.103625 
        2.46665        0.133654        0.102998 
        2.47279        0.132929        0.102377 
        2.47892        0.132145         0.10176 
        2.48507        0.131361        0.101148 
         2.4912        0.130909        0.100542 
