# k  (h/Mpc)    Pcb(k)  (Mpc/h)^3    Pcb_linear(k)  (Mpc/h)^3
     0.00783031         11746.4         11909.6 
       0.013688         14733.6         14628.7 
       0.019231         14569.3         14537.8 
      0.0249154         12845.6         13070.9 
      0.0312784           10852         10932.4 
      0.0375637         9078.56         9050.61 
      0.0433917         7685.67         7774.58 
      0.0492413         6917.62         6937.89 
      0.0555754         6231.82         6380.17 
      0.0619321         6001.14         5978.85 
       0.067871         5472.83         5591.27 
      0.0738098         5009.94         5116.47 
      0.0800417         4408.25         4533.56 
      0.0862327         3888.98         3939.69 
      0.0921407          3460.7         3436.03 
      0.0982031         3046.69         3033.92 
       0.104506         2842.49         2750.81 
       0.110769         2653.85         2580.77 
       0.116806         2524.97         2478.02 
       0.122832         2433.41         2388.88 
       0.129052         2269.32         2273.56 
       0.135211         2129.58         2120.59 
       0.141259         1999.16         1941.08 
       0.147318         1844.16         1754.73 
       0.153489         1667.13         1583.33 
       0.159709         1559.79         1446.65 
       0.165845         1492.66         1351.76 
       0.171974         1416.12         1289.99 
       0.178125         1359.64         1247.67 
       0.184229         1312.03         1210.06 
        0.19034         1233.83         1164.87 
       0.196428         1204.32         1107.04 
       0.202534         1153.66         1038.01 
       0.208729         1085.78           963.8 
       0.214876         1024.77         894.468 
       0.220989          984.72         836.128 
       0.227147         937.219         790.666 
        0.23329         901.056         757.407 
       0.239377         884.445          732.53 
       0.245482         828.413          710.72 
       0.251667          822.43         687.407 
       0.257832         790.747         660.466 
       0.263955         762.596          629.89 
       0.270079         732.078         597.266 
        0.27624          720.91         565.112 
       0.282372         690.488         536.132 
        0.28843         675.064         511.877 
       0.294538         641.215         491.888 
       0.300721         637.982         475.297 
        0.30691         609.859         460.741 
       0.313033         597.847         446.794 
       0.319153         580.764         432.165 
       0.325316         563.563         416.371 
        0.33145         546.956         399.876 
       0.337538          538.42         383.508 
       0.343633          521.68         367.913 
       0.349808         503.414         353.613 
       0.355968         499.071         341.036 
       0.362074         490.476         330.143 
       0.368217         476.674           320.3 
       0.374374         456.568          311.02 
       0.380519         454.195         301.907 
       0.386598         442.269         292.733 
       0.392688         439.238         283.396 
        0.39888         426.657         273.899 
       0.405048         417.543         264.678 
       0.411186         410.308         256.015 
       0.417313          402.44         248.014 
       0.423458         394.452         240.639 
       0.429607         387.482         233.854 
       0.435692         377.749         227.551 
       0.441815         374.545         221.434 
       0.447964         366.687         215.413 
       0.454126         356.689         209.444 
       0.460267         351.029         203.545 
       0.466387         347.019         197.785 
        0.47254         339.821         192.206 
       0.478662         338.955          186.92 
       0.484765         327.453         181.929 
       0.490885         323.982         177.207 
       0.497035         318.425         172.719 
       0.503198         312.927         168.413 
       0.509342         310.436         164.249 
       0.515458         306.645         160.199 
       0.521598         299.795         156.227 
       0.527764         295.192         152.335 
       0.533884         292.515         148.576 
           0.54         288.309         144.939 
       0.546137         286.867         141.431 
       0.552299         280.828         138.062 
       0.558452         278.993         134.844 
       0.564573         274.738         131.762 
       0.570708         269.399         128.772 
       0.576825         265.092         125.876 
       0.582926         262.544         123.067 
       0.589034          259.95         120.331 
       0.595184         257.289         117.653 
       0.601379         254.111         115.033 
       0.607522         249.907         112.512 
       0.613639         248.453         110.079 
       0.619772         242.895          107.72 
       0.625918         241.739         105.435 
       0.632068         238.023         103.225 
       0.638161         236.929         101.102 
         0.6443         233.056         99.0245 
       0.650464         230.727         96.9947 
       0.656582         228.791         95.0311 
       0.662703          227.51         93.1173 
       0.668861         223.443         91.2435 
       0.675024         220.718           89.42 
       0.681124         219.698         87.6672 
       0.687237         216.825         85.9615 
       0.693381         213.537         84.2967 
       0.699536         211.947         82.6756 
       0.705665         210.368         81.1055 
       0.711789         207.891         79.5781 
       0.717957         206.961         78.0792 
        0.72409         204.477         76.6262 
       0.730186         201.894         75.2182 
       0.736317          199.84         73.8377 
       0.742472         198.717         72.4867 
       0.748622         196.934         71.1711 
        0.75476         195.286         69.8916 
       0.760888         192.784         68.6464 
       0.767043         192.533         67.4276 
       0.773185         190.357         66.2417 
       0.779291         186.816         65.0918 
       0.785407         186.385          63.968 
       0.791564         184.616         62.8641 
       0.797719         182.055         61.7871 
       0.803834         181.137         60.7423 
       0.809972         179.882         59.7181 
       0.816124         179.409         58.7154 
       0.822261         177.215         57.7386 
       0.828378         175.572         56.7872 
       0.834502         175.253         55.8566 
       0.840667          172.58         54.9411 
       0.846816         171.103          54.049 
       0.852925         170.502         53.1825 
       0.859047         168.694         52.3335 
       0.865192          167.09         51.5005 
       0.871341         165.663         50.6853 
       0.877463         164.417         49.8917 
       0.883569         163.865         49.1173 
       0.889708         162.201         48.3556 
       0.895864         160.305         47.6083 
       0.902008         159.579         46.8785 
       0.908149         158.955         46.1647 
       0.914301         157.042         45.4647 
       0.920448         155.905         44.7801 
       0.926574         154.995         44.1121 
       0.932687         154.761         43.4594 
       0.938823          152.65         42.8176 
       0.944975         151.286         42.1875 
       0.951105          150.69         41.5724 
       0.957225         149.169         40.9708 
       0.963368         147.431         40.3792 
       0.969511         147.139         39.7994 
       0.975621         146.121         39.2341 
       0.981748         145.707         38.6785 
       0.987916         144.046         38.1303 
        0.99406         142.918         37.5949 
        1.00019         142.744         37.0709 
        1.00632         141.288         36.5575 
        1.01246          140.47         36.0531 
        1.01859         139.653         35.5592 
        1.02471          138.28         35.0752 
        1.03085         136.953         34.5987 
        1.03698         136.511         34.1321 
        1.04314         135.169         33.6722 
        1.04929          134.43         33.2219 
        1.05541         133.839         32.7818 
        1.06154         132.913         32.3486 
        1.06769         132.721         31.9227 
        1.07382         131.484         31.5059 
        1.07993         130.416         31.0976 
        1.08607          129.62         30.6949 
        1.09222         129.209         30.2991 
        1.09836          128.07         29.9107 
        1.10449         126.887         29.5297 
        1.11063         126.034         29.1549 
        1.11677         125.726         28.7869 
         1.1229          124.54         28.4259 
        1.12903         123.883         28.0709 
        1.13518         123.682         27.7217 
        1.14131         122.402         27.3786 
        1.14745         121.899         27.0417 
        1.15359         121.067         26.7104 
        1.15973         120.566         26.3845 
        1.16584         119.292         26.0656 
        1.17197         118.789         25.7516 
        1.17811         118.186         25.4419 
        1.18424         117.587         25.1381 
        1.19038         117.158         24.8385 
        1.19652         116.275         24.5439 
        1.20267         115.468         24.2542 
        1.20881         114.631         23.9692 
        1.21495         114.051         23.6893 
        1.22108         113.523         23.4139 
         1.2272         112.438         23.1436 
        1.23334         112.022          22.877 
        1.23949         111.177          22.614 
        1.24562         110.662         22.3558 
        1.25174         109.816         22.1022 
        1.25789         109.366         21.8517 
        1.26402         108.535         21.6056 
        1.27014         108.018         21.3639 
        1.27628          107.54         21.1252 
        1.28244         106.971         20.8897 
        1.28858         106.642         20.6582 
        1.29471          105.49         20.4307 
        1.30084         105.197         20.2069 
        1.30697         104.384         19.9861 
        1.31312         103.999         19.7683 
        1.31925         103.152         19.5545 
        1.32537         102.755         19.3441 
        1.33151         101.812         19.1361 
        1.33765         101.473         18.9312 
        1.34378          100.92         18.7298 
        1.34992         100.639         18.5312 
        1.35606         99.9527         18.3351 
         1.3622         99.0794         18.1422 
        1.36833         98.8009         17.9526 
        1.37445         98.1547         17.7658 
        1.38059         97.5842         17.5811 
        1.38675         96.9477         17.3986 
        1.39288         96.6455         17.2194 
        1.39901         96.1898         17.0429 
        1.40515         95.4505         16.8684 
         1.4113         94.8781         16.6965 
        1.41742         94.6663         16.5277 
        1.42355         93.9434         16.3609 
         1.4297         93.5518         16.1959 
        1.43585         92.7798         16.0333 
        1.44198          92.429         15.8735 
        1.44809         91.9015         15.7162 
        1.45423         91.4239         15.5605 
        1.46036         91.1621         15.4072 
        1.46649         90.4638          15.256 
        1.47263         89.9159         15.1066 
        1.47877         89.7746         14.9593 
        1.48491         88.8743         14.8138 
        1.49104         88.7208         14.6705 
        1.49718         88.0961         14.5291 
        1.50333         87.6703         14.3893 
        1.50947         87.2458         14.2516 
         1.5156         86.7064         14.1159 
        1.52172         86.2098          13.982 
        1.52787         85.9384         13.8496 
          1.534          85.296         13.7191 
        1.54013         84.8336         13.5904 
        1.54627         84.5808         13.4631 
        1.55241         83.9491         13.3375 
        1.55855         83.6986         13.2137 
        1.56467         83.2822         13.0917 
         1.5708         82.7478          12.971 
        1.57695          82.648         12.8517 
        1.58308         81.7775         12.7341 
        1.58922         81.6599         12.6179 
        1.59535         81.2798         12.5032 
         1.6015         80.6364         12.3898 
        1.60764         80.3164         12.2779 
        1.61376         80.0547         12.1677 
        1.61989         79.4691         12.0587 
        1.62604         79.2758         11.9509 
        1.63218         78.8228         11.8444 
        1.63831          78.069         11.7395 
        1.64444         77.9078         11.6358 
        1.65059         77.4862         11.5332 
        1.65673         76.9199         11.4319 
        1.66285         76.6832         11.3321 
        1.66898         76.2661         11.2335 
        1.67512         75.7852         11.1359 
        1.68127         75.5222         11.0393 
         1.6874         75.1147         10.9441 
        1.69353         74.7158         10.8501 
        1.69967         74.2538          10.757 
        1.70581          74.111         10.6651 
        1.71193         73.8253         10.5745 
        1.71806         73.2194         10.4848 
        1.72421         72.8444          10.396 
        1.73035         72.5378         10.3084 
        1.73649         72.2164         10.2217 
        1.74262         71.8393         10.1362 
        1.74876         71.5141         10.0515 
        1.75489         70.9819         9.96802 
        1.76101         70.8322          9.8855 
        1.76715          70.308         9.80382 
        1.77329         70.1013         9.72296 
        1.77943         69.5553         9.64298 
        1.78557          69.459         9.56403 
        1.79171         68.9472         9.48595 
        1.79785         68.6114         9.40874 
        1.80399         68.4237         9.33241 
        1.81012         68.1427         9.25703 
        1.81625         67.5723         9.18252 
        1.82239         67.3461         9.10873 
        1.82853         67.0346         9.03578 
        1.83466         66.7113         8.96371 
        1.84078          66.403         8.89251 
        1.84692         65.9291         8.82197 
        1.85306         65.6569         8.75212 
         1.8592            65.3         8.68313 
        1.86533         65.0079         8.61493 
        1.87147         64.5928         8.54739 
        1.87761         64.3709         8.48055 
        1.88375         64.0279          8.4145 
        1.88988         63.7937         8.34924 
        1.89601          63.396         8.28464 
        1.90215         63.0891         8.22067 
        1.90829         62.8697         8.15741 
        1.91442         62.5402         8.09482 
        1.92056         62.0869         8.03294 
         1.9267         61.9284         7.97165 
        1.93284          61.509         7.91097 
        1.93897         61.2161         7.85104 
        1.94509         60.9458         7.79186 
        1.95123          60.655         7.73315 
        1.95737         60.4274           7.675 
        1.96349         59.9754         7.61761 
        1.96964         59.8548         7.56063 
        1.97578         59.5485         7.50422 
        1.98192         59.2716          7.4485 
        1.98805         59.0602         7.39334 
        1.99419         58.6025         7.33874 
        2.00033         58.3828         7.28467 
        2.00647         58.1565         7.23116 
         2.0126         57.6739         7.17828 
        2.01874         57.4849         7.12586 
        2.02488         57.2956         7.07391 
        2.03101         57.0129         7.02258 
        2.03714         56.6991         6.97181 
        2.04328         56.4878         6.92149 
        2.04941         56.1582         6.87171 
        2.05554         55.9137         6.82245 
        2.06167         55.6212         6.77362 
        2.06781         55.3756         6.72526 
        2.07396         55.0563          6.6773 
        2.08009         54.8962          6.6299 
        2.08622         54.5999         6.58302 
        2.09237           54.26         6.53649 
        2.09851         54.1435         6.49042 
        2.10464          53.776         6.44486 
        2.11077         53.4963          6.3998 
        2.11691         53.2212         6.35508 
        2.12305         53.0517         6.31078 
        2.12918         52.8251         6.26701 
        2.13531         52.4754         6.22365 
        2.14145         52.2286         6.18061 
         2.1476         52.0357         6.13792 
        2.15372          51.757         6.09586 
        2.15985         51.5164         6.05415 
        2.16599         51.2539         6.01271 
        2.17213         51.0776         5.97171 
        2.17827         50.8019          5.9311 
         2.1844         50.5187         5.89091 
        2.19054         50.2521         5.85107 
        2.19666         49.9935         5.81167 
         2.2028         49.9064         5.77259 
        2.20893         49.6773         5.73386 
        2.21508         49.3895         5.69544 
        2.22122         49.1866         5.65736 
        2.22736          48.987         5.61971 
        2.23349         48.7443         5.58242 
        2.23962         48.3815         5.54544 
        2.24577         48.1763         5.50877 
         2.2519         47.9015         5.47248 
        2.25802         47.8459         5.43658 
        2.26417         47.4955         5.40091 
        2.27031         47.3392         5.36552 
        2.27644         47.1412         5.33055 
        2.28257         46.8497          5.2959 
        2.28872         46.5487          5.2615 
        2.29486         46.4684          5.2274 
        2.30099         46.2739         5.19368 
        2.30712         46.0367         5.16025 
        2.31326         45.7572         5.12705 
         2.3194         45.4869         5.09417 
        2.32553         45.2895         5.06163 
        2.33166         45.1212         5.02939 
         2.3378         44.8682         4.99739 
        2.34394         44.6681         4.96566 
        2.35007         44.4163         4.93425 
        2.35619          44.221         4.90315 
        2.36233         44.1324         4.87225 
        2.36848         43.8697         4.84155 
        2.37462         43.6427         4.81118 
        2.38075          43.487         4.78111 
        2.38689         43.2991         4.75127 
        2.39303         43.0663         4.72168 
        2.39916         42.8357         4.69239 
        2.40529         42.6853         4.66334 
        2.41143            42.5         4.63452 
        2.41757         42.2446         4.60593 
         2.4237         42.1441         4.57764 
        2.42983         41.9006         4.54959 
        2.43598         41.6792          4.5217 
        2.44211         41.5404         4.49409 
        2.44823          41.312         4.46677 
        2.45437         41.1251         4.43961 
        2.46052         40.8473         4.41266 
        2.46665         40.7091         4.38597 
        2.47279         40.5743         4.35951 
        2.47892         40.3924         4.33326 
        2.48507         40.1623          4.3072 
         2.4912         40.0367         4.28141 
