# k  (h/Mpc)    Pcb(k)  (Mpc/h)^3    Pcb_linear(k)  (Mpc/h)^3
     0.00783031         16137.9         16370.7 
       0.013688         17639.6         17467.3 
       0.019231         15747.9         15668.3 
      0.0249154         12724.6         12914.5 
      0.0312784         9968.98         9994.84 
      0.0375637         7920.31         7844.53 
      0.0433917         6522.64         6549.14 
      0.0492413         5779.13         5758.26 
      0.0555754          5138.9         5225.52 
      0.0619321         4853.72         4790.94 
       0.067871         4293.57         4340.96 
      0.0738098         3794.05          3819.9 
      0.0800417         3220.96         3248.48 
      0.0862327            2763         2736.89 
      0.0921407         2431.54         2355.05 
      0.0982031         2137.65         2085.41 
       0.104506         2015.32         1914.42 
       0.110769         1888.37         1811.18 
       0.116806         1790.29         1729.68 
       0.122832         1695.39         1633.08 
       0.129052          1538.9         1504.01 
       0.135211         1406.43         1354.75 
       0.141259         1295.09         1207.12 
       0.147318         1181.52         1077.52 
       0.153489         1068.03         975.741 
       0.159709          1005.6         904.904 
       0.165845         963.738          858.77 
       0.171974         917.369         824.747 
       0.178125         877.218         791.511 
       0.184229         834.541          752.23 
        0.19034         772.573         705.014 
       0.196428         741.834         653.326 
       0.202534         703.954         602.326 
       0.208729         657.508         556.577 
       0.214876         620.842           519.9 
       0.220989         594.815         491.998 
       0.227147         569.601         470.365 
        0.23329         545.689         452.089 
       0.239377         532.071         434.359 
       0.245482         493.619          415.21 
       0.251667         486.615         394.079 
       0.257832         464.597         372.171 
       0.263955         445.285          351.05 
       0.270079         424.343         331.824 
        0.27624         416.458         315.129 
       0.282372         400.575         301.122 
        0.28843         388.267         289.257 
       0.294538         368.269         278.472 
       0.300721         364.286         267.954 
        0.30691         347.118         257.348 
       0.313033         338.627         246.645 
       0.319153         326.199         235.966 
       0.325316         316.734         225.562 
        0.33145         305.482         215.908 
       0.337538          299.52         207.184 
       0.343633         289.099         199.324 
       0.349808         278.271         192.098 
       0.355968         274.439         185.398 
       0.362074         268.988         179.054 
       0.368217         260.891         172.812 
       0.374374         249.373         166.662 
       0.380519          246.75         160.656 
       0.386598         239.957         154.922 
       0.392688         236.367         149.473 
        0.39888          229.94         144.271 
       0.405048         223.818         139.438 
       0.411186         219.306          134.94 
       0.417313         214.526         130.691 
       0.423458         209.406         126.614 
       0.429607          205.54         122.679 
       0.435692         199.319           118.9 
       0.441815         196.988         115.212 
       0.447964         192.583         111.645 
       0.454126          186.23         108.221 
       0.460267         183.067         104.965 
       0.466387           180.5          101.88 
        0.47254         176.219         98.9289 
       0.478662         175.576         96.1222 
       0.484765         168.938         93.4344 
       0.490885          166.68         90.8372 
       0.497035         163.696         88.3174 
       0.503198         160.136         85.8769 
       0.509342         158.372         83.5272 
       0.515458         155.718         81.2739 
       0.521598         151.985         79.0999 
       0.527764         150.301         77.0034 
       0.533884         148.077         75.0029 
           0.54         145.438         73.0787 
       0.546137         144.192         71.2173 
       0.552299         141.126         69.4138 
       0.558452         139.761         67.6744 
       0.564573         137.463         66.0004 
       0.570708         134.271         64.3767 
       0.576825          132.52         62.8112 
       0.582926         130.056         61.3023 
       0.589034         128.656         59.8429 
       0.595184         127.153         58.4234 
       0.601379         124.868         57.0417 
       0.607522         122.905         55.7161 
       0.613639          121.64          54.438 
       0.619772         119.267         53.1964 
       0.625918         117.998         51.9908 
       0.632068         116.294         50.8217 
       0.638161         115.301          49.699 
         0.6443         113.569         48.6024 
       0.650464         112.494          47.535 
       0.656582         110.403         46.5075 
       0.662703         109.734         45.5102 
       0.668861         107.724         44.5366 
       0.675024         106.176         43.5908 
       0.681124         105.381          42.682 
       0.687237         103.635         41.7974 
       0.693381         101.989         40.9339 
       0.699536         101.271         40.0932 
       0.705665         100.496         39.2799 
       0.711789         98.8048           38.49 
       0.717957         98.6456         37.7164 
        0.72409         96.8163         36.9684 
       0.730186         95.4846         36.2453 
       0.736317         94.5568         35.5377 
       0.742472         93.7706         34.8463 
       0.748622         92.7704          34.174 
        0.75476         91.7674         33.5209 
       0.760888         90.7074         32.8859 
       0.767043         90.1463         32.2648 
       0.773185         89.2731         31.6611 
       0.779291          87.555         31.0762 
       0.785407         87.1049         30.5054 
       0.791564         86.5706         29.9452 
       0.797719         84.6272         29.3995 
       0.803834           84.28         28.8708 
       0.809972          83.531         28.3533 
       0.816124         82.9255         27.8473 
       0.822261         82.1716         27.3551 
       0.828378         81.4861         26.8762 
       0.834502         80.9439         26.4084 
       0.840667         79.6652         25.9487 
       0.846816         78.7553         25.5012 
       0.852925         78.2338         25.0671 
       0.859047         77.3251         24.6422 
       0.865192         76.7015         24.2257 
       0.871341         76.0193         23.8186 
       0.877463         75.0126         23.4226 
       0.883569         74.9338         23.0367 
       0.889708          74.037         22.6575 
       0.895864         73.3758         22.2858 
       0.902008         72.7641         21.9233 
       0.908149         72.3898          21.569 
       0.914301         71.5403          21.222 
       0.920448         70.9922          20.883 
       0.926574         70.3532         20.5525 
       0.932687         70.3021         20.2299 
       0.938823         69.1877         19.9131 
       0.944975         68.5043         19.6023 
       0.951105         67.9599         19.2993 
       0.957225         67.4635         19.0032 
       0.963368         66.6679         18.7123 
       0.969511         66.5704         18.4275 
       0.975621         66.0742         18.1501 
       0.981748         65.5974         17.8777 
       0.987916         64.8816         17.6093 
        0.99406         64.4421         17.3473 
        1.00019         64.1412         17.0912 
        1.00632         63.4295         16.8405 
        1.01246         63.1469         16.5944 
        1.01859         62.4125         16.3537 
        1.02471         61.9167          16.118 
        1.03085         61.3776         15.8861 
        1.03698           61.16         15.6593 
        1.04314         60.5778         15.4359 
        1.04929         60.2167         15.2174 
        1.05541         59.5528         15.0041 
        1.06154         59.4927         14.7942 
        1.06769         59.0559         14.5881 
        1.07382         58.5971         14.3865 
        1.07993         58.2853         14.1893 
        1.08607         57.7273         13.9949 
        1.09222         57.5853         13.8039 
        1.09836         56.9695         13.6167 
        1.10449         56.7353         13.4332 
        1.11063         56.1958         13.2528 
        1.11677         55.8437         13.0758 
         1.1229         55.3928         12.9024 
        1.12903          54.986         12.7319 
        1.13518         54.8699         12.5644 
        1.14131          54.499            12.4 
        1.14745         54.1008         12.2386 
        1.15359         53.7409           12.08 
        1.15973         53.3962         11.9242 
        1.16584         52.9301         11.7718 
        1.17197         52.6012         11.6219 
        1.17811         52.4174         11.4741 
        1.18424         51.9051         11.3293 
        1.19038         51.7364         11.1866 
        1.19652         51.3949         11.0464 
        1.20267         50.8102         10.9086 
        1.20881         50.7078         10.7732 
        1.21495         50.2437         10.6402 
        1.22108          50.234         10.5096 
         1.2272         49.5328         10.3814 
        1.23334         49.2931         10.2551 
        1.23949         49.1606         10.1306 
        1.24562         48.7108         10.0085 
        1.25174         48.5267         9.88852 
        1.25789         48.3423         9.77019 
        1.26402         47.8109           9.654 
        1.27014          47.652         9.53998 
        1.27628         47.3349         9.42744 
        1.28244         47.0644          9.3165 
        1.28858         46.9115         9.20749 
        1.29471         46.6535         9.10046 
        1.30084         46.3471         8.99523 
        1.30697         46.0274         8.89149 
        1.31312         45.7424         8.78924 
        1.31925         45.4696         8.68891 
        1.32537         45.2433         8.59025 
        1.33151         44.8827         8.49275 
        1.33765         44.7351         8.39683 
        1.34378         44.4856         8.30256 
        1.34992         44.1741         8.20968 
        1.35606         43.9554         8.11801 
         1.3622         43.6787          8.0279 
        1.36833         43.4968         7.93936 
        1.37445         43.1577          7.8522 
        1.38059         42.8803         7.76608 
        1.38675          42.675         7.68104 
        1.39288         42.4727          7.5976 
        1.39901          42.282         7.51544 
        1.40515         41.9573          7.4343 
         1.4113         41.7728          7.3544 
        1.41742         41.6801         7.27596 
        1.42355         41.3688         7.19852 
         1.4297         41.2205         7.12197 
        1.43585         41.0092         7.04656 
        1.44198          40.649         6.97253 
        1.44809          40.512          6.8997 
        1.45423         40.3352         6.82763 
        1.46036         40.0908         6.75672 
        1.46649           39.92          6.6868 
        1.47263         39.6853          6.6178 
        1.47877         39.3751          6.5498 
        1.48491         39.3369         6.48265 
        1.49104         39.0701         6.41658 
        1.49718         38.7682         6.35137 
        1.50333          38.779         6.28697 
        1.50947         38.4521         6.22359 
         1.5156         38.2957         6.16117 
        1.52172          38.131          6.0996 
        1.52787         37.9844         6.03876 
          1.534         37.6625         5.97881 
        1.54013         37.4771         5.91973 
        1.54627         37.4021         5.86134 
        1.55241         37.0254         5.80373 
        1.55855         36.9279         5.74697 
        1.56467          36.694         5.69112 
         1.5708         36.6637         5.63585 
        1.57695         36.4767         5.58122 
        1.58308         36.2498         5.52745 
        1.58922         35.9994         5.47434 
        1.59535         35.9256         5.42194 
         1.6015         35.6363         5.37015 
        1.60764         35.4806         5.31906 
        1.61376         35.3377         5.26878 
        1.61989         35.1669          5.2191 
        1.62604         34.9401         5.16995 
        1.63218         34.9352         5.12146 
        1.63831         34.6229          5.0737 
        1.64444         34.4952         5.02652 
        1.65059         34.4874         4.97984 
        1.65673          34.166         4.93379 
        1.66285         33.9403         4.88846 
        1.66898          33.901         4.84367 
        1.67512         33.5971         4.79936 
        1.68127         33.5256         4.75556 
         1.6874         33.3164         4.71241 
        1.69353         33.1602         4.66981 
        1.69967         33.0399         4.62763 
        1.70581         32.9586         4.58599 
        1.71193         32.7839         4.54502 
        1.71806         32.4831         4.50447 
        1.72421         32.4774         4.46432 
        1.73035         32.2865         4.42471 
        1.73649          32.063         4.38558 
        1.74262         31.9001         4.34696 
        1.74876          31.751         4.30878 
        1.75489         31.6651         4.27113 
        1.76101         31.5527         4.23394 
        1.76715         31.3769         4.19714 
        1.77329          31.214         4.16073 
        1.77943         31.0713         4.12473 
        1.78557         30.8969         4.08921 
        1.79171          30.822          4.0541 
        1.79785         30.6239          4.0194 
        1.80399         30.5939          3.9851 
        1.81012         30.3502         3.95125 
        1.81625         30.2294         3.91781 
        1.82239         30.0839          3.8847 
        1.82853         29.9922         3.85199 
        1.83466         29.7408         3.81968 
        1.84078         29.5807         3.78777 
        1.84692         29.5399         3.75618 
        1.85306         29.3628         3.72491 
         1.8592         29.2259         3.69404 
        1.86533         29.0964         3.66353 
        1.87147         28.9952         3.63333 
        1.87761         28.8613         3.60346 
        1.88375         28.7266         3.57396 
        1.88988         28.6186         3.54482 
        1.89601         28.4737         3.51598 
        1.90215         28.3983         3.48744 
        1.90829         28.3032         3.45924 
        1.91442         28.1446         3.43133 
        1.92056         27.9384         3.40377 
         1.9267         27.9177         3.37647 
        1.93284         27.6648         3.34945 
        1.93897         27.6232         3.32278 
        1.94509         27.4971         3.29646 
        1.95123         27.3659         3.27036 
        1.95737         27.2104         3.24451 
        1.96349          27.138         3.21901 
        1.96964         27.0118         3.19371 
        1.97578         26.8547         3.16867 
        1.98192         26.7681         3.14395 
        1.98805          26.676         3.11949 
        1.99419         26.5658         3.09528 
        2.00033         26.4086         3.07132 
        2.00647          26.344         3.04762 
         2.0126         26.1603         3.02421 
        2.01874         26.1031           3.001 
        2.02488         26.0071         2.97802 
        2.03101         25.8639         2.95532 
        2.03714         25.7745         2.93288 
        2.04328         25.6161         2.91064 
        2.04941          25.515         2.88865 
        2.05554         25.4085          2.8669 
        2.06167         25.3239         2.84535 
        2.06781         25.1828         2.82401 
        2.07396         25.1225         2.80287 
        2.08009         24.9622         2.78197 
        2.08622         24.8228         2.76131 
        2.09237         24.7821         2.74081 
        2.09851         24.6976         2.72052 
        2.10464         24.5534         2.70047 
        2.11077          24.499         2.68064 
        2.11691         24.3138         2.66097 
        2.12305         24.2266         2.64149 
        2.12918         24.1201         2.62226 
        2.13531         24.0655         2.60321 
        2.14145         23.9212          2.5843 
         2.1476          23.811         2.56556 
        2.15372         23.7176          2.5471 
        2.15985         23.6944         2.52881 
        2.16599         23.5231         2.51063 
        2.17213         23.4887         2.49266 
        2.17827         23.3308         2.47487 
         2.1844         23.2692         2.45726 
        2.19054         23.1635         2.43982 
        2.19666         23.0252         2.42257 
         2.2028         22.9517         2.40547 
        2.20893         22.9083         2.38853 
        2.21508          22.803         2.37173 
        2.22122         22.6562         2.35509 
        2.22736         22.6064         2.33864 
        2.23349         22.4492         2.32235 
        2.23962         22.4046          2.3062 
        2.24577         22.2765         2.29019 
         2.2519         22.2033         2.27436 
        2.25802         22.1324          2.2587 
        2.26417         22.0216         2.24315 
        2.27031         21.8984         2.22772 
        2.27644         21.8417         2.21249 
        2.28257         21.7733         2.19739 
        2.28872         21.6763         2.18241 
        2.29486         21.5705         2.16757 
        2.30099         21.4683          2.1529 
        2.30712         21.4105         2.13836 
        2.31326         21.3246         2.12393 
         2.3194         21.2255         2.10963 
        2.32553         21.1625         2.09549 
        2.33166         21.0636         2.08149 
         2.3378           20.97          2.0676 
        2.34394         20.8923         2.05382 
        2.35007          20.805         2.04019 
        2.35619         20.7278          2.0267 
        2.36233         20.6105          2.0133 
        2.36848         20.5449               2 
        2.37462         20.4511         1.98684 
        2.38075         20.4038         1.97381 
        2.38689         20.3048         1.96088 
        2.39303         20.2016         1.94808 
        2.39916         20.1028          1.9354 
        2.40529         20.0811         1.92283 
        2.41143         19.9885         1.91037 
        2.41757         19.8881         1.89801 
         2.4237         19.8299         1.88578 
        2.42983         19.7118         1.87366 
        2.43598         19.6641         1.86161 
        2.44211         19.5544         1.84969 
        2.44823         19.4883          1.8379 
        2.45437         19.3816         1.82618 
        2.46052         19.3043         1.81455 
        2.46665         19.2569         1.80304 
        2.47279         19.1859         1.79164 
        2.47892         19.1125         1.78032 
        2.48507         18.9982          1.7691 
         2.4912         18.9361         1.75799 
