# k  (h/Mpc)    Pcb(k)  (Mpc/h)^3    Pcb_linear(k)  (Mpc/h)^3
     0.00783031         12047.6           12095 
       0.013688         15724.1           16132 
       0.019231         17053.2         17329.3 
      0.0249154         16864.2         16911.1 
      0.0312784         15220.4         15467.8 
      0.0375637         13460.3         13807.8 
      0.0433917         12266.8         12454.6 
      0.0492413           11109         11403.8 
      0.0555754         10350.6         10576.6 
      0.0619321         9409.47         9936.77 
       0.067871         8993.86         9377.19 
      0.0738098         8465.01         8766.93 
      0.0800417            7777          8047.3 
      0.0862327         7022.59         7290.48 
      0.0921407         6384.98         6595.37 
      0.0982031         5867.33         5972.11 
       0.104506         5299.17         5458.21 
       0.110769         4952.34         5083.06 
       0.116806         4775.78         4820.08 
       0.122832         4509.01         4610.74 
       0.129052         4293.22         4405.16 
       0.135211          4160.5          4180.2 
       0.141259         3864.25          3928.6 
       0.147318         3576.95         3656.06 
       0.153489         3379.09         3379.71 
       0.159709         3244.21         3126.73 
       0.165845         2972.63         2918.39 
       0.171974         2904.71         2755.49 
       0.178125         2824.87         2630.69 
       0.184229         2618.38          2531.5 
        0.19034         2587.07         2441.15 
       0.196428         2518.43         2347.29 
       0.202534         2374.28          2242.7 
       0.208729          2323.5         2126.39 
       0.214876          2227.6         2006.94 
       0.220989         2117.73         1892.52 
       0.227147          2065.2         1789.06 
        0.23329         1988.99         1701.62 
       0.239377         1978.64         1630.52 
       0.245482         1892.86          1571.5 
       0.251667         1825.75         1519.07 
       0.257832         1802.11         1468.81 
       0.263955         1725.37         1417.16 
       0.270079         1686.51         1362.23 
        0.27624         1616.56          1304.5 
       0.282372         1600.17         1246.99 
        0.28843         1573.85         1192.79 
       0.294538         1505.59         1143.05 
       0.300721         1478.94         1098.72 
        0.30691         1445.91         1060.17 
       0.313033            1395         1026.41 
       0.319153         1382.11         995.268 
       0.325316         1365.38         964.766 
        0.33145         1339.57         934.167 
       0.337538         1298.57         903.142 
       0.343633         1269.57         871.832 
       0.349808         1248.13           840.6 
       0.355968         1223.97         810.899 
       0.362074         1191.22         783.527 
       0.368217          1187.9          758.38 
       0.374374         1170.37         735.425 
       0.380519         1132.38         714.264 
       0.386598         1128.27         694.488 
       0.392688         1101.74          675.24 
        0.39888         1079.43         655.887 
       0.405048         1061.51         636.739 
       0.411186         1056.59         617.869 
       0.417313         1055.49         599.512 
       0.423458         1022.38         581.859 
       0.429607         995.836         565.122 
       0.435692         989.333         549.592 
       0.441815         971.399         534.933 
       0.447964         961.629         521.001 
       0.454126         948.565         507.643 
       0.460267         937.976         494.764 
       0.466387         924.613         482.201 
        0.47254         907.485         469.795 
       0.478662         897.685         457.729 
       0.484765         889.992         446.038 
       0.490885         879.592         434.713 
       0.497035         865.538         423.797 
       0.503198         864.217          413.37 
       0.509342         848.874         403.453 
       0.515458         832.282         393.983 
       0.521598         830.343         384.812 
       0.527764         811.822         375.893 
       0.533884         805.361         367.286 
           0.54         798.873         358.894 
       0.546137         788.927         350.674 
       0.552299         783.968         342.649 
       0.558452         776.369         334.894 
       0.564573         769.459         327.448 
       0.570708         763.074         320.249 
       0.576825         747.674         313.317 
       0.582926         745.827         306.634 
       0.589034         737.174         300.157 
       0.595184         729.313         293.832 
       0.601379         718.088         287.641 
       0.607522         709.032         281.662 
       0.613639         707.936         275.858 
       0.619772         702.542         270.192 
       0.625918         692.615         264.674 
       0.632068         688.134         259.316 
       0.638161         679.381         254.169 
         0.6443         673.685          249.14 
       0.650464         668.561         244.239 
       0.656582         663.486         239.508 
       0.662703         655.059         234.902 
       0.668861         649.148         230.388 
       0.675024         644.501         225.986 
       0.681124         635.039         221.744 
       0.687237         634.595         217.603 
       0.693381         624.157         213.551 
       0.699536         623.598         209.597 
       0.705665         616.649         205.763 
       0.711789         614.864         202.031 
       0.717957         606.568         198.368 
        0.72409         601.468         194.818 
       0.730186         600.406         191.378 
       0.736317         592.521         188.003 
       0.742472         585.293         184.698 
       0.748622         582.865         181.477 
        0.75476         577.173         178.341 
       0.760888         574.108         175.285 
       0.767043         571.468         172.289 
       0.773185          567.77         169.371 
       0.779291         560.559         166.539 
       0.785407         556.808         163.768 
       0.791564         552.913         161.044 
       0.797719          545.28         158.384 
       0.803834          546.75         155.802 
       0.809972         539.222         153.269 
       0.816124         535.012         150.788 
       0.822261         531.864         148.369 
       0.828378         529.206         146.011 
       0.834502         521.431         143.703 
       0.840667         520.835         141.431 
       0.846816         514.969         139.216 
       0.852925         514.006         137.062 
       0.859047         509.373          134.95 
       0.865192          506.45         132.877 
       0.871341          500.09         130.846 
       0.877463         498.363         128.868 
       0.883569         493.275         126.936 
       0.889708         488.688         125.035 
       0.895864         484.638         123.169 
       0.902008         483.738         121.345 
       0.908149         479.581         119.559 
       0.914301         477.761         117.807 
       0.920448         472.151         116.093 
       0.926574         470.059         114.419 
       0.932687         468.255         112.782 
       0.938823         462.333         111.171 
       0.944975         460.257         109.589 
       0.951105         457.212         108.044 
       0.957225         450.461         106.531 
       0.963368         451.886         105.043 
       0.969511         444.247         103.583 
       0.975621         444.233          102.16 
       0.981748         441.085          100.76 
       0.987916         438.496         99.3773 
        0.99406         434.629         98.0263 
        1.00019         430.144         96.7035 
        1.00632          429.54         95.4066 
        1.01246         426.129         94.1319 
        1.01859         421.771         92.8828 
        1.02471         419.785         91.6583 
        1.03085         417.678         90.4519 
        1.03698         415.267           89.27 
        1.04314         412.671         88.1045 
        1.04929         410.211         86.9628 
        1.05541         404.625         85.8462 
        1.06154         404.019         84.7467 
        1.06769         399.881         83.6651 
        1.07382         398.104         82.6061 
        1.07993         396.007         81.5682 
        1.08607         393.095          80.544 
        1.09222         390.051         79.5366 
        1.09836         388.021         78.5478 
        1.10449         385.169         77.5773 
        1.11063         382.459         76.6223 
        1.11677         378.488         75.6839 
         1.1229          377.85          74.763 
        1.12903         374.822         73.8569 
        1.13518         372.378         72.9653 
        1.14131         371.172          72.089 
        1.14745         366.315         71.2278 
        1.15359         363.924         70.3807 
        1.15973         362.652         69.5472 
        1.16584         360.914          68.731 
        1.17197         357.953          67.927 
        1.17811         354.474         67.1335 
        1.18424         352.976         66.3552 
        1.19038         350.952         65.5871 
        1.19652         347.238         64.8315 
        1.20267         346.656          64.088 
        1.20881         344.711         63.3564 
        1.21495         341.309         62.6375 
        1.22108         339.985           61.93 
         1.2272         335.364         61.2352 
        1.23334          334.61         60.5496 
        1.23949         332.555          59.873 
        1.24562         331.638         59.2087 
        1.25174         328.298         58.5556 
        1.25789         325.974         57.9104 
        1.26402         324.879         57.2763 
        1.27014         323.209         56.6533 
        1.27628         319.894         56.0378 
        1.28244         318.267         55.4304 
        1.28858         316.588         54.8329 
        1.29471         314.956         54.2457 
        1.30084         313.275         53.6676 
        1.30697         310.089         53.0973 
        1.31312         307.977         52.5344 
        1.31925         306.721         51.9816 
        1.32537         305.134         51.4375 
        1.33151         302.317         50.8992 
        1.33765         300.318          50.369 
        1.34378          298.24         49.8476 
        1.34992         295.895         49.3332 
        1.35606         294.603          48.825 
         1.3622         293.075          48.325 
        1.36833         291.545         47.8333 
        1.37445          289.97         47.3488 
        1.38059         287.012         46.8695 
        1.38675         285.672         46.3958 
        1.39288         284.565         45.9306 
        1.39901         281.831          45.472 
        1.40515         280.541         45.0188 
         1.4113          278.38         44.5719 
        1.41742         275.832         44.1329 
        1.42355         276.116          43.699 
         1.4297         273.416         43.2697 
        1.43585         270.808         42.8465 
        1.44198         269.772         42.4305 
        1.44809         268.559         42.0209 
        1.45423         266.611         41.6153 
        1.46036          265.12         41.2158 
        1.46649         263.815         40.8214 
        1.47263         261.232          40.432 
        1.47877         259.934         40.0479 
        1.48491         257.976         39.6681 
        1.49104         256.311         39.2942 
        1.49718         255.012         38.9249 
        1.50333          252.77         38.5597 
        1.50947          252.18            38.2 
         1.5156         250.103         37.8455 
        1.52172         248.479         37.4955 
        1.52787         246.836         37.1493 
          1.534         246.382          36.808 
        1.54013           244.1         36.4713 
        1.54627         242.962         36.1382 
        1.55241         241.246         35.8093 
        1.55855         240.189          35.485 
        1.56467         238.402         35.1657 
         1.5708         237.081         34.8494 
        1.57695         235.625         34.5366 
        1.58308         234.345         34.2284 
        1.58922         232.527         33.9237 
        1.59535         230.703         33.6229 
         1.6015         229.794         33.3254 
        1.60764         228.338         33.0316 
        1.61376         226.352         32.7423 
        1.61989         224.962         32.4562 
        1.62604         223.523         32.1729 
        1.63218         222.347         31.8932 
        1.63831         221.889         31.6175 
        1.64444         219.699          31.345 
        1.65059          218.91          31.075 
        1.65673         216.959         30.8086 
        1.66285         216.083         30.5461 
        1.66898         214.829         30.2866 
        1.67512          213.14         30.0296 
        1.68127         212.202         29.7754 
         1.6874         210.695         29.5247 
        1.69353         209.657         29.2771 
        1.69967         208.163         29.0318 
        1.70581         207.208         28.7894 
        1.71193           205.7         28.5507 
        1.71806         204.208         28.3143 
        1.72421         203.374           28.08 
        1.73035         201.652         27.8487 
        1.73649         200.293         27.6201 
        1.74262         199.562         27.3943 
        1.74876         198.369         27.1708 
        1.75489          197.32         26.9504 
        1.76101         196.128         26.7324 
        1.76715         194.719         26.5166 
        1.77329         193.158          26.303 
        1.77943         192.121         26.0916 
        1.78557         191.413         25.8829 
        1.79171         190.477         25.6764 
        1.79785         189.215         25.4722 
        1.80399         187.858         25.2702 
        1.81012           186.8         25.0708 
        1.81625         185.527         24.8735 
        1.82239         184.385         24.6782 
        1.82853         183.717          24.485 
        1.83466         182.141         24.2942 
        1.84078          181.32         24.1055 
        1.84692         180.318         23.9186 
        1.85306         178.895         23.7335 
         1.8592           178.3         23.5506 
        1.86533         176.524         23.3698 
        1.87147         175.863         23.1906 
        1.87761         174.901         23.0133 
        1.88375         173.379         22.8381 
        1.88988          172.78         22.6649 
        1.89601         172.396         22.4934 
        1.90215          170.95         22.3236 
        1.90829         169.669         22.1556 
        1.91442         168.948         21.9893 
        1.92056         167.527         21.8249 
         1.9267         166.992         21.6621 
        1.93284         165.847         21.5008 
        1.93897         164.802         21.3415 
        1.94509         163.919         21.1841 
        1.95123         162.977          21.028 
        1.95737         162.302         20.8733 
        1.96349         161.005         20.7206 
        1.96964         160.164          20.569 
        1.97578         159.182         20.4189 
        1.98192         158.286         20.2705 
        1.98805         157.382         20.1237 
        1.99419         156.122         19.9783 
        2.00033         155.642         19.8342 
        2.00647         154.564         19.6917 
         2.0126         153.687         19.5508 
        2.01874         152.771         19.4111 
        2.02488         151.993         19.2726 
        2.03101         151.554         19.1357 
        2.03714         150.267         19.0003 
        2.04328         149.199         18.8661 
        2.04941         148.938         18.7333 
        2.05554         147.946         18.6019 
        2.06167         146.817         18.4716 
        2.06781         146.045         18.3425 
        2.07396         145.138         18.2145 
        2.08009         144.612         18.0879 
        2.08622         143.353         17.9627 
        2.09237         142.517         17.8384 
        2.09851         142.001         17.7153 
        2.10464         141.227         17.5936 
        2.11077         140.309         17.4731 
        2.11691         139.709         17.3536 
        2.12305         138.823         17.2351 
        2.12918         137.833         17.1181 
        2.13531         137.009         17.0021 
        2.14145         136.419          16.887 
         2.1476         135.548         16.7728 
        2.15372         134.862         16.6602 
        2.15985         133.926         16.5486 
        2.16599         133.292         16.4377 
        2.17213         132.537         16.3279 
        2.17827         131.797         16.2191 
         2.1844         131.121         16.1115 
        2.19054         130.206         16.0048 
        2.19666         129.503         15.8992 
         2.2028         128.922         15.7945 
        2.20893         128.359         15.6907 
        2.21508         127.072         15.5877 
        2.22122         126.565         15.4856 
        2.22736         126.012         15.3846 
        2.23349         125.393         15.2846 
        2.23962         124.649         15.1854 
        2.24577         123.975         15.0871 
         2.2519         123.053         14.9897 
        2.25802         122.656         14.8933 
        2.26417         121.774         14.7976 
        2.27031         121.125         14.7026 
        2.27644         120.587         14.6087 
        2.28257          120.04         14.5156 
        2.28872         119.196         14.4232 
        2.29486           118.6         14.3316 
        2.30099         117.758         14.2411 
        2.30712         117.349         14.1512 
        2.31326         116.581          14.062 
         2.3194         116.076         13.9736 
        2.32553         115.219         13.8861 
        2.33166         115.038         13.7994 
         2.3378         114.165         13.7134 
        2.34394          113.19          13.628 
        2.35007         112.747         13.5435 
        2.35619          112.11         13.4599 
        2.36233         111.661         13.3767 
        2.36848         110.847         13.2941 
        2.37462         110.519         13.2123 
        2.38075         109.867         13.1314 
        2.38689          109.28          13.051 
        2.39303         108.587         12.9713 
        2.39916         108.175         12.8924 
        2.40529         107.603         12.8142 
        2.41143         106.734         12.7365 
        2.41757         106.087         12.6595 
         2.4237         105.769         12.5833 
        2.42983         105.049         12.5077 
        2.43598         104.614         12.4325 
        2.44211         104.046          12.358 
        2.44823         103.432         12.2844 
        2.45437         102.972         12.2111 
        2.46052         102.253         12.1384 
        2.46665         101.794         12.0664 
        2.47279         101.249          11.995 
        2.47892         100.721         11.9242 
        2.48507         100.307         11.8539 
         2.4912         99.6324         11.7842 
