# k  (h/Mpc)    Pcb(k)  (Mpc/h)^3    Pcb_linear(k)  (Mpc/h)^3
     0.00783031         91.6611         92.3687 
       0.013688         122.456         122.939 
       0.019231         132.586         132.754 
      0.0249154         130.351         130.802 
      0.0312784         120.984         121.111 
      0.0375637         109.238         109.152 
      0.0433917         98.8318         98.8501 
      0.0492413         90.4925          90.418 
      0.0555754         83.4207          83.483 
      0.0619321         78.2503         78.1202 
       0.067871         73.6401          73.713 
      0.0738098         69.1297         69.2334 
      0.0800417         63.9624         64.1205 
      0.0862327         58.6146         58.6903 
      0.0921407         53.4806         53.5106 
      0.0982031         48.5496         48.6047 
       0.104506         44.3379         44.2776 
       0.110769         40.9386         40.8925 
       0.116806         38.3669         38.4169 
       0.122832         36.5112         36.5031 
       0.129052         34.7666         34.8286 
       0.135211         33.1244         33.2108 
       0.141259         31.4622         31.5005 
       0.147318         29.6411          29.628 
       0.153489         27.6063         27.6271 
       0.159709         25.6372         25.6502 
       0.165845         23.9437         23.8742 
       0.171974         22.3554         22.3629 
       0.178125         21.1378         21.1342 
       0.184229         20.1938         20.1636 
        0.19034         19.3276         19.3632 
       0.196428         18.6427         18.6459 
       0.202534         17.9774         17.9288 
       0.208729         17.1661         17.1557 
       0.214876         16.3112         16.3354 
       0.220989          15.544         15.4926 
       0.227147         14.6433         14.6601 
        0.23329         13.8788         13.8899 
       0.239377         13.2169         13.2157 
       0.245482         12.6248         12.6375 
       0.251667         12.1671         12.1411 
       0.257832         11.7185          11.711 
       0.263955         11.3328         11.3183 
       0.270079         10.9517         10.9334 
        0.27624         10.5854         10.5382 
       0.282372         10.1758         10.1326 
        0.28843         9.74546         9.72611 
       0.294538         9.34953         9.32359 
       0.300721         8.98877         8.93736 
        0.30691         8.60842         8.58306 
       0.313033         8.30081         8.26819 
       0.319153         7.97992         7.98719 
       0.325316         7.78018         7.73073 
        0.33145          7.5338         7.49295 
       0.337538         7.30102         7.26514 
       0.343633         7.06663         7.03963 
       0.349808         6.84867         6.81092 
       0.355968         6.62404          6.5839 
       0.362074         6.39951         6.36321 
       0.368217         6.18943         6.14977 
       0.374374         5.97005         5.94815 
       0.380519         5.80063         5.76071 
       0.386598         5.63507         5.58905 
       0.392688         5.48168         5.42874 
        0.39888          5.3213         5.27493 
       0.405048         5.17699         5.12813 
       0.411186         5.03935         4.98579 
       0.417313         4.88767         4.84637 
       0.423458         4.76091         4.70907 
       0.429607         4.61636         4.57473 
       0.435692         4.48763          4.4461 
       0.441815         4.36716         4.32204 
       0.447964         4.26283         4.20342 
       0.454126         4.13463         4.09078 
       0.460267         4.02596         3.98438 
       0.466387         3.92114         3.88318 
        0.47254         3.82797         3.78537 
       0.478662         3.73769         3.69126 
       0.484765         3.64135         3.59997 
       0.490885         3.55288         3.51061 
       0.497035         3.48112         3.42315 
       0.503198         3.38855         3.33815 
       0.509342         3.31113         3.25623 
       0.515458         3.22603         3.17764 
       0.521598         3.15239         3.10184 
       0.527764         3.07276         3.02881 
       0.533884         3.01311         2.95907 
           0.54         2.94308          2.8918 
       0.546137         2.88171         2.82642 
       0.552299         2.81587         2.76272 
       0.558452         2.74689         2.70092 
       0.564573         2.69207         2.64109 
       0.570708         2.63462         2.58274 
       0.576825         2.57413         2.52627 
       0.582926         2.52577         2.47172 
       0.589034         2.45974         2.41886 
       0.595184         2.41181         2.36735 
       0.601379         2.36221         2.31712 
       0.607522         2.31916         2.26884 
       0.613639         2.27934          2.2222 
       0.619772         2.22371         2.17679 
       0.625918         2.18234         2.13254 
       0.632068         2.14362         2.08946 
       0.638161         2.09771         2.04789 
         0.6443         2.05601         2.00712 
       0.650464         2.01204         1.96731 
       0.656582         1.97798          1.9289 
       0.662703         1.94143         1.89156 
       0.668861         1.90957         1.85505 
       0.675024          1.8691         1.81953 
       0.681124         1.83008         1.78533 
       0.687237         1.80297         1.75194 
       0.693381          1.7711         1.71926 
       0.699536         1.72955         1.68734 
       0.705665         1.70117         1.65638 
       0.711789         1.67424         1.62622 
       0.717957         1.64147         1.59662 
        0.72409         1.61466         1.56793 
       0.730186         1.58512         1.54014 
       0.736317         1.56355         1.51288 
       0.742472          1.5352         1.48619 
       0.748622         1.50709         1.46019 
        0.75476         1.47809         1.43487 
       0.760888         1.45289          1.4102 
       0.767043         1.43657         1.38602 
       0.773185         1.40793         1.36246 
       0.779291         1.38514         1.33959 
       0.785407         1.36357         1.31723 
       0.791564         1.34161         1.29524 
       0.797719         1.32207         1.27377 
       0.803834         1.30101         1.25293 
       0.809972         1.27955         1.23249 
       0.816124         1.25808         1.21246 
       0.822261         1.23662         1.19294 
       0.828378         1.22038         1.17392 
       0.834502          1.2034          1.1553 
       0.840667          1.1805         1.13697 
       0.846816         1.16302         1.11909 
       0.852925          1.1495         1.10172 
       0.859047         1.13186         1.08468 
       0.865192         1.11325         1.06795 
       0.871341         1.09597         1.05157 
       0.877463         1.08417         1.03561 
       0.883569         1.06523         1.02002 
       0.889708         1.04935         1.00468 
       0.895864         1.03452        0.989625 
       0.902008         1.01808         0.97491 
       0.908149         1.00353        0.960507 
       0.914301        0.985797        0.946376 
       0.920448        0.973818        0.932545 
       0.926574         0.95963        0.919043 
       0.932687        0.946149         0.90584 
       0.938823        0.936817        0.892853 
       0.944975        0.922406        0.880093 
       0.951105        0.910616        0.867632 
       0.957225        0.900059        0.855437 
       0.963368        0.886779        0.843437 
       0.969511        0.872948         0.83167 
       0.975621        0.860348        0.820194 
       0.981748        0.852242        0.808907 
       0.987916         0.84011        0.797764 
        0.99406        0.828123        0.786876 
        1.00019        0.819416        0.776215 
        1.00632          0.8057        0.765763 
        1.01246        0.795332        0.755491 
        1.01859        0.786717        0.745426 
        1.02471        0.775764        0.735559 
        1.03085        0.768494        0.725838 
        1.03698        0.756639        0.716315 
        1.04314        0.747864        0.706925 
        1.04929        0.737305        0.697727 
        1.05541        0.729684        0.688732 
        1.06154        0.719456        0.679875 
        1.06769        0.709688        0.671162 
        1.07382        0.702223        0.662632 
        1.07993        0.692068        0.654271 
        1.08607        0.686712        0.646021 
        1.09222        0.676513        0.637906 
        1.09836         0.67089        0.629942 
        1.10449        0.662254        0.622125 
        1.11063        0.652759        0.614433 
        1.11677        0.644044        0.606875 
         1.1229        0.637962        0.599458 
        1.12903        0.629353        0.592161 
        1.13518        0.623496         0.58498 
        1.14131        0.615148        0.577924 
        1.14745        0.605722        0.570989 
        1.15359        0.601131        0.564168 
        1.15973        0.592413        0.557456 
        1.16584         0.58834        0.550885 
        1.17197        0.580888        0.544412 
        1.17811        0.575078        0.538024 
        1.18424        0.570048        0.531758 
        1.19038        0.562012        0.525575 
        1.19652        0.554136        0.519493 
        1.20267        0.550401        0.513509 
        1.20881        0.543408        0.507621 
        1.21495        0.538878        0.501836 
        1.22108         0.53259        0.496143 
         1.2272        0.527361        0.490552 
        1.23334        0.520965        0.485036 
        1.23949        0.515338        0.479592 
        1.24562        0.509987        0.474247 
        1.25174        0.504949        0.468993 
        1.25789        0.500264        0.463803 
        1.26402        0.493271        0.458702 
        1.27014        0.488738        0.453691 
        1.27628        0.484549         0.44874 
        1.28244        0.477572        0.443854 
        1.28858         0.47366        0.439048 
        1.29471        0.470214        0.434325 
        1.30084        0.464071        0.429676 
        1.30697        0.459559        0.425089 
        1.31312        0.453291        0.420563 
        1.31925        0.449574        0.416118 
        1.32537        0.445803        0.411742 
        1.33151        0.441831        0.407413 
        1.33765        0.437237         0.40315 
        1.34378        0.431803        0.398957 
        1.34992        0.428324        0.394821 
        1.35606        0.423911        0.390735 
         1.3622        0.419848        0.386715 
        1.36833        0.415561        0.382762 
        1.37445        0.410388        0.378866 
        1.38059         0.40686        0.375013 
        1.38675        0.405116        0.371205 
        1.39288        0.400196        0.367465 
        1.39901        0.396495        0.363779 
        1.40515        0.393185        0.360136 
         1.4113        0.388356        0.356544 
        1.41742        0.384813        0.353016 
        1.42355        0.382321        0.349529 
         1.4297        0.377792        0.346079 
        1.43585        0.374839        0.342678 
        1.44198        0.372004        0.339336 
        1.44809        0.367639        0.336045 
        1.45423        0.364735        0.332785 
        1.46036        0.360992        0.329576 
        1.46649        0.358692        0.326408 
        1.47263        0.354814        0.323279 
        1.47877        0.350877        0.320193 
        1.48491        0.348489        0.317143 
        1.49104         0.34441        0.314139 
        1.49718        0.341729        0.311173 
        1.50333        0.339584         0.30824 
        1.50947        0.336012        0.305351 
         1.5156        0.332835        0.302504 
        1.52172        0.330213        0.299694 
        1.52787        0.327296        0.296914 
          1.534        0.324025        0.294173 
        1.54013        0.321061        0.291469 
        1.54627        0.319004        0.288795 
        1.55241        0.315675        0.286154 
        1.55855        0.312476         0.28355 
        1.56467        0.311316        0.280986 
         1.5708        0.308002        0.278447 
        1.57695        0.305411        0.275935 
        1.58308        0.302667        0.273461 
        1.58922        0.300374        0.271015 
        1.59535        0.297767          0.2686 
         1.6015        0.294952        0.266212 
        1.60764          0.2929        0.263854 
        1.61376        0.289823        0.261531 
        1.61989        0.287853        0.259234 
        1.62604        0.285842        0.256961 
        1.63218        0.283455        0.254716 
        1.63831        0.281147        0.252503 
        1.64444         0.27886        0.250316 
        1.65059        0.276622         0.24815 
        1.65673        0.274425        0.246012 
        1.66285        0.272628        0.243906 
        1.66898        0.270192        0.241823 
        1.67512        0.267602        0.239761 
        1.68127        0.265362        0.237722 
         1.6874        0.263958        0.235711 
        1.69353        0.261166        0.233724 
        1.69967        0.260072        0.231756 
        1.70581        0.257038        0.229812 
        1.71193        0.255352        0.227897 
        1.71806         0.25293           0.226 
        1.72421        0.251878        0.224122 
        1.73035        0.249424        0.222266 
        1.73649        0.247932        0.220433 
        1.74262        0.245832        0.218622 
        1.74876        0.243867         0.21683 
        1.75489        0.242364        0.215062 
        1.76101         0.23985        0.213314 
        1.76715        0.238222        0.211584 
        1.77329        0.236106        0.209871 
        1.77943        0.234637        0.208176 
        1.78557        0.233288        0.206502 
        1.79171        0.231429        0.204847 
        1.79785        0.229643        0.203209 
        1.80399        0.227867         0.20159 
        1.81012         0.22642        0.199991 
        1.81625        0.224511         0.19841 
        1.82239        0.222938        0.196844 
        1.82853        0.221049        0.195295 
        1.83466        0.219807        0.193765 
        1.84078         0.21812        0.192253 
        1.84692        0.216405        0.190755 
        1.85306        0.215154        0.189271 
         1.8592        0.213218        0.187805 
        1.86533        0.212023        0.186356 
        1.87147        0.210512         0.18492 
        1.87761        0.209305          0.1835 
        1.88375        0.207369        0.182095 
        1.88988        0.205968        0.180707 
        1.89601        0.204355        0.179333 
        1.90215        0.203168        0.177972 
        1.90829         0.20147        0.176626 
        1.91442        0.200536        0.175294 
        1.92056        0.198843        0.173977 
         1.9267        0.197317        0.172672 
        1.93284        0.196076         0.17138 
        1.93897        0.194661        0.170104 
        1.94509        0.193648        0.168844 
        1.95123        0.192115        0.167593 
        1.95737         0.19102        0.166354 
        1.96349        0.189539        0.165131 
        1.96964        0.188168        0.163916 
        1.97578        0.186936        0.162714 
        1.98192        0.185995        0.161526 
        1.98805        0.184749        0.160349 
        1.99419        0.183099        0.159185 
        2.00033        0.181927        0.158032 
        2.00647        0.181164         0.15689 
         2.0126        0.179538        0.155762 
        2.01874        0.178721        0.154643 
        2.02488        0.177447        0.153534 
        2.03101        0.176332        0.152438 
        2.03714        0.174947        0.151354 
        2.04328        0.174059         0.15028 
        2.04941        0.172635        0.149217 
        2.05554        0.171825        0.148164 
        2.06167        0.170987        0.147121 
        2.06781        0.169406        0.146088 
        2.07396        0.168386        0.145063 
        2.08009        0.167294         0.14405 
        2.08622         0.16643        0.143047 
        2.09237        0.165479        0.142053 
        2.09851        0.164433        0.141067 
        2.10464         0.16347        0.140093 
        2.11077        0.162119        0.139129 
        2.11691        0.161283        0.138172 
        2.12305        0.160168        0.137224 
        2.12918        0.159412        0.136287 
        2.13531        0.158238        0.135359 
        2.14145        0.157072        0.134438 
         2.1476         0.15627        0.133524 
        2.15372        0.155622        0.132623 
        2.15985        0.154434         0.13173 
        2.16599        0.153415        0.130843 
        2.17213        0.152586        0.129964 
        2.17827        0.151508        0.129094 
         2.1844        0.150837        0.128233 
        2.19054        0.149857        0.127379 
        2.19666         0.14868        0.126535 
         2.2028        0.147962        0.125697 
        2.20893        0.147397        0.124867 
        2.21508        0.146047        0.124043 
        2.22122        0.145221        0.123226 
        2.22736        0.144685        0.122419 
        2.23349        0.143719        0.121619 
        2.23962         0.14303        0.120825 
        2.24577        0.141928        0.120038 
         2.2519        0.141273         0.11926 
        2.25802        0.140376        0.118489 
        2.26417        0.139645        0.117723 
        2.27031         0.13868        0.116964 
        2.27644        0.137928        0.116213 
        2.28257         0.13713        0.115469 
        2.28872        0.136514         0.11473 
        2.29486        0.135902        0.113997 
        2.30099        0.134863        0.113273 
        2.30712        0.134139        0.112555 
        2.31326        0.133144        0.111841 
         2.3194        0.132926        0.111135 
        2.32553        0.131986        0.110435 
        2.33166        0.131435        0.109742 
         2.3378         0.13057        0.109054 
        2.34394        0.129814        0.108372 
        2.35007        0.129018        0.107697 
        2.35619        0.128124        0.107028 
        2.36233        0.127664        0.106363 
        2.36848        0.127023        0.105703 
        2.37462        0.126076         0.10505 
        2.38075        0.125598        0.104402 
        2.38689        0.124951         0.10376 
        2.39303        0.124381        0.103124 
        2.39916        0.123486        0.102493 
        2.40529        0.122927        0.101868 
        2.41143        0.122186        0.101247 
        2.41757        0.121533        0.100631 
         2.4237        0.121031        0.100022 
        2.42983        0.120372        0.099418 
        2.43598         0.11992       0.0988172 
        2.44211        0.118984       0.0982224 
        2.44823        0.118579       0.0976339 
        2.45437        0.117721       0.0970486 
        2.46052        0.117312       0.0964677 
        2.46665        0.116565       0.0958925 
        2.47279        0.115883       0.0953223 
        2.47892        0.115129       0.0947564 
        2.48507         0.11462       0.0941945 
         2.4912        0.114112       0.0936383 
