# k  (h/Mpc)    Pcb(k)  (Mpc/h)^3    Pcb_linear(k)  (Mpc/h)^3
     0.00783031         6379.81         6454.88 
       0.013688         8625.96         8586.34 
       0.019231         9267.96         9269.28 
      0.0249154         8987.13          9131.5 
      0.0312784         8373.05         8454.02 
      0.0375637         7591.74         7618.75 
      0.0433917         6779.33         6899.38 
      0.0492413         6246.82         6310.66 
      0.0555754         5667.55          5826.5 
      0.0619321         5425.88         5452.12 
       0.067871         5007.16         5144.48 
      0.0738098         4692.97         4831.79 
      0.0800417         4298.19         4474.92 
      0.0862327         3967.27         4095.92 
      0.0921407         3651.59         3734.41 
      0.0982031         3301.21         3392.02 
       0.104506         3077.56         3090.02 
       0.110769         2841.59         2853.78 
       0.116806         2650.46         2681.01 
       0.122832         2533.49         2547.44 
       0.129052         2375.98         2430.58 
       0.135211         2268.15         2317.67 
       0.141259         2177.22         2198.31 
       0.147318         2063.75         2067.64 
       0.153489         1908.91         1927.99 
       0.159709         1802.44         1790.03 
       0.165845         1721.98         1666.09 
       0.171974         1610.81         1560.62 
       0.178125         1529.66         1474.87 
       0.184229         1471.07         1407.14 
        0.19034            1382         1351.28 
       0.196428         1361.54         1301.22 
       0.202534         1321.51         1251.18 
       0.208729         1262.76         1197.23 
       0.214876         1200.71         1139.98 
       0.220989         1167.72         1081.16 
       0.227147         1103.03         1023.07 
        0.23329         1058.96         969.319 
       0.239377         1036.64         922.264 
       0.245482         970.475         881.915 
       0.251667         961.917         847.275 
       0.257832         929.061         817.257 
       0.263955         900.259         789.852 
       0.270079         872.543         762.996 
        0.27624         863.361         735.413 
       0.282372         826.944         707.108 
        0.28843          809.35         678.741 
       0.294538          772.47         650.651 
       0.300721         768.664         623.698 
        0.30691         734.279         598.972 
       0.313033         720.005         576.999 
       0.319153         699.435          557.39 
       0.325316         679.249         539.492 
        0.33145         661.585         522.899 
       0.337538         654.773         507.001 
       0.343633         634.952         491.263 
       0.349808         615.874         475.303 
       0.355968         610.853          459.46 
       0.362074         598.779         444.059 
       0.368217         583.153         429.164 
       0.374374         561.881         415.094 
       0.380519         556.154         402.013 
       0.386598         544.178         390.034 
       0.392688         541.032         378.847 
        0.39888         525.823         368.113 
       0.405048         516.686         357.868 
       0.411186         506.878         347.935 
       0.417313         498.369         338.205 
       0.423458         490.282         328.624 
       0.429607         479.865         319.248 
       0.435692         469.101         310.272 
       0.441815         466.496         301.615 
       0.447964         457.786         293.337 
       0.454126         442.924         285.476 
       0.460267         438.326         278.051 
       0.466387          433.49         270.989 
        0.47254         424.857         264.163 
       0.478662          423.25         257.595 
       0.484765          412.22         251.225 
       0.490885         407.448         244.989 
       0.497035         401.101         238.885 
       0.503198         393.071         232.954 
       0.509342         390.116         227.237 
       0.515458         385.903         221.752 
       0.521598         380.005         216.463 
       0.527764         372.989         211.366 
       0.533884         369.795           206.5 
           0.54         365.119         201.805 
       0.546137         363.795         197.242 
       0.552299         356.881         192.797 
       0.558452          353.21         188.484 
       0.564573         347.438         184.309 
       0.570708         342.152         180.237 
       0.576825         337.728         176.296 
       0.582926         334.844         172.489 
       0.589034         330.553           168.8 
       0.595184         327.862         165.206 
       0.601379         324.991         161.701 
       0.607522         318.981         158.332 
       0.613639         317.934         155.077 
       0.619772         310.291         151.907 
       0.625918          308.86          148.82 
       0.632068         305.052         145.813 
       0.638161         303.862         142.913 
         0.6443         298.509         140.067 
       0.650464         296.285         137.289 
       0.656582         294.945         134.608 
       0.662703         291.303         132.003 
       0.668861         287.114         129.455 
       0.675024         284.343         126.976 
       0.681124         283.372         124.589 
       0.687237         279.185          122.26 
       0.693381         275.517         119.979 
       0.699536         273.641         117.751 
       0.705665         272.913          115.59 
       0.711789         268.439         113.486 
       0.717957         266.932          111.42 
        0.72409         264.015         109.418 
       0.730186         260.637         107.479 
       0.736317         258.959         105.577 
       0.742472         257.724         103.714 
       0.748622         255.913         101.899 
        0.75476         253.663         100.133 
       0.760888         250.292         98.4109 
       0.767043         249.171         96.7234 
       0.773185         246.468         95.0795 
       0.779291         242.717         93.4837 
       0.785407         242.006         91.9228 
       0.791564         239.885         90.3882 
       0.797719         237.329         88.8899 
       0.803834         236.286         87.4356 
       0.809972         233.668         86.0091 
       0.816124         233.937         84.6118 
       0.822261         230.305         83.2498 
       0.828378         228.745         81.9222 
       0.834502         228.425         80.6228 
       0.840667         224.753         79.3436 
       0.846816         223.933         78.0961 
       0.852925         221.857         76.8836 
       0.859047         220.203         75.6946 
       0.865192         219.006         74.5271 
       0.871341         216.554         73.3839 
       0.877463         215.439         72.2701 
       0.883569         213.376         71.1825 
       0.889708         212.114          70.112 
       0.895864         209.857         69.0611 
       0.902008         209.068         68.0342 
       0.908149         207.897         67.0291 
       0.914301         205.656         66.0429 
       0.920448         204.332         65.0777 
       0.926574         203.339         64.1355 
       0.932687         202.042         63.2141 
       0.938823         199.985         62.3078 
       0.944975         198.673         61.4174 
       0.951105         197.581         60.5478 
       0.957225         195.174         59.6967 
       0.963368         193.876         58.8593 
       0.969511         192.938         58.0382 
       0.975621         191.868         57.2373 
       0.981748         191.326         56.4497 
       0.987916          188.79         55.6721 
        0.99406         188.174         54.9122 
        1.00019         187.144         54.1682 
        1.00632         185.565         53.4389 
        1.01246         184.447          52.722 
        1.01859         182.714         52.0196 
        1.02471         182.435          51.331 
        1.03085         180.564         50.6526 
        1.03698         178.982         49.9881 
        1.04314         178.151         49.3328 
        1.04929         176.825          48.691 
        1.05541         175.992         48.0632 
        1.06154         174.756         47.4451 
        1.06769         174.469         46.8371 
        1.07382         173.326         46.2418 
        1.07993         172.037         45.6583 
        1.08607         170.633         45.0826 
        1.09222         169.672         44.5163 
        1.09836         168.319         43.9606 
        1.10449         167.226          43.415 
        1.11063         166.329         42.8782 
        1.11677         165.651         42.3508 
         1.1229         163.955         41.8332 
        1.12903         163.123          41.324 
        1.13518         163.007         40.8229 
        1.14131         161.313         40.3304 
        1.14745         160.542         39.8465 
        1.15359         159.384         39.3705 
        1.15973         159.083         38.9021 
        1.16584          157.61         38.4435 
        1.17197         156.781         37.9918 
        1.17811         155.966          37.546 
        1.18424         154.782         37.1087 
        1.19038         154.117         36.6772 
        1.19652         153.241         36.2528 
        1.20267         152.126         35.8352 
        1.20881         151.297         35.4244 
        1.21495         150.263         35.0206 
        1.22108         149.541         34.6233 
         1.2272         148.652         34.2332 
        1.23334          147.66         33.8482 
        1.23949         146.027         33.4683 
        1.24562         146.029         33.0954 
        1.25174           144.6         32.7287 
        1.25789          144.04         32.3665 
        1.26402          143.42         32.0105 
        1.27014         142.231         31.6608 
        1.27628         141.771         31.3153 
        1.28244          140.82         30.9744 
        1.28858         140.086          30.639 
        1.29471         138.904         30.3094 
        1.30084          138.24          29.985 
        1.30697         137.449         29.6649 
        1.31312         137.174          29.349 
        1.31925         136.049         29.0388 
        1.32537         135.671         28.7334 
        1.33151         134.132         28.4313 
        1.33765         133.666         28.1338 
        1.34378         132.711         27.8412 
        1.34992          132.55         27.5526 
        1.35606         131.585         27.2675 
         1.3622         130.621         26.9869 
        1.36833         130.067          26.711 
        1.37445         129.082         26.4392 
        1.38059         128.772         26.1703 
        1.38675         127.847         25.9045 
        1.39288         127.137         25.6435 
        1.39901         126.639         25.3863 
        1.40515         126.052         25.1321 
         1.4113         124.536         24.8815 
        1.41742         124.488         24.6352 
        1.42355         123.482         24.3919 
         1.4297         122.837         24.1512 
        1.43585         122.105         23.9138 
        1.44198         121.729         23.6805 
        1.44809          120.69         23.4509 
        1.45423         119.996         23.2234 
        1.46036         119.542         22.9994 
        1.46649         118.972         22.7783 
        1.47263         118.506           22.56 
        1.47877         117.829         22.3447 
        1.48491         116.961         22.1318 
        1.49104         116.256         21.9222 
        1.49718         115.691         21.7152 
        1.50333         114.985         21.5105 
        1.50947         114.125         21.3089 
         1.5156         114.057         21.1103 
        1.52172         113.038         20.9141 
        1.52787         112.903         20.7201 
          1.534         112.278         20.5288 
        1.54013         111.311         20.3402 
        1.54627         110.659         20.1535 
        1.55241         110.104         19.9693 
        1.55855         109.686         19.7875 
        1.56467         108.967         19.6086 
         1.5708         108.279         19.4314 
        1.57695         108.047         19.2561 
        1.58308         107.003         19.0834 
        1.58922         106.883         18.9128 
        1.59535         106.294         18.7442 
         1.6015         105.684         18.5776 
        1.60764         105.112          18.413 
        1.61376         104.448         18.2509 
        1.61989         104.066         18.0907 
        1.62604         103.179          17.932 
        1.63218         103.079         17.7753 
        1.63831         102.389         17.6209 
        1.64444         101.868         17.4683 
        1.65059         100.999         17.3171 
        1.65673         100.577         17.1679 
        1.66285          100.22         17.0209 
        1.66898         99.6352         16.8756 
        1.67512         98.9359         16.7317 
        1.68127         98.4117         16.5894 
         1.6874         97.9847          16.449 
        1.69353         97.5318         16.3104 
        1.69967         96.8996         16.1731 
        1.70581         96.5343         16.0374 
        1.71193         96.1177         15.9038 
        1.71806         95.3182         15.7714 
        1.72421         95.1196         15.6403 
        1.73035         94.3908         15.5108 
        1.73649         93.9554         15.3829 
        1.74262         93.5133         15.2565 
        1.74876         93.0273         15.1315 
        1.75489         92.4314         15.0081 
        1.76101         92.0807         14.8861 
        1.76715          91.518         14.7654 
        1.77329         91.1144         14.6458 
        1.77943         90.7536         14.5275 
        1.78557         90.2651         14.4107 
        1.79171         89.6998         14.2952 
        1.79785         89.3906         14.1809 
        1.80399         88.7343         14.0679 
        1.81012         88.4463         13.9563 
        1.81625         87.7992          13.846 
        1.82239         87.3446         13.7367 
        1.82853          87.024         13.6287 
        1.83466         86.4651         13.5219 
        1.84078         85.9569         13.4164 
        1.84692         85.6505         13.3118 
        1.85306         85.2002         13.2083 
         1.8592         84.5367          13.106 
        1.86533         84.1688         13.0048 
        1.87147          83.671         12.9047 
        1.87761         83.2768         12.8055 
        1.88375         83.1747         12.7075 
        1.88988         82.5939         12.6106 
        1.89601         82.0886         12.5147 
        1.90215          81.737         12.4198 
        1.90829         81.3389         12.3259 
        1.91442         80.8007         12.2329 
        1.92056         80.4689          12.141 
         1.9267         79.9937         12.0499 
        1.93284         79.3854         11.9598 
        1.93897         79.1855         11.8707 
        1.94509         78.5264         11.7827 
        1.95123         78.3147         11.6954 
        1.95737         78.1232          11.609 
        1.96349         77.6709         11.5236 
        1.96964         77.1153         11.4389 
        1.97578         76.8081         11.3549 
        1.98192          76.547          11.272 
        1.98805         76.1117           11.19 
        1.99419         75.5889         11.1087 
        2.00033         75.3172         11.0282 
        2.00647         74.9111         10.9486 
         2.0126         74.3835         10.8698 
        2.01874          74.026         10.7917 
        2.02488         73.8805         10.7144 
        2.03101         73.4013         10.6379 
        2.03714         72.8755         10.5622 
        2.04328         72.6033         10.4873 
        2.04941         72.1281         10.4131 
        2.05554         71.7533         10.3396 
        2.06167         71.6678         10.2668 
        2.06781         71.0988         10.1947 
        2.07396         70.7454         10.1232 
        2.08009         70.4909         10.0525 
        2.08622         69.9926         9.98253 
        2.09237         69.8065         9.91311 
        2.09851         69.4319         9.84435 
        2.10464         68.9985         9.77635 
        2.11077          68.677         9.70909 
        2.11691         68.3025         9.64231 
        2.12305         67.9392         9.57616 
        2.12918         67.5495         9.51079 
        2.13531         67.2723         9.44603 
        2.14145         66.9239         9.38173 
         2.1476         66.7683         9.31796 
        2.15372         66.3083          9.2551 
        2.15985          65.922         9.19277 
        2.16599         65.6493         9.13083 
        2.17213         65.3292         9.06954 
        2.17827         64.9852         9.00882 
         2.1844         64.4663         8.94872 
        2.19054         64.2894         8.88915 
        2.19666         64.0587         8.83021 
         2.2028           63.79         8.77175 
        2.20893         63.4451          8.7138 
        2.21508         63.1562         8.65631 
        2.22122          62.868         8.59932 
        2.22736         62.4222         8.54296 
        2.23349         62.1421         8.48713 
        2.23962         61.7975         8.43177 
        2.24577         61.4903         8.37686 
         2.2519         61.2652         8.32251 
        2.25802         60.9298         8.26874 
        2.26417         60.5522          8.2153 
        2.27031         60.3428         8.16228 
        2.27644         59.9094         8.10989 
        2.28257         59.7391         8.05796 
        2.28872         59.3716         8.00639 
        2.29486         59.1095         7.95529 
        2.30099         58.8192         7.90474 
        2.30712         58.5826         7.85461 
        2.31326         58.2142         7.80483 
         2.3194         57.9734         7.75551 
        2.32553         57.7038         7.70671 
        2.33166         57.3123         7.65835 
         2.3378         56.9897         7.61034 
        2.34394         56.6548         7.56273 
        2.35007         56.5204         7.51559 
        2.35619         56.3067         7.46892 
        2.36233          56.019         7.42254 
        2.36848         55.5808         7.37645 
        2.37462         55.4301         7.33086 
        2.38075         55.1566          7.2857 
        2.38689          54.871         7.24088 
        2.39303         54.6831         7.19645 
        2.39916         54.4717         7.15244 
        2.40529         54.0838          7.1088 
        2.41143         53.7755          7.0655 
        2.41757         53.5765         7.02254 
         2.4237         53.3281         6.98002 
        2.42983         52.9895         6.93786 
        2.43598         52.7836         6.89593 
        2.44211         52.5102         6.85443 
        2.44823         52.2216         6.81336 
        2.45437         51.9197         6.77251 
        2.46052         51.6469         6.73197 
        2.46665         51.4766         6.69183 
        2.47279         51.2761         6.65204 
        2.47892          50.981         6.61255 
        2.48507         50.7494         6.57334 
         2.4912         50.5968         6.53452 
