# k  (h/Mpc)    P(k)  (Mpc/h)^3    P_linear(k)  (Mpc/h)^3
     0.00783031         11057.6         11245.9 
       0.013688         12728.1         12658.3 
       0.019231         11903.7         11875.2 
      0.0249154         10050.2         10199.2 
      0.0312784         8153.74         8186.96 
      0.0375637         6600.92         6559.57 
      0.0433917         5469.13         5499.58 
      0.0492413         4823.65         4814.15 
      0.0555754          4288.6         4354.86 
      0.0619321         4067.11         4024.97 
       0.067871         3676.35         3719.56 
      0.0738098         3328.93         3363.99 
      0.0800417          2900.6         2943.78 
      0.0862327         2524.41         2526.42 
      0.0921407         2216.51         2177.94 
      0.0982031         1927.53         1901.71 
       0.104506         1777.49         1706.62 
       0.110769         1645.85         1587.32 
       0.116806         1556.95         1513.46 
       0.122832         1494.15         1450.22 
       0.129052         1388.88          1372.5 
       0.135211         1296.42         1273.45 
       0.141259         1207.62         1159.66 
       0.147318         1104.64         1042.67 
       0.153489         992.255         935.196 
       0.159709         919.472         848.825 
       0.165845         869.603         787.668 
       0.171974         820.035         746.537 
       0.178125         786.193         717.544 
       0.184229         756.194         692.367 
        0.19034         708.208         663.977 
       0.196428         688.173         629.359 
       0.202534         657.704         589.031 
       0.208729         614.368         545.975 
       0.214876         575.381         505.527 
       0.220989         548.382         470.916 
       0.227147         519.444         443.175 
        0.23329           496.7         422.121 
       0.239377         484.383         405.892 
       0.245482         452.186         391.769 
       0.251667         447.122         377.436 
       0.257832         429.818          361.77 
       0.263955         412.827          344.61 
       0.270079         393.972         326.592 
        0.27624         385.679         308.788 
       0.282372         369.587         292.504 
        0.28843         356.543         278.508 
       0.294538         338.698         266.589 
       0.300721         334.855         256.421 
        0.30691         319.222         247.439 
       0.313033         311.753         239.046 
       0.319153         299.987         230.598 
       0.325316         291.831         221.828 
        0.33145         281.349         212.876 
       0.337538         276.172          204.06 
       0.343633         266.185         195.609 
       0.349808         256.647         187.708 
       0.355968         252.648         180.601 
       0.362074           246.7         174.288 
       0.368217         239.465         168.525 
       0.374374           229.9         163.119 
       0.380519         226.916          157.92 
       0.386598         220.697          152.84 
       0.392688         217.426         147.777 
        0.39888         211.507         142.704 
       0.405048         205.823         137.793 
       0.411186         201.334         133.135 
       0.417313         197.047         128.778 
       0.423458         192.515           124.7 
       0.429607         188.374         120.896 
       0.435692         182.635         117.356 
       0.441815         180.787          113.95 
       0.447964         176.966         110.639 
       0.454126         170.078         107.409 
       0.460267         167.701         104.265 
       0.466387         165.467         101.215 
        0.47254         161.423         98.2575 
       0.478662          160.61         95.4424 
       0.484765          154.95         92.7665 
       0.490885         152.671         90.2124 
       0.497035         150.255         87.7702 
       0.503198          146.46         85.4299 
       0.509342         144.481         83.1825 
       0.515458          142.23         81.0149 
       0.521598         139.336         78.9045 
       0.527764          137.53           76.85 
       0.533884         135.467         74.8744 
           0.54         132.981         72.9658 
       0.546137         131.783         71.1192 
       0.552299         129.155         69.3372 
       0.558452         127.327         67.6286 
       0.564573         125.195         65.9918 
       0.570708         122.598         64.4079 
       0.576825         121.101         62.8797 
       0.582926         118.742         61.4029 
       0.589034          117.28         59.9699 
       0.595184         115.713         58.5712 
       0.601379         113.987         57.2058 
       0.607522         111.752         55.8937 
       0.613639         110.925         54.6283 
       0.619772          108.64         53.4003 
       0.625918         107.309         52.2098 
       0.632068         105.996         51.0571 
       0.638161         104.973         49.9507 
         0.6443         103.511         48.8696 
       0.650464          102.41         47.8162 
       0.656582         100.641         46.8002 
       0.662703         99.4767         45.8125 
       0.668861         97.8039         44.8472 
       0.675024         96.6032          43.909 
       0.681124         95.8645         43.0074 
       0.687237         94.0599         42.1299 
       0.693381         92.6938         41.2735 
       0.699536          91.997         40.4398 
       0.705665         91.7063          39.633 
       0.711789         89.6654          38.849 
       0.717957          89.347         38.0808 
        0.72409         87.7873         37.3374 
       0.730186         86.4672         36.6183 
       0.736317         85.9231         35.9142 
       0.742472         85.1701          35.226 
       0.748622         84.1847         34.5565 
        0.75476         83.3111          33.906 
       0.760888         82.1646         33.2734 
       0.767043          81.644         32.6546 
       0.773185         80.6854         32.0529 
       0.779291         79.4581         31.4699 
       0.785407         78.9848         30.9006 
       0.791564         78.3537         30.3419 
       0.797719          76.801         29.7973 
       0.803834         76.4405         29.2695 
       0.809972         75.4452         28.7526 
       0.816124         75.0268         28.2471 
       0.822261         74.3343         27.7551 
       0.828378         73.7095         27.2763 
       0.834502         73.1179         26.8084 
       0.840667         72.1147         26.3485 
       0.846816         71.2029         25.9007 
       0.852925          70.738         25.4661 
       0.859047         69.8025         25.0407 
       0.865192         69.3586         24.6236 
       0.871341         68.7859         24.2157 
       0.877463         67.8252         23.8189 
       0.883569         67.5444         23.4321 
       0.889708         66.9028         23.0518 
       0.895864         66.3642         22.6791 
       0.902008         65.7492         22.3154 
       0.908149         65.3015         21.9598 
       0.914301         64.6245         21.6115 
       0.920448         64.1346          21.271 
       0.926574         63.4959         20.9391 
       0.932687         63.4241          20.615 
       0.938823         62.3784         20.2966 
       0.944975           61.75         19.9842 
       0.951105         61.3392         19.6795 
       0.957225         60.6948         19.3817 
       0.963368         60.3193         19.0891 
       0.969511         60.0826         18.8025 
       0.975621         59.7074         18.5233 
       0.981748         59.0664         18.2491 
       0.987916         58.4951         17.9787 
        0.99406         58.1267         17.7149 
        1.00019         57.6774         17.4568 
        1.00632         57.2059         17.2042 
        1.01246         56.8535         16.9562 
        1.01859         56.0955         16.7134 
        1.02471         55.8877         16.4758 
        1.03085         55.3998         16.2419 
        1.03698         55.0888          16.013 
        1.04314         54.5843         15.7877 
        1.04929         54.1765         15.5671 
        1.05541         53.6235         15.3517 
        1.06154         53.5967         15.1398 
        1.06769         53.1418         14.9316 
        1.07382         52.8454          14.728 
        1.07993         52.4591         14.5287 
        1.08607         52.0463         14.3322 
        1.09222         51.7902         14.1392 
        1.09836         51.2936         13.9499 
        1.10449         51.0808         13.7643 
        1.11063          50.543         13.5819 
        1.11677         50.2909         13.4029 
         1.1229         49.8104         13.2273 
        1.12903         49.2798         13.0548 
        1.13518         49.4346         12.8852 
        1.14131         49.0655         12.7187 
        1.14745         48.5214         12.5553 
        1.15359         48.3352         12.3947 
        1.15973         47.8546         12.2368 
        1.16584         47.5881         12.0824 
        1.17197         47.2928         11.9304 
        1.17811         47.0898         11.7806 
        1.18424          46.651         11.6338 
        1.19038         46.3469         11.4891 
        1.19652         46.1982         11.3469 
        1.20267          45.686         11.2071 
        1.20881         45.5403         11.0696 
        1.21495          45.136         10.9347 
        1.22108         45.0429         10.8021 
         1.2272         44.4631          10.672 
        1.23334         44.2979         10.5437 
        1.23949         44.2037         10.4172 
        1.24562         43.7324         10.2932 
        1.25174         43.5857         10.1713 
        1.25789         43.4179         10.0511 
        1.26402         43.0544         9.93302 
        1.27014         42.6921         9.81712 
        1.27628          42.451         9.70271 
        1.28244         42.2317         9.58991 
        1.28858         42.0594         9.47905 
        1.29471         41.8641         9.37018 
        1.30084         41.6064         9.26313 
        1.30697         41.3057         9.15758 
        1.31312         41.0296         9.05353 
        1.31925         40.8254         8.95141 
        1.32537         40.6653         8.85097 
        1.33151         40.2672         8.75171 
        1.33765         40.1378         8.65403 
        1.34378         39.8807         8.55803 
        1.34992         39.6614         8.46342 
        1.35606         39.4571         8.37003 
         1.3622         39.1812         8.27821 
        1.36833         38.9594         8.18798 
        1.37445         38.7896         8.09915 
        1.38059          38.516         8.01135 
        1.38675         38.2847         7.92465 
        1.39288         38.1327         7.83957 
        1.39901         37.9523         7.75577 
        1.40515         37.6807         7.67301 
         1.4113         37.5351         7.59149 
        1.41742         37.3974         7.51146 
        1.42355         37.0712         7.43243 
         1.4297         36.9596          7.3543 
        1.43585         36.7936         7.27733 
        1.44198          36.457         7.20174 
        1.44809         36.3791         7.12737 
        1.45423         36.1672         7.05378 
        1.46036         36.0308         6.98136 
        1.46649         35.8337         6.90992 
        1.47263         35.5706         6.83943 
        1.47877         35.3883         6.76995 
        1.48491          35.409         6.70132 
        1.49104         35.0617         6.63379 
        1.49718         34.7096         6.56714 
        1.50333         34.7509          6.5013 
        1.50947         34.5686         6.43649 
         1.5156         34.3231         6.37266 
        1.52172         34.2384         6.30969 
        1.52787         34.1114         6.24745 
          1.534         33.8638         6.18612 
        1.54013         33.6606         6.12568 
        1.54627         33.5808         6.06593 
        1.55241         33.2297         6.00697 
        1.55855         33.1873         5.94887 
        1.56467         32.8639          5.8917 
         1.5708         32.9437         5.83512 
        1.57695         32.6964         5.77919 
        1.58308          32.492         5.72412 
        1.58922         32.4298         5.66973 
        1.59535         32.2999         5.61606 
         1.6015         32.0274         5.56301 
        1.60764         31.8203         5.51066 
        1.61376         31.7136         5.45913 
        1.61989          31.546         5.40822 
        1.62604         31.4111         5.35784 
        1.63218         31.3883         5.30814 
        1.63831         31.1396         5.25917 
        1.64444           30.99         5.21081 
        1.65059          30.862         5.16294 
        1.65673         30.6656         5.11571 
        1.66285         30.5073         5.06921 
        1.66898         30.3861         5.02328 
        1.67512         30.2207         4.97782 
        1.68127         30.0642         4.93288 
         1.6874         29.9213         4.88859 
        1.69353         29.7906         4.84487 
        1.69967         29.6518         4.80158 
        1.70581         29.6034         4.75884 
        1.71193         29.4605         4.71678 
        1.71806         29.1687         4.67514 
        1.72421         29.0976         4.63391 
        1.73035         28.9657         4.59323 
        1.73649         28.7443         4.55305 
        1.74262         28.6743         4.51338 
        1.74876          28.607         4.47415 
        1.75489          28.451         4.43547 
        1.76101         28.3064         4.39725 
        1.76715         28.2093         4.35943 
        1.77329         28.1041         4.32201 
        1.77943         27.9752         4.28502 
        1.78557         27.7679          4.2485 
        1.79171          27.668         4.21241 
        1.79785         27.5273         4.17673 
        1.80399         27.4942         4.14146 
        1.81012         27.2843         4.10665 
        1.81625         27.1807         4.07225 
        1.82239         27.0635          4.0382 
        1.82853         26.9426         4.00455 
        1.83466         26.8013         3.97131 
        1.84078         26.5924         3.93848 
        1.84692         26.5439         3.90597 
        1.85306         26.3919         3.87379 
         1.8592         26.2747         3.84201 
        1.86533         26.1854         3.81061 
        1.87147         26.1287         3.77953 
        1.87761         25.9861         3.74877 
        1.88375         25.8573          3.7184 
        1.88988         25.7825         3.68839 
        1.89601         25.6499         3.65869 
        1.90215         25.5339          3.6293 
        1.90829         25.4619         3.60024 
        1.91442         25.3216          3.5715 
        1.92056         25.1963          3.5431 
         1.9267         25.0941         3.51497 
        1.93284         24.9101         3.48714 
        1.93897         24.9015         3.45965 
        1.94509          24.746         3.43252 
        1.95123         24.6529         3.40562 
        1.95737         24.5108         3.37898 
        1.96349         24.4434         3.35269 
        1.96964         24.3534          3.3266 
        1.97578         24.1712         3.30078 
        1.98192         24.1146         3.27529 
        1.98805         24.0493         3.25006 
        1.99419         23.9163          3.2251 
        2.00033         23.8109         3.20038 
        2.00647         23.6982         3.17593 
         2.0126         23.5862         3.15178 
        2.01874         23.5342         3.12783 
        2.02488           23.43         3.10412 
        2.03101         23.3222         3.08069 
        2.03714          23.212         3.05753 
        2.04328         23.0993         3.03458 
        2.04941          23.006         3.01188 
        2.05554          22.924         2.98943 
        2.06167         22.8289         2.96718 
        2.06781         22.6931         2.94515 
        2.07396          22.644         2.92332 
        2.08009         22.5747         2.90174 
        2.08622         22.4139          2.8804 
        2.09237          22.345         2.85923 
        2.09851         22.2544         2.83827 
        2.10464         22.1605         2.81756 
        2.11077         22.0805         2.79708 
        2.11691         21.9876         2.77675 
        2.12305         21.9102         2.75662 
        2.12918         21.7938         2.73674 
        2.13531         21.7511         2.71706 
        2.14145         21.6635         2.69752 
         2.1476         21.5517         2.67815 
        2.15372         21.4488         2.65907 
        2.15985         21.3562         2.64015 
        2.16599         21.3155         2.62137 
        2.17213         21.2301         2.60278 
        2.17827         21.0675         2.58438 
         2.1844         21.0091         2.56617 
        2.19054         20.9346         2.54814 
        2.19666         20.8499          2.5303 
         2.2028         20.7385         2.51261 
        2.20893         20.6925         2.49508 
        2.21508         20.6256          2.4777 
        2.22122         20.4673         2.46048 
        2.22736         20.4358         2.44346 
        2.23349         20.3401         2.42661 
        2.23962         20.2597          2.4099 
        2.24577         20.1751         2.39333 
         2.2519         20.1164         2.37695 
        2.25802         19.9846         2.36074 
        2.26417         19.9646         2.34464 
        2.27031          19.851         2.32867 
        2.27644         19.7515         2.31289 
        2.28257         19.6875         2.29727 
        2.28872         19.6146         2.28175 
        2.29486         19.5568         2.26639 
        2.30099         19.4435         2.25119 
        2.30712          19.392         2.23613 
        2.31326         19.3592         2.22118 
         2.3194         19.2482         2.20637 
        2.32553         19.1631         2.19173 
        2.33166         19.0683         2.17722 
         2.3378         18.9915         2.16282 
        2.34394         18.9098         2.14855 
        2.35007         18.8616         2.13443 
        2.35619          18.762         2.12045 
        2.36233         18.7025         2.10656 
        2.36848           18.63         2.09277 
        2.37462         18.5343         2.07913 
        2.38075         18.4934         2.06562 
        2.38689         18.4216         2.05222 
        2.39303         18.3311         2.03894 
        2.39916          18.256          2.0258 
        2.40529         18.2111         2.01277 
        2.41143         18.1128         1.99984 
        2.41757          18.059         1.98703 
         2.4237         17.9571         1.97434 
        2.42983         17.8585         1.96177 
        2.43598         17.8274         1.94928 
        2.44211          17.759         1.93691 
        2.44823         17.7004         1.92468 
        2.45437         17.5984         1.91252 
        2.46052         17.5386         1.90045 
        2.46665         17.5002         1.88851 
        2.47279         17.4192         1.87668 
        2.47892           17.36         1.86493 
        2.48507         17.2559         1.85328 
         2.4912          17.246         1.84175 
