# k  (h/Mpc)    Pcb(k)  (Mpc/h)^3    Pcb_linear(k)  (Mpc/h)^3
     0.00783031         14691.9           14762 
       0.013688         17963.8         18439.6 
       0.019231         18570.1         18864.9 
      0.0249154         17617.9           17605 
      0.0312784         15168.7         15351.1 
      0.0375637         12836.8         13092.8 
      0.0433917           11270         11360.1 
      0.0492413          9912.4         10071.5 
      0.0555754         9040.92         9115.79 
      0.0619321          8118.4         8452.38 
       0.067871         7735.65         7939.09 
      0.0738098         7279.01         7411.38 
      0.0800417         6674.93         6783.65 
      0.0862327         5976.23            6096 
      0.0921407         5377.99         5434.62 
      0.0982031          4859.3          4816.1 
       0.104506         4290.91         4288.82 
       0.110769         3945.79         3900.09 
       0.116806         3756.18         3639.74 
       0.122832          3535.3         3458.87 
       0.129052         3363.74         3312.25 
       0.135211         3279.51         3167.71 
       0.141259         3054.79         3001.75 
       0.147318         2836.87         2805.59 
       0.153489         2662.43         2585.69 
       0.159709         2534.84         2364.32 
       0.165845          2301.7         2166.85 
       0.171974          2226.6         2004.04 
       0.178125         2139.77         1879.15 
       0.184229         1973.88         1788.56 
        0.19034         1947.24          1720.5 
       0.196428         1894.33         1662.49 
       0.202534          1783.9         1602.82 
       0.208729         1752.45          1533.6 
       0.214876         1674.79          1454.8 
       0.220989         1586.04         1369.94 
       0.227147         1539.59          1284.3 
        0.23329         1475.36         1205.21 
       0.239377         1461.88         1137.58 
       0.245482          1389.4         1082.09 
       0.251667         1338.66         1037.33 
       0.257832         1317.95         1000.95 
       0.263955         1258.24         968.885 
       0.270079         1224.34         937.205 
        0.27624         1174.52         903.252 
       0.282372         1159.09         866.667 
        0.28843         1140.66         828.617 
       0.294538         1086.64         790.071 
       0.300721         1064.17         752.977 
        0.30691         1039.24         719.346 
       0.313033         997.709         690.348 
       0.319153         986.294         665.401 
       0.325316         973.552         643.551 
        0.33145         952.187         623.778 
       0.337538         920.279         604.943 
       0.343633         898.813         585.943 
       0.349808         881.024         566.199 
       0.355968         864.335         546.058 
       0.362074         836.354          526.14 
       0.368217         834.079         506.756 
       0.374374           821.3           488.5 
       0.380519         791.297         471.818 
       0.386598         786.321         456.831 
       0.392688         767.027          443.17 
        0.39888         750.004         430.303 
       0.405048         735.568          418.09 
       0.411186         734.094         406.234 
       0.417313         729.291         394.487 
       0.423458         707.192         382.736 
       0.429607         687.901         371.133 
       0.435692         681.407         359.944 
       0.441815         668.418         349.135 
       0.447964         659.539         338.887 
       0.454126         651.401          329.26 
       0.460267         642.226         320.259 
       0.466387         631.255         311.805 
        0.47254         621.532         303.704 
       0.478662         612.009         295.906 
       0.484765         605.421         288.314 
       0.490885         599.111         280.861 
       0.497035         587.312         273.522 
       0.503198          586.99         266.344 
       0.509342         575.542         259.418 
       0.515458         564.327         252.802 
       0.521598          561.46         246.451 
       0.527764         549.324         240.356 
       0.533884         544.578         234.572 
           0.54         539.789          229.03 
       0.546137         531.112         223.665 
       0.552299         528.985         218.434 
       0.558452         521.513         213.342 
       0.564573         517.599         208.406 
       0.570708          511.89         203.593 
       0.576825         501.898         198.933 
       0.582926         500.468         194.428 
       0.589034         492.704         190.064 
       0.595184         488.498         185.825 
       0.601379         481.129          181.71 
       0.607522         473.019         177.772 
       0.613639         472.377         173.977 
       0.619772         469.913         170.282 
       0.625918         461.256          166.68 
       0.632068         458.873         163.171 
       0.638161         454.254         159.788 
         0.6443         448.647         156.473 
       0.650464          444.68          153.24 
       0.656582         441.159         150.122 
       0.662703         437.198         147.092 
       0.668861         430.893         144.132 
       0.675024         428.958         141.255 
       0.681124         421.507         138.491 
       0.687237         420.748         135.799 
       0.693381         414.547         133.168 
       0.699536         413.897         130.602 
       0.705665         408.467         128.114 
       0.711789         407.064         125.691 
       0.717957          401.61         123.312 
        0.72409         397.504         121.007 
       0.730186         398.688         118.774 
       0.736317         391.885         116.587 
       0.742472         388.523         114.448 
       0.748622         386.304         112.367 
        0.75476         382.987         110.345 
       0.760888          380.19         108.376 
       0.767043         377.143         106.449 
       0.773185         374.462         104.573 
       0.779291         370.237         102.753 
       0.785407         368.069         100.973 
       0.791564         365.608         99.2241 
       0.797719         359.942         97.5174 
       0.803834         361.883         95.8617 
       0.809972         356.042         94.2387 
       0.816124         352.983         92.6501 
       0.822261         350.485         91.1029 
       0.828378         349.059         89.5963 
       0.834502         343.567          88.123 
       0.840667         343.832         86.6738 
       0.846816         338.524         85.2617 
       0.852925         339.157         83.8904 
       0.859047         335.875         82.5466 
       0.865192         334.237         81.2281 
       0.871341         329.978         79.9377 
       0.877463         328.431         78.6814 
       0.883569         325.914         77.4553 
       0.889708         322.919         76.2493 
       0.895864         319.628          75.066 
       0.902008         318.434         73.9105 
       0.908149         315.576         72.7801 
       0.914301         314.159         71.6717 
       0.920448         311.632         70.5876 
       0.926574         309.682         69.5299 
       0.932687         308.722         68.4962 
       0.938823          305.16           67.48 
       0.944975         304.497         66.4822 
       0.951105         301.607         65.5084 
       0.957225         298.243         64.5559 
       0.963368         298.824         63.6192 
       0.969511         293.526         62.7013 
       0.975621         292.262         61.8065 
       0.981748         291.427         60.9271 
       0.987916         289.593         60.0594 
        0.99406          286.93         59.2119 
        1.00019         284.486         58.3826 
        1.00632         284.134         57.5701 
        1.01246         281.689         56.7719 
        1.01859         278.731         55.9903 
        1.02471         277.082         55.2245 
        1.03085         276.129         54.4705 
        1.03698          274.79         53.7323 
        1.04314         273.457         53.0047 
        1.04929         271.776         52.2923 
        1.05541         269.219          51.596 
        1.06154         267.441         50.9108 
        1.06769         265.299         50.2371 
        1.07382         263.873         49.5778 
        1.07993         262.194         48.9319 
        1.08607         260.869          48.295 
        1.09222         258.634         47.6688 
        1.09836         257.915         47.0545 
        1.10449         256.049         46.4518 
        1.11063         254.223         45.8591 
        1.11677         251.985          45.277 
         1.1229         251.595         44.7061 
        1.12903         249.204         44.1445 
        1.13518         247.663         43.5922 
        1.14131         246.865         43.0497 
        1.14745         244.247         42.5167 
        1.15359         242.549         41.9927 
        1.15973         241.669         41.4774 
        1.16584         240.134         40.9731 
        1.17197          238.92         40.4765 
        1.17811         236.745         39.9867 
        1.18424         235.551         39.5064 
        1.19038         234.611         39.0327 
        1.19652          231.93          38.567 
        1.20267         231.393         38.1089 
        1.20881         229.689         37.6584 
        1.21495         229.226         37.2159 
        1.22108         227.375         36.7807 
         1.2272         225.081         36.3534 
        1.23334          224.37         35.9321 
        1.23949          223.18         35.5164 
        1.24562         221.759         35.1085 
        1.25174         220.608         34.7077 
        1.25789         218.553         34.3119 
        1.26402         218.305         33.9231 
        1.27014         217.315         33.5413 
        1.27628         215.429         33.1642 
        1.28244         213.856         32.7922 
        1.28858         212.845         32.4265 
        1.29471         211.538         32.0672 
        1.30084         210.769         31.7136 
        1.30697          208.72         31.3649 
        1.31312         207.686          31.021 
        1.31925         206.387         30.6833 
        1.32537         205.764          30.351 
        1.33151         204.299         30.0225 
        1.33765         202.872         29.6991 
        1.34378          202.11          29.381 
        1.34992         200.386         29.0675 
        1.35606         199.648         28.7578 
         1.3622         198.132         28.4532 
        1.36833         197.174         28.1538 
        1.37445         196.844         27.8589 
        1.38059         194.566         27.5673 
        1.38675         193.424         27.2792 
        1.39288         192.534         26.9964 
        1.39901         190.999         26.7177 
        1.40515         190.508         26.4423 
         1.4113         189.154          26.171 
        1.41742         187.741         25.9045 
        1.42355         187.539         25.6412 
         1.4297           186.1         25.3808 
        1.43585         185.359         25.1242 
        1.44198         183.583          24.872 
        1.44809         183.046         24.6239 
        1.45423         181.972         24.3782 
        1.46036         180.784         24.1363 
        1.46649         179.671         23.8977 
        1.47263         179.095         23.6621 
        1.47877         177.784         23.4298 
        1.48491         176.462         23.2002 
        1.49104         174.942         22.9742 
        1.49718         174.703         22.7511 
        1.50333         173.043         22.5306 
        1.50947         172.496         22.3135 
         1.5156         171.456         22.0996 
        1.52172         170.626         21.8885 
        1.52787         169.691         21.6797 
          1.534         168.936         21.4739 
        1.54013         167.652         21.2711 
        1.54627         166.914         21.0704 
        1.55241         166.102         20.8724 
        1.55855         165.268         20.6772 
        1.56467         164.227          20.485 
         1.5708         162.881         20.2948 
        1.57695         162.376         20.1066 
        1.58308         161.114         19.9213 
        1.58922         160.349         19.7383 
        1.59535         159.254         19.5575 
         1.6015         158.588         19.3789 
        1.60764         157.477         19.2025 
        1.61376         156.467         19.0288 
        1.61989         155.883         18.8571 
        1.62604         154.774         18.6872 
        1.63218         154.112         18.5195 
        1.63831         153.262         18.3542 
        1.64444         152.057         18.1909 
        1.65059         151.465         18.0292 
        1.65673         150.575         17.8696 
        1.66285         149.962         17.7124 
        1.66898         148.944         17.5571 
        1.67512         147.964         17.4033 
        1.68127         147.422         17.2512 
         1.6874         146.429         17.1013 
        1.69353         145.896         16.9533 
        1.69967         144.785         16.8067 
        1.70581         144.364         16.6619 
        1.71193         143.316         16.5193 
        1.71806         142.117         16.3782 
        1.72421         141.644         16.2383 
        1.73035         140.837         16.1003 
        1.73649         139.849          15.964 
        1.74262         139.396         15.8293 
        1.74876         138.625         15.6961 
        1.75489         138.175         15.5647 
        1.76101         136.844         15.4348 
        1.76715         136.111         15.3063 
        1.77329         135.263          15.179 
        1.77943         134.482         15.0532 
        1.78557         133.938          14.929 
        1.79171         133.167         14.8062 
        1.79785         132.234         14.6847 
        1.80399         131.691         14.5646 
        1.81012         130.933          14.446 
        1.81625         130.182         14.3288 
        1.82239         129.644         14.2128 
        1.82853         128.658         14.0981 
        1.83466         127.701         13.9847 
        1.84078         127.462         13.8727 
        1.84692         126.969         13.7618 
        1.85306         125.992          13.652 
         1.8592         125.507         13.5435 
        1.86533         124.499         13.4363 
        1.87147         123.965         13.3301 
        1.87761         123.177          13.225 
        1.88375         122.363         13.1211 
        1.88988         121.871         13.0185 
        1.89601         121.424          12.917 
        1.90215         120.938         12.8164 
        1.90829         119.712          12.717 
        1.91442         118.957         12.6186 
        1.92056         118.544         12.5213 
         1.9267         117.864          12.425 
        1.93284         117.077         12.3297 
        1.93897         116.617         12.2355 
        1.94509         115.961         12.1425 
        1.95123         115.404         12.0502 
        1.95737         114.776         11.9588 
        1.96349           114.1         11.8687 
        1.96964         113.372         11.7792 
        1.97578         112.851         11.6905 
        1.98192         112.499          11.603 
        1.98805         111.838         11.5164 
        1.99419         110.904         11.4306 
        2.00033         110.505         11.3457 
        2.00647         110.019         11.2616 
         2.0126         109.277         11.1786 
        2.01874         108.814         11.0962 
        2.02488         108.058         11.0147 
        2.03101         107.658         10.9341 
        2.03714         106.933         10.8544 
        2.04328         106.638         10.7753 
        2.04941         106.016         10.6972 
        2.05554         105.495         10.6199 
        2.06167         104.621         10.5432 
        2.06781         104.212         10.4673 
        2.07396         103.613          10.392 
        2.08009         102.855         10.3176 
        2.08622         102.518          10.244 
        2.09237         101.772          10.171 
        2.09851         101.411         10.0987 
        2.10464          101.04         10.0272 
        2.11077         100.267         9.95652 
        2.11691         99.8633         9.88634 
        2.12305         99.3249         9.81683 
        2.12918         98.7385         9.74816 
        2.13531         98.1965         9.68015 
        2.14145         97.7626         9.61262 
         2.1476         97.2291         9.54566 
        2.15372         96.6149         9.47968 
        2.15985         96.1759         9.41426 
        2.16599         95.5472         9.34926 
        2.17213         95.0425         9.28495 
        2.17827         94.5105         9.22126 
         2.1844         94.1958         9.15823 
        2.19054         93.5736         9.09576 
        2.19666         92.8933         9.03397 
         2.2028         92.7148          8.9727 
        2.20893         92.3006         8.91197 
        2.21508         91.6716         8.85173 
        2.22122         91.1952         8.79203 
        2.22736         90.9054           8.733 
        2.23349         90.2051         8.67453 
        2.23962         89.7581         8.61657 
        2.24577         89.3503         8.55909 
         2.2519         88.8039         8.50221 
        2.25802         88.4311         8.44595 
        2.26417          87.789         8.39003 
        2.27031         87.2569         8.33457 
        2.27644         86.9979         8.27978 
        2.28257         86.5425         8.22548 
        2.28872         86.0797         8.17156 
        2.29486         85.8809         8.11814 
        2.30099         85.1299         8.06531 
        2.30712         84.8616         8.01293 
        2.31326         84.3653         7.96092 
         2.3194         83.9158          7.9094 
        2.32553         83.5061         7.85843 
        2.33166         82.9837         7.80793 
         2.3378         82.5873          7.7578 
        2.34394         82.2594          7.7081 
        2.35007           81.64         7.65891 
        2.35619         81.3466          7.6102 
        2.36233         80.8444         7.56181 
        2.36848          80.448         7.51373 
        2.37462          80.225         7.46618 
        2.38075         79.6248         7.41908 
        2.38689         79.2756         7.37236 
        2.39303         78.9248         7.32604 
        2.39916          78.495         7.28017 
        2.40529         78.1727          7.2347 
        2.41143         77.7154         7.18958 
        2.41757         77.2169         7.14483 
         2.4237         76.8167         7.10054 
        2.42983         76.3978         7.05663 
        2.43598         76.1538         7.01298 
        2.44211         75.8409         6.96977 
        2.44823         75.3932         6.92702 
        2.45437         75.0172         6.88452 
        2.46052         74.5775         6.84233 
        2.46665          73.942         6.80058 
        2.47279         73.8432         6.75918 
        2.47892         73.5057         6.71811 
        2.48507         73.0874         6.67733 
         2.4912         72.6416         6.63698 
