# k  (h/Mpc)    Pcb(k)  (Mpc/h)^3    Pcb_linear(k)  (Mpc/h)^3
     0.00783031         16790.2         17036.9 
       0.013688         20298.8         20104.6 
       0.019231         19591.9         19534.7 
      0.0249154         16972.3         17315.8 
      0.0312784         14218.7         14346.5 
      0.0375637         11843.7         11802.7 
      0.0433917         9947.11         10079.6 
      0.0492413         8903.32         8928.54 
      0.0555754         7916.07         8132.31 
      0.0619321         7588.98          7546.9 
       0.067871         6841.39         7004.31 
      0.0738098         6239.65         6376.33 
      0.0800417         5474.27         5634.34 
      0.0862327         4840.77         4892.43 
      0.0921407         4326.64         4265.68 
      0.0982031         3806.25         3760.95 
       0.104506         3555.12          3396.6 
       0.110769         3300.31         3166.77 
       0.116806         3127.89         3019.54 
       0.122832         2991.02         2892.58 
       0.129052         2771.46         2740.45 
       0.135211         2601.53         2550.86 
       0.141259          2453.5         2335.05 
       0.147318         2273.79         2113.24 
       0.153489         2059.06         1908.34 
       0.159709         1931.71            1742 
       0.165845         1849.71         1622.45 
       0.171974         1754.05         1540.34 
       0.178125         1675.36         1481.08 
       0.184229         1606.08         1429.18 
        0.19034         1514.39         1371.31 
       0.196428         1476.42         1301.77 
       0.202534         1413.81         1221.43 
       0.208729         1336.56         1135.92 
       0.214876         1271.08         1055.52 
       0.220989         1221.14         986.487 
       0.227147          1167.9         930.861 
        0.23329         1120.35         888.329 
       0.239377         1099.69         855.238 
       0.245482         1029.15          826.23 
       0.251667         1022.64         796.706 
       0.257832         980.626         764.436 
       0.263955         946.552          729.15 
       0.270079          909.74         692.141 
        0.27624         897.435         655.576 
       0.282372         859.933         622.149 
        0.28843         847.177           593.4 
       0.294538         803.189         568.922 
       0.300721          798.47         548.001 
        0.30691         765.205          529.47 
       0.313033         749.807         512.078 
       0.319153         731.878         494.491 
       0.325316          709.21         476.155 
        0.33145         690.479         457.397 
       0.337538         678.152         438.899 
       0.343633         660.004         421.176 
       0.349808         635.972         404.617 
       0.355968         631.261         389.763 
       0.362074         623.258         376.576 
       0.368217         604.229         364.548 
       0.374374         578.836         353.244 
       0.380519         578.197         342.323 
       0.386598         561.698         331.615 
       0.392688         559.063          320.89 
        0.39888         542.372         310.115 
       0.405048         533.007         299.679 
       0.411186         524.998         289.776 
       0.417313         514.156         280.528 
       0.423458         503.764         271.895 
       0.429607         496.951         263.842 
       0.435692         484.752          256.35 
       0.441815         480.096         249.135 
       0.447964         470.094         242.096 
       0.454126         462.384         235.204 
       0.460267         452.395         228.484 
       0.466387          446.93         221.947 
        0.47254         440.698           215.6 
       0.478662         438.077         209.561 
       0.484765         422.801         203.831 
       0.490885         419.435         198.363 
       0.497035         411.303         193.133 
       0.503198         406.969         188.122 
       0.509342         403.941         183.307 
       0.515458         399.744         178.653 
       0.521598         389.188         174.107 
       0.527764          383.48         169.674 
       0.533884         380.806          165.41 
           0.54         375.614         161.289 
       0.546137         373.689         157.299 
       0.552299         366.659         153.447 
       0.558452         364.632         149.754 
       0.564573         359.708         146.219 
       0.570708         353.549         142.798 
       0.576825         345.918         139.493 
       0.582926         344.633         136.293 
       0.589034          341.43         133.182 
       0.595184         338.651         130.143 
       0.601379         332.952         127.177 
       0.607522         328.565         124.326 
       0.613639         327.053         121.575 
       0.619772         320.393         118.903 
       0.625918         319.084         116.311 
       0.632068         313.797           113.8 
       0.638161         312.503          111.39 
         0.6443         307.513         109.033 
       0.650464         304.822         106.737 
       0.656582         301.871         104.521 
       0.662703         301.419         102.364 
       0.668861         296.337         100.255 
       0.675024         293.178         98.2027 
       0.681124         290.888          96.229 
       0.687237         288.083         94.3072 
       0.693381         283.757         92.4309 
       0.699536          280.86         90.6043 
       0.705665         278.671         88.8361 
       0.711789         277.311         87.1175 
       0.717957         275.276         85.4328 
        0.72409         272.782         83.8018 
       0.730186         269.375         82.2229 
       0.736317          266.72         80.6757 
       0.742472         265.005         79.1626 
       0.748622         262.727         77.6897 
        0.75476          259.83         76.2577 
       0.760888         257.129         74.8644 
       0.767043         257.137         73.5008 
       0.773185         254.288         72.1745 
       0.779291         250.116         70.8889 
       0.785407         249.649         69.6331 
       0.791564         246.752         68.4001 
       0.797719         244.252         67.1978 
       0.803834         242.226         66.0322 
       0.809972         241.606         64.8902 
       0.816124          240.69         63.7728 
       0.822261         238.202         62.6848 
       0.828378         235.833         61.6256 
       0.834502         234.251           60.59 
       0.840667         232.122         59.5718 
       0.846816         230.627         58.5799 
       0.852925         229.437         57.6169 
       0.859047         227.473         56.6737 
       0.865192         224.635         55.7487 
       0.871341         223.002         54.8438 
       0.877463         222.154         53.9632 
       0.883569         221.119         53.1043 
       0.889708         218.482         52.2598 
       0.895864          216.93         51.4316 
       0.902008         215.396         50.6232 
       0.908149          214.31         49.8328 
       0.914301         211.621          49.058 
       0.920448         210.595         48.3006 
       0.926574           208.7         47.5618 
       0.932687         208.786         46.8402 
       0.938823         206.234         46.1311 
       0.944975         205.314          45.435 
       0.951105         204.036          44.756 
       0.957225         202.633          44.092 
       0.963368         199.842         43.4393 
       0.969511          199.19         42.7999 
       0.975621         197.322         42.1768 
       0.981748          197.19         41.5646 
       0.987916         195.543         40.9608 
        0.99406         193.545         40.3712 
        1.00019         193.225         39.7945 
        1.00632         191.684         39.2297 
        1.01246         190.262          38.675 
        1.01859         190.298          38.132 
        1.02471         187.386         37.6001 
        1.03085         186.111         37.0765 
        1.03698         185.207         36.5641 
        1.04314         183.522         36.0592 
        1.04929         182.697         35.5651 
        1.05541         182.617         35.0822 
        1.06154         180.331         34.6071 
        1.06769         180.101         34.1402 
        1.07382         178.515         33.6834 
        1.07993         177.228         33.2361 
        1.08607         176.812          32.795 
        1.09222         175.573         32.3616 
        1.09836         174.196         31.9365 
        1.10449         172.457         31.5196 
        1.11063         171.228         31.1097 
        1.11677         170.763         30.7073 
         1.1229         169.416         30.3127 
        1.12903         168.821         29.9247 
        1.13518         167.748         29.5432 
        1.14131         166.221         29.1686 
        1.14745         166.239         28.8007 
        1.15359         164.748         28.4391 
        1.15973         163.526         28.0836 
        1.16584         162.491         27.7358 
        1.17197         162.145         27.3935 
        1.17811         160.548         27.0558 
        1.18424         159.901         26.7249 
        1.19038         159.526         26.3985 
        1.19652         158.099         26.0778 
        1.20267         157.573         25.7624 
        1.20881         156.342         25.4523 
        1.21495         155.346         25.1478 
        1.22108         154.402         24.8483 
         1.2272         153.306         24.5545 
        1.23334         153.024         24.2647 
        1.23949         151.697         23.9789 
        1.24562         150.935         23.6986 
        1.25174          150.13         23.4231 
        1.25789         149.151         23.1512 
        1.26402         147.748         22.8841 
        1.27014         146.796         22.6219 
        1.27628         146.504          22.363 
        1.28244         146.268         22.1077 
        1.28858         144.858         21.8567 
        1.29471         143.705         21.6102 
        1.30084         143.496         21.3677 
        1.30697         141.991         21.1286 
        1.31312         141.357         20.8928 
        1.31925         140.499         20.6613 
        1.32537         140.175         20.4336 
        1.33151         138.919         20.2085 
        1.33765         138.043         19.9869 
        1.34378         137.605         19.7691 
        1.34992          137.07         19.5544 
        1.35606         136.752         19.3425 
         1.3622         135.287          19.134 
        1.36833         134.314         18.9292 
        1.37445         133.876         18.7274 
        1.38059          132.87          18.528 
        1.38675         132.358          18.331 
        1.39288         131.811         18.1377 
        1.39901         131.464         17.9473 
        1.40515         130.035         17.7591 
         1.4113         129.594         17.5738 
        1.41742         128.601         17.3918 
        1.42355         128.047          17.212 
         1.4297         127.396         17.0343 
        1.43585         126.583         16.8591 
        1.44198         126.032         16.6871 
        1.44809         125.508         16.5178 
        1.45423         124.972         16.3502 
        1.46036         123.961         16.1853 
        1.46649         123.156         16.0225 
        1.47263         122.459         15.8619 
        1.47877         121.855         15.7036 
        1.48491         120.819         15.5472 
        1.49104         120.802         15.3932 
        1.49718         119.811         15.2412 
        1.50333         119.185          15.091 
        1.50947         118.638         14.9432 
         1.5156          118.05         14.7975 
        1.52172         117.348         14.6538 
        1.52787         116.578         14.5117 
          1.534         116.162         14.3717 
        1.54013         115.548         14.2337 
        1.54627         114.997         14.0972 
        1.55241         114.155         13.9625 
        1.55855         113.486         13.8298 
        1.56467         113.051         13.6991 
         1.5708         112.175         13.5698 
        1.57695          111.91         13.4419 
        1.58308         111.347          13.316 
        1.58922         110.939         13.1916 
        1.59535          110.15         13.0689 
         1.6015         109.808         12.9475 
        1.60764         109.134         12.8278 
        1.61376         108.536         12.7099 
        1.61989         107.905         12.5934 
        1.62604         107.234          12.478 
        1.63218         107.134         12.3643 
        1.63831         106.191         12.2521 
        1.64444         105.708         12.1414 
        1.65059         105.182         12.0317 
        1.65673         104.459         11.9235 
        1.66285         104.123          11.817 
        1.66898         103.636         11.7117 
        1.67512         102.969         11.6075 
        1.68127         102.513         11.5045 
         1.6874         101.753         11.4029 
        1.69353          101.48         11.3027 
        1.69967         101.089         11.2034 
        1.70581         100.348         11.1053 
        1.71193         99.8605         11.0088 
        1.71806         99.4914         10.9132 
        1.72421         98.7883         10.8186 
        1.73035         98.5547         10.7252 
        1.73649         97.9816          10.633 
        1.74262         97.2941         10.5418 
        1.74876         97.0106         10.4517 
        1.75489         96.3024         10.3629 
        1.76101           95.73         10.2751 
        1.76715         95.2565         10.1881 
        1.77329         94.9917         10.1021 
        1.77943         94.2261         10.0171 
        1.78557         94.0649         9.93313 
        1.79171         93.1551         9.85013 
        1.79785         92.7835         9.76806 
        1.80399         92.2804         9.68694 
        1.81012         91.9193         9.60686 
        1.81625         91.5486         9.52771 
        1.82239         91.0992         9.44934 
        1.82853         90.5422         9.37189 
        1.83466         90.0438         9.29539 
        1.84078         89.6425         9.21981 
        1.84692          89.137         9.14496 
        1.85306         88.7731         9.07085 
         1.8592         88.4091         8.99767 
        1.86533         87.7784         8.92534 
        1.87147         87.3336         8.85372 
        1.87761         86.9234         8.78286 
        1.88375         86.4051         8.71286 
        1.88988          86.115         8.64369 
        1.89601         85.5917         8.57524 
        1.90215         85.0222         8.50748 
        1.90829          84.747         8.44048 
        1.91442          84.361          8.3742 
        1.92056         83.7815         8.30869 
         1.9267         83.5356         8.24381 
        1.93284         83.0608         8.17959 
        1.93897         82.6484         8.11617 
        1.94509         82.3353         8.05356 
        1.95123          81.885         7.99146 
        1.95737         81.3578         7.92996 
        1.96349         80.9538         7.86927 
        1.96964         80.4644         7.80904 
        1.97578         80.1018         7.74941 
        1.98192         80.0442         7.69053 
        1.98805         79.3194         7.63225 
        1.99419         79.0654         7.57456 
        2.00033         78.7269         7.51745 
        2.00647         78.2741         7.46094 
         2.0126            77.9         7.40511 
        2.01874         77.2796         7.34976 
        2.02488         77.1429         7.29493 
        2.03101         76.5712         7.24076 
        2.03714         76.0682         7.18719 
        2.04328         75.8907         7.13411 
        2.04941         75.5179          7.0816 
        2.05554         75.1912         7.02966 
        2.06167          74.808         6.97817 
        2.06781         74.2762         6.92718 
        2.07396         73.9523         6.87664 
        2.08009         73.7348         6.82668 
        2.08622         73.2874         6.77728 
        2.09237         72.9923         6.72827 
        2.09851         72.6757         6.67974 
        2.10464         72.2326         6.63176 
        2.11077         71.9332         6.58432 
        2.11691         71.6051         6.53723 
        2.12305         71.1158          6.4906 
        2.12918         70.7797         6.44454 
        2.13531         70.4412         6.39892 
        2.14145         70.0435         6.35364 
         2.1476          69.643         6.30874 
        2.15372         69.5089          6.2645 
        2.15985         69.0385         6.22064 
        2.16599         68.6846         6.17708 
        2.17213         68.3931         6.13398 
        2.17827         68.0194          6.0913 
         2.1844         67.6843         6.04906 
        2.19054         67.4987         6.00721 
        2.19666         67.1281         5.96582 
         2.2028         66.8927         5.92478 
        2.20893         66.4161          5.8841 
        2.21508         66.1997         5.84377 
        2.22122         65.7777         5.80379 
        2.22736         65.5247         5.76427 
        2.23349         65.1345         5.72513 
        2.23962         64.8518         5.68634 
        2.24577         64.5256         5.64787 
         2.2519          64.257          5.6098 
        2.25802         63.9661         5.57215 
        2.26417         63.5958         5.53474 
        2.27031         63.3233         5.49764 
        2.27644         62.9612         5.46099 
        2.28257         62.7236         5.42467 
        2.28872         62.3911         5.38861 
        2.29486         61.9469         5.35289 
        2.30099         61.5667         5.31756 
        2.30712         61.4738         5.28254 
        2.31326          61.147         5.24777 
         2.3194         60.8918         5.21334 
        2.32553         60.5641         5.17927 
        2.33166         60.2273         5.14552 
         2.3378         59.9376         5.11203 
        2.34394         59.5928         5.07882 
        2.35007          59.366         5.04596 
        2.35619         59.1388         5.01342 
        2.36233         58.8221          4.9811 
        2.36848          58.579         4.94899 
        2.37462         58.1668         4.91723 
        2.38075         58.0334         4.88579 
        2.38689         57.6999         4.85459 
        2.39303         57.3587         4.82367 
        2.39916         57.1124         4.79305 
        2.40529         56.9458         4.76269 
        2.41143         56.5884         4.73258 
        2.41757          56.315         4.70272 
         2.4237         56.0985         4.67317 
        2.42983         55.8107         4.64387 
        2.43598         55.4673         4.61475 
        2.44211          55.213         4.58593 
        2.44823          55.005         4.55741 
        2.45437         54.7139         4.52906 
        2.46052         54.5092         4.50093 
        2.46665         54.2774         4.47308 
        2.47279         53.8745         4.44549 
        2.47892          53.751          4.4181 
        2.48507         53.4144         4.39092 
         2.4912         53.1555         4.36402 
