# k  (h/Mpc)    P(k)  (Mpc/h)^3    P_linear(k)  (Mpc/h)^3
     0.00783031         16260.7         16493.7 
       0.013688         19623.3         19435.7 
       0.019231         18929.5         18872.1 
      0.0249154         16397.1         16721.7 
      0.0312784         13731.5         13850.4 
      0.0375637         11433.4         11392.5 
      0.0433917         9603.66         9728.08 
      0.0492413         8593.73         8616.44 
      0.0555754         7643.05         7847.48 
      0.0619321            7324         7282.17 
       0.067871         6604.74         6758.34 
      0.0738098         6023.16         6152.22 
      0.0800417         5284.53         5436.15 
      0.0862327         4671.59         4720.23 
      0.0921407         4173.32         4115.46 
      0.0982031         3670.79         3628.45 
       0.104506         3427.26         3276.88 
       0.110769         3181.63         3055.12 
       0.116806         3014.84         2913.05 
       0.122832         2883.63         2790.55 
       0.129052         2672.53         2643.76 
       0.135211         2508.37         2460.84 
       0.141259         2364.52         2252.63 
       0.147318         2190.36         2038.64 
       0.153489         1983.11         1840.96 
       0.159709         1859.84          1680.5 
       0.165845         1780.08         1565.16 
       0.171974          1687.6         1485.94 
       0.178125         1612.21         1428.77 
       0.184229         1546.07         1378.69 
        0.19034         1456.96         1322.87 
       0.196428         1420.54         1255.78 
       0.202534          1360.4         1178.28 
       0.208729         1285.46         1095.79 
       0.214876         1221.51         1018.23 
       0.220989         1173.38         951.631 
       0.227147         1121.68         897.966 
        0.23329         1075.96         856.934 
       0.239377         1055.85         825.013 
       0.245482         987.882          797.03 
       0.251667         981.506         768.549 
       0.257832         941.322         737.422 
       0.263955         908.553         703.378 
       0.270079         872.988         667.677 
        0.27624         861.081         632.402 
       0.282372          825.05         600.157 
        0.28843         812.062         572.424 
       0.294538         769.887         548.807 
       0.300721         765.393         528.629 
        0.30691         733.191         510.753 
       0.313033         718.463         493.975 
       0.319153         700.832         477.009 
       0.325316         679.205         459.324 
        0.33145         660.999         441.226 
       0.337538         649.364         423.382 
       0.343633         631.584         406.287 
       0.349808         608.589         390.312 
       0.355968         604.017         375.983 
       0.362074         596.077         363.262 
       0.368217         578.021         351.659 
       0.374374         553.549         340.755 
       0.380519         552.714          330.22 
       0.386598         537.074         319.891 
       0.392688         534.442         309.544 
        0.39888         518.513         299.151 
       0.405048         509.261         289.082 
       0.411186         501.505          279.53 
       0.417313         491.178         270.609 
       0.423458         481.263         262.281 
       0.429607         474.539         254.513 
       0.435692         462.841         247.286 
       0.441815         458.422         240.326 
       0.447964         448.811         233.535 
       0.454126         440.968         226.888 
       0.460267         431.696         220.404 
       0.466387         426.471         214.099 
        0.47254         420.148         207.976 
       0.478662         417.876         202.151 
       0.484765         403.226         196.623 
       0.490885         399.926         191.348 
       0.497035          392.22         186.303 
       0.503198         387.838          181.47 
       0.509342         384.969         176.825 
       0.515458         380.843         172.335 
       0.521598         370.884          167.95 
       0.527764         365.427         163.674 
       0.533884         362.815         159.561 
           0.54         357.786         155.585 
       0.546137         356.018         151.737 
       0.552299         349.146          148.02 
       0.558452         347.265         144.458 
       0.564573         342.495         141.048 
       0.570708         336.465         137.748 
       0.576825         329.404          134.56 
       0.582926         327.943         131.473 
       0.589034         324.899         128.472 
       0.595184         322.197         125.541 
       0.601379         316.873         122.679 
       0.607522         312.628         119.929 
       0.613639         311.114         117.275 
       0.619772         304.692         114.699 
       0.625918         303.481         112.198 
       0.632068          298.44         109.776 
       0.638161          297.21         107.451 
         0.6443         292.427         105.178 
       0.650464         289.791         102.962 
       0.656582         287.021         100.824 
       0.662703         286.542         98.7444 
       0.668861         281.652         96.7095 
       0.675024         278.558         94.7298 
       0.681124          276.47          92.826 
       0.687237         273.729         90.9721 
       0.693381          269.59         89.1622 
       0.699536         266.933         87.4001 
       0.705665         264.765         85.6944 
       0.711789         263.353         84.0366 
       0.717957         261.521         82.4115 
        0.72409         259.026         80.8382 
       0.730186         255.849         79.3151 
       0.736317         253.246         77.8226 
       0.742472         251.635          76.363 
       0.748622         249.483         74.9422 
        0.75476         246.815         73.5609 
       0.760888         244.197         72.2168 
       0.767043         244.182         70.9014 
       0.773185          241.46         69.6221 
       0.779291         237.388         68.3819 
       0.785407         236.949         67.1705 
       0.791564         234.249         65.9811 
       0.797719         231.739         64.8213 
       0.803834         229.948         63.6969 
       0.809972         229.278         62.5953 
       0.816124         228.405         61.5174 
       0.822261         226.044         60.4679 
       0.828378          223.76         59.4461 
       0.834502         222.404         58.4472 
       0.840667          220.23          57.465 
       0.846816         218.734         56.5081 
       0.852925          217.66         55.5792 
       0.859047         215.782         54.6694 
       0.865192           213.1         53.7771 
       0.871341         211.548         52.9042 
       0.877463         210.606         52.0547 
       0.883569         209.745         51.2262 
       0.889708         207.224         50.4116 
       0.895864         205.597         49.6127 
       0.902008         204.233         48.8329 
       0.908149         203.315         48.0704 
       0.914301         200.672          47.323 
       0.920448         199.679         46.5924 
       0.926574          197.98         45.8798 
       0.932687         198.045         45.1837 
       0.938823         195.584         44.4996 
       0.944975         194.613         43.8282 
       0.951105         193.451         43.1731 
       0.957225         192.069         42.5326 
       0.963368         189.442          41.903 
       0.969511         188.826         41.2862 
       0.975621         187.047         40.6852 
       0.981748         186.985         40.0946 
       0.987916         185.322         39.5121 
        0.99406         183.487         38.9434 
        1.00019         183.258         38.3871 
        1.00632         181.691         37.8422 
        1.01246         180.385         37.3072 
        1.01859         180.335         36.7834 
        1.02471         177.651         36.2703 
        1.03085         176.359         35.7653 
        1.03698         175.528          35.271 
        1.04314         173.909         34.7839 
        1.04929         173.152         34.3073 
        1.05541         173.011         33.8415 
        1.06154         170.958         33.3832 
        1.06769          170.75         32.9328 
        1.07382         169.208         32.4921 
        1.07993         167.962         32.0606 
        1.08607         167.499         31.6352 
        1.09222         166.431         31.2171 
        1.09836         165.105          30.807 
        1.10449          163.42         30.4049 
        1.11063         162.259         30.0094 
        1.11677         161.827         29.6212 
         1.1229         160.569         29.2406 
        1.12903          159.99         28.8663 
        1.13518         159.016         28.4983 
        1.14131         157.523          28.137 
        1.14745         157.501         27.7821 
        1.15359         156.132         27.4333 
        1.15973         155.035         27.0904 
        1.16584          153.95         26.7549 
        1.17197         153.556         26.4246 
        1.17811         152.189         26.0989 
        1.18424          151.57         25.7797 
        1.19038          151.21         25.4649 
        1.19652         149.874         25.1555 
        1.20267         149.291         24.8512 
        1.20881         148.142         24.5521 
        1.21495         147.208         24.2584 
        1.22108          146.33         23.9695 
         1.2272         145.262          23.686 
        1.23334         144.956         23.4065 
        1.23949         143.798         23.1309 
        1.24562         143.023         22.8604 
        1.25174         142.232         22.5947 
        1.25789         141.314         22.3324 
        1.26402          139.99         22.0748 
        1.27014         139.115         21.8219 
        1.27628         138.859         21.5721 
        1.28244         138.586         21.3258 
        1.28858         137.333         21.0837 
        1.29471         136.162         20.8459 
        1.30084         136.024          20.612 
        1.30697         134.584         20.3813 
        1.31312         134.017         20.1539 
        1.31925         133.176         19.9306 
        1.32537         132.823         19.7109 
        1.33151         131.651         19.4938 
        1.33765         130.868           19.28 
        1.34378         130.421           19.07 
        1.34992         129.947         18.8629 
        1.35606         129.585         18.6584 
         1.3622         128.217         18.4573 
        1.36833         127.314         18.2597 
        1.37445         126.886         18.0651 
        1.38059         125.965         17.8727 
        1.38675         125.429         17.6827 
        1.39288         124.979         17.4962 
        1.39901         124.596         17.3125 
        1.40515         123.288          17.131 
         1.4113         122.834         16.9522 
        1.41742         121.937         16.7767 
        1.42355         121.366         16.6033 
         1.4297          120.81         16.4318 
        1.43585         119.976         16.2628 
        1.44198         119.471         16.0969 
        1.44809         118.971         15.9336 
        1.45423         118.452         15.7719 
        1.46036         117.556         15.6128 
        1.46649         116.762         15.4559 
        1.47263         116.089         15.3009 
        1.47877         115.581         15.1482 
        1.48491          114.58         14.9973 
        1.49104          114.55         14.8488 
        1.49718         113.632         14.7022 
        1.50333         113.054         14.5573 
        1.50947         112.531         14.4147 
         1.5156         111.947         14.2742 
        1.52172         111.289         14.1355 
        1.52787         110.597         13.9985 
          1.534         110.159         13.8634 
        1.54013          109.58         13.7303 
        1.54627         109.078         13.5986 
        1.55241         108.268         13.4687 
        1.55855         107.629         13.3406 
        1.56467         107.305         13.2146 
         1.5708          106.44         13.0899 
        1.57695         106.197         12.9665 
        1.58308         105.621         12.8451 
        1.58922         105.256         12.7251 
        1.59535         104.525         12.6067 
         1.6015         104.163         12.4896 
        1.60764         103.523         12.3741 
        1.61376         103.027         12.2604 
        1.61989         102.416          12.148 
        1.62604         101.824         12.0367 
        1.63218         101.681          11.927 
        1.63831         100.744         11.8188 
        1.64444         100.332          11.712 
        1.65059          99.827         11.6062 
        1.65673         99.1308         11.5018 
        1.66285         98.8088          11.399 
        1.66898         98.3984         11.2975 
        1.67512           97.72          11.197 
        1.68127         97.3173         11.0976 
         1.6874         96.5747         10.9996 
        1.69353         96.2793         10.9029 
        1.69967         95.9591         10.8071 
        1.70581         95.2773         10.7126 
        1.71193         94.8086         10.6195 
        1.71806          94.445         10.5273 
        1.72421         93.7469          10.436 
        1.73035         93.5258         10.3459 
        1.73649         93.0095         10.2569 
        1.74262         92.3451          10.169 
        1.74876         92.0798         10.0821 
        1.75489         91.4151         9.99635 
        1.76101         90.8941         9.91165 
        1.76715         90.3968         9.82781 
        1.77329          90.171         9.74484 
        1.77943         89.4326          9.6628 
        1.78557         89.3168         9.58182 
        1.79171         88.4277         9.50175 
        1.79785         88.0846         9.42258 
        1.80399         87.6319         9.34434 
        1.81012         87.3036         9.26709 
        1.81625         86.9236         9.19074 
        1.82239          86.507         9.11514 
        1.82853         86.0232         9.04043 
        1.83466         85.5294         8.96663 
        1.84078         85.1402         8.89373 
        1.84692         84.7052         8.82152 
        1.85306         84.3095         8.75003 
         1.8592         83.9988         8.67944 
        1.86533         83.4041         8.60967 
        1.87147         82.9617         8.54059 
        1.87761         82.6147         8.47223 
        1.88375         82.1151          8.4047 
        1.88988         81.8187         8.33799 
        1.89601         81.3436         8.27196 
        1.90215         80.8037         8.20659 
        1.90829         80.5128         8.14196 
        1.91442         80.1649         8.07802 
        1.92056         79.6289         8.01483 
         1.9267         79.3743         7.95225 
        1.93284         78.9274         7.89029 
        1.93897         78.5555         7.82912 
        1.94509         78.2615         7.76873 
        1.95123         77.8293         7.70882 
        1.95737         77.3238          7.6495 
        1.96349         76.9382         7.59095 
        1.96964         76.5176         7.53285 
        1.97578         76.1485         7.47533 
        1.98192         76.1007         7.41853 
        1.98805         75.3694         7.36231 
        1.99419         75.1404         7.30667 
        2.00033         74.8671         7.25158 
        2.00647         74.3889         7.19707 
         2.0126         74.0511         7.14321 
        2.01874         73.4554         7.08982 
        2.02488         73.3136         7.03693 
        2.03101         72.8075         6.98467 
        2.03714         72.3291           6.933 
        2.04328         72.1449         6.88179 
        2.04941         71.8106         6.83114 
        2.05554          71.513         6.78103 
        2.06167         71.1454         6.73136 
        2.06781         70.6232         6.68218 
        2.07396         70.3105         6.63343 
        2.08009         70.1023         6.58524 
        2.08622         69.7009         6.53758 
        2.09237         69.4054         6.49031 
        2.09851         69.1255         6.44349 
        2.10464         68.6897         6.39721 
        2.11077         68.4075         6.35145 
        2.11691         68.0869         6.30602 
        2.12305         67.6467         6.26104 
        2.12918         67.3273         6.21661 
        2.13531         66.9901         6.17261 
        2.14145         66.6311         6.12893 
         2.1476         66.2541         6.08562 
        2.15372         66.1245         6.04294 
        2.15985         65.6673         6.00063 
        2.16599         65.3452         5.95861 
        2.17213         65.0709         5.91703 
        2.17827         64.7121         5.87586 
         2.1844         64.3948         5.83512 
        2.19054         64.2145         5.79475 
        2.19666         63.8583         5.75482 
         2.2028         63.6616         5.71523 
        2.20893         63.1961           5.676 
        2.21508         62.9967         5.63708 
        2.22122         62.6016         5.59852 
        2.22736         62.3526          5.5604 
        2.23349         61.9856         5.52265 
        2.23962         61.6911         5.48522 
        2.24577         61.3782         5.44811 
         2.2519         61.1502          5.4114 
        2.25802         60.8757         5.37508 
        2.26417         60.5101         5.33899 
        2.27031          60.244          5.3032 
        2.27644         59.9399         5.26784 
        2.28257          59.707         5.23281 
        2.28872         59.3628         5.19803 
        2.29486         58.9502         5.16357 
        2.30099          58.625         5.12949 
        2.30712         58.5261         5.09571 
        2.31326         58.2028         5.06217 
         2.3194         57.9524         5.02896 
        2.32553         57.6523         4.99609 
        2.33166         57.3003         4.96354 
         2.3378         57.0398         4.93123 
        2.34394         56.7327         4.89919 
        2.35007         56.5119         4.86749 
        2.35619         56.2975         4.83611 
        2.36233         55.9997         4.80492 
        2.36848         55.7681         4.77395 
        2.37462         55.3694         4.74332 
        2.38075          55.251         4.71298 
        2.38689         54.9407         4.68289 
        2.39303         54.6216         4.65306 
        2.39916         54.3948         4.62352 
        2.40529         54.2104         4.59425 
        2.41143         53.9076          4.5652 
        2.41757         53.6234         4.53639 
         2.4237         53.4355         4.50789 
        2.42983         53.1333         4.47963 
        2.43598         52.8205         4.45154 
        2.44211          52.588         4.42373 
        2.44823         52.3907         4.39622 
        2.45437         52.1161         4.36888 
        2.46052         51.9123         4.34174 
        2.46665         51.7052         4.31488 
        2.47279         51.3203         4.28826 
        2.47892         51.1985         4.26184 
        2.48507          50.879         4.23562 
         2.4912         50.6521         4.20967 
