# k  (h/Mpc)    Pcb(k)  (Mpc/h)^3    Pcb_linear(k)  (Mpc/h)^3
     0.00783031         1294.89         1308.26 
       0.013688         1543.13         1545.12 
       0.019231          1502.4         1501.84 
      0.0249154         1324.76          1331.5 
      0.0312784         1103.54         1103.31 
      0.0375637         911.175         907.756 
      0.0433917         775.073         775.262 
      0.0492413         688.205         686.756 
      0.0555754         622.904         625.529 
      0.0619321         583.336         580.512 
       0.067871         536.971         538.783 
      0.0738098         488.741         490.485 
      0.0800417         430.998         433.413 
      0.0862327         376.131         376.346 
      0.0921407         329.062         328.135 
      0.0982031         289.438         289.311 
       0.104506         263.777         261.284 
       0.110769         245.501         243.606 
       0.116806         232.621         232.281 
       0.122832         223.641         222.515 
       0.129052         210.577         210.813 
       0.135211         196.105         196.228 
       0.141259         180.695         179.627 
       0.147318         164.472         162.565 
       0.153489         148.285         146.803 
       0.159709         135.812         134.007 
       0.165845         127.565         124.811 
       0.171974         120.103         118.494 
       0.178125         115.706         113.936 
       0.184229         111.803         109.943 
        0.19034         106.185         105.492 
       0.196428         101.663         100.142 
       0.202534         96.3449          93.962 
       0.208729         89.3919         87.3838 
       0.214876         82.9132         81.1989 
       0.220989         78.3375         75.8882 
       0.227147          73.445          71.609 
        0.23329         70.1629         68.3372 
       0.239377          67.838         65.7916 
       0.245482         64.9085         63.5601 
       0.251667         63.2571         61.2889 
       0.257832          60.684         58.8064 
       0.263955         58.0246          56.092 
       0.270079         55.2262          53.245 
        0.27624         52.9018         50.4321 
       0.282372         50.3831         47.8607 
        0.28843         47.9209         45.6491 
       0.294538         45.9682          43.766 
       0.300721         44.6908         42.1566 
        0.30691          42.863         40.7311 
       0.313033         41.5298         39.3932 
       0.319153         39.6919         38.0403 
       0.325316         38.8809         36.6297 
        0.33145           37.29         35.1867 
       0.337538         35.9826         33.7637 
       0.343633         34.4887         32.4003 
       0.349808         33.3511         31.1264 
       0.355968          32.235         29.9838 
       0.362074         31.1387         28.9693 
       0.368217         30.1999          28.044 
       0.374374         29.2119         27.1744 
       0.380519          28.465         26.3343 
       0.386598          27.668         25.5106 
       0.392688         26.9612         24.6855 
        0.39888         26.0549         23.8566 
       0.405048         25.3103         23.0538 
       0.411186         24.5896          22.292 
       0.417313         23.7453         21.5806 
       0.423458         23.0985         20.9164 
       0.429607         22.4254         20.2969 
       0.435692         21.7587         19.7206 
       0.441815           21.27         19.1655 
       0.447964         20.8531          18.624 
       0.454126         20.0819         18.0939 
       0.460267         19.6531         17.5769 
       0.466387         19.0229          17.074 
        0.47254         18.6486         16.5857 
       0.478662         18.2616         16.1212 
       0.484765         17.6835         15.6804 
       0.490885         17.2549         15.2597 
       0.497035         17.0094         14.8574 
       0.503198         16.5287         14.4719 
       0.509342         16.1145         14.1015 
       0.515458         15.7276         13.7435 
       0.521598         15.4093         13.3938 
       0.527764         15.0226         13.0528 
       0.533884         14.7588         12.7247 
           0.54         14.4012         12.4077 
       0.546137         14.1212         12.1008 
       0.552299         13.8468         11.8044 
       0.558452         13.4239         11.5203 
       0.564573         13.2171         11.2484 
       0.570708         12.9495         10.9852 
       0.576825         12.6149         10.7309 
       0.582926          12.379         10.4848 
       0.589034         12.0381         10.2455 
       0.595184         11.8521         10.0117 
       0.601379         11.5854          9.7835 
       0.607522         11.4045         9.56417 
       0.613639         11.2419         9.35255 
       0.619772           10.93         9.14705 
       0.625918         10.8281         8.94765 
       0.632068         10.6473         8.75448 
       0.638161         10.3824         8.56904 
         0.6443         10.1675         8.38777 
       0.650464         9.95722         8.21109 
       0.656582         9.86796         8.04062 
       0.662703         9.67577         7.87473 
       0.668861         9.49486         7.71246 
       0.675024         9.30055         7.55458 
       0.681124         9.13267         7.40275 
       0.687237         8.98919         7.25491 
       0.693381          8.8595         7.11057 
       0.699536         8.61715         6.97005 
       0.705665         8.52204         6.83402 
       0.711789         8.37041         6.70181 
       0.717957         8.22412         6.57222 
        0.72409          8.0832         6.44674 
       0.730186         7.96591         6.32528 
       0.736317         7.87638         6.20626 
       0.742472         7.74564         6.08986 
       0.748622         7.61328         5.97655 
        0.75476         7.45832         5.86639 
       0.760888         7.35358          5.7592 
       0.767043         7.26094         5.65431 
       0.773185         7.11211         5.55228 
       0.779291         7.04879         5.45338 
       0.785407         6.93292         5.35677 
       0.791564         6.82619         5.26192 
       0.797719         6.70011         5.16943 
       0.803834         6.65019         5.07976 
       0.809972         6.56841          4.9919 
       0.816124         6.43083         4.90594 
       0.822261         6.32282         4.82225 
       0.828378          6.2451         4.74076 
       0.834502         6.19187          4.6611 
       0.840667         6.06822         4.58277 
       0.846816         5.96522         4.50646 
       0.852925         5.91256         4.43238 
       0.859047         5.83068         4.35982 
       0.865192         5.77006         4.28866 
       0.871341         5.70381         4.21905 
       0.877463         5.61144         4.15131 
       0.883569         5.51662         4.08523 
       0.889708         5.42906         4.02027 
       0.895864         5.36938         3.95656 
       0.902008         5.30637         3.89437 
       0.908149         5.24974         3.83356 
       0.914301         5.16514         3.77396 
       0.920448         5.09267         3.71569 
       0.926574         5.02385         3.65886 
       0.932687         4.96961         3.60335 
       0.938823         4.90653         3.54879 
       0.944975         4.84197         3.49525 
       0.951105         4.78942         3.44301 
       0.957225         4.76402         3.39193 
       0.963368         4.69426         3.34172 
       0.969511          4.6297         3.29253 
       0.975621         4.56711          3.2446 
       0.981748         4.51962          3.1975 
       0.987916         4.47014         3.15105 
        0.99406         4.39368          3.1057 
        1.00019         4.33932         3.06134 
        1.00632         4.31092         3.01788 
        1.01246         4.25893         2.97521 
        1.01859         4.20099         2.93344 
        1.02471         4.15758         2.89252 
        1.03085         4.10816         2.85224 
        1.03698         4.05383         2.81282 
        1.04314         4.02007         2.77398 
        1.04929         3.96977         2.73597 
        1.05541         3.92232         2.69882 
        1.06154         3.88604         2.66228 
        1.06769         3.86156         2.62636 
        1.07382         3.79664         2.59122 
        1.07993         3.75159          2.5568 
        1.08607         3.73123         2.52287 
        1.09222         3.68411         2.48953 
        1.09836         3.64779         2.45683 
        1.10449            3.61         2.42476 
        1.11063         3.56559         2.39322 
        1.11677         3.53738         2.36227 
         1.1229         3.50179         2.33191 
        1.12903         3.45719         2.30206 
        1.13518          3.4241         2.27271 
        1.14131         3.37997          2.2439 
        1.14745         3.33574          2.2156 
        1.15359         3.31764         2.18778 
        1.15973         3.27447         2.16043 
        1.16584         3.24662         2.13368 
        1.17197         3.21483         2.10734 
        1.17811         3.19283         2.08137 
        1.18424         3.16047         2.05591 
        1.19038         3.13499          2.0308 
        1.19652         3.10017         2.00613 
        1.20267         3.06952         1.98186 
        1.20881         3.04272         1.95801 
        1.21495         3.01462         1.93458 
        1.22108         2.98471         1.91155 
         1.2272         2.96445         1.88894 
        1.23334         2.92529         1.86665 
        1.23949         2.89558         1.84466 
        1.24562         2.87895          1.8231 
        1.25174         2.84433         1.80191 
        1.25789         2.82356         1.78099 
        1.26402         2.79481         1.76045 
        1.27014         2.76884         1.74027 
        1.27628         2.75096         1.72036 
        1.28244         2.71514         1.70072 
        1.28858         2.70117         1.68141 
        1.29471         2.66824         1.66244 
        1.30084          2.6425         1.64379 
        1.30697          2.6366         1.62539 
        1.31312          2.5899         1.60725 
        1.31925         2.57661         1.58945 
        1.32537         2.55273         1.57193 
        1.33151         2.53921         1.55461 
        1.33765         2.50549         1.53757 
        1.34378         2.48929         1.52081 
        1.34992          2.4758          1.5043 
        1.35606         2.43864         1.48799 
         1.3622         2.43041         1.47196 
        1.36833         2.40718          1.4562 
        1.37445         2.38514         1.44068 
        1.38059         2.37433         1.42534 
        1.38675         2.35813         1.41018 
        1.39288         2.33237         1.39531 
        1.39901          2.3071         1.38066 
        1.40515         2.29087         1.36619 
         1.4113         2.27537         1.35193 
        1.41742         2.25744         1.33793 
        1.42355         2.24171          1.3241 
         1.4297          2.2187         1.31042 
        1.43585         2.20726         1.29695 
        1.44198         2.19309         1.28371 
        1.44809          2.1684         1.27069 
        1.45423         2.15099          1.2578 
        1.46036         2.13193         1.24511 
        1.46649         2.11781         1.23259 
        1.47263          2.0995         1.22024 
        1.47877         2.08093         1.20806 
        1.48491         2.06622         1.19602 
        1.49104         2.05394         1.18418 
        1.49718         2.03916         1.17249 
        1.50333         2.02295         1.16093 
        1.50947         2.00844         1.14956 
         1.5156         1.99192         1.13835 
        1.52172         1.97751          1.1273 
        1.52787         1.96259         1.11637 
          1.534         1.94689          1.1056 
        1.54013         1.93393         1.09498 
        1.54627         1.91703         1.08448 
        1.55241         1.90156         1.07412 
        1.55855          1.8919         1.06391 
        1.56467          1.8798         1.05386 
         1.5708         1.86115         1.04391 
        1.57695         1.84962         1.03407 
        1.58308         1.83532         1.02438 
        1.58922         1.82545         1.01482 
        1.59535         1.81185         1.00537 
         1.6015         1.79808        0.996038 
        1.60764         1.78776        0.986826 
        1.61376         1.77634        0.977755 
        1.61989         1.76106        0.968792 
        1.62604         1.74722        0.959921 
        1.63218         1.74252        0.951166 
        1.63831         1.72389        0.942541 
        1.64444         1.71258         0.93402 
        1.65059         1.70339        0.925585 
        1.65673         1.69091        0.917262 
        1.66285         1.67808        0.909066 
        1.66898         1.66983        0.900967 
        1.67512         1.65347        0.892951 
        1.68127          1.6434        0.885025 
         1.6874         1.63872        0.877213 
        1.69353         1.61831          0.8695 
        1.69967         1.60927        0.861862 
        1.70581         1.60524        0.854319 
        1.71193         1.59018        0.846894 
        1.71806         1.58404        0.839542 
        1.72421         1.57205        0.832263 
        1.73035         1.56124        0.825078 
        1.73649         1.55123         0.81798 
        1.74262         1.54089        0.810971 
        1.74876         1.53349        0.804039 
        1.75489         1.51817        0.797202 
        1.76101         1.50964        0.790447 
        1.76715         1.50256        0.783762 
        1.77329          1.4943        0.777145 
        1.77943         1.48017        0.770602 
        1.78557         1.47198        0.764144 
        1.79171         1.46764        0.757758 
        1.79785         1.45373        0.751445 
        1.80399         1.44621        0.745205 
        1.81012         1.43933        0.739044 
        1.81625         1.42895        0.732956 
        1.82239         1.41885        0.726927 
        1.82853         1.40658        0.720969 
        1.83466          1.4027        0.715083 
        1.84078         1.39358        0.709269 
        1.84692         1.38716        0.703511 
        1.85306         1.37616        0.697809 
         1.8592         1.36787         0.69218 
        1.86533         1.35929        0.686616 
        1.87147         1.35374        0.681107 
        1.87761         1.34412        0.675655 
        1.88375          1.3344         0.67027 
        1.88988         1.32961        0.664949 
        1.89601         1.31999        0.659683 
        1.90215         1.30914        0.654471 
        1.90829         1.30111        0.649316 
        1.91442         1.29758        0.644217 
        1.92056         1.28868        0.639178 
         1.9267         1.28078        0.634187 
        1.93284         1.27755        0.629246 
        1.93897         1.26765        0.624368 
        1.94509         1.25955        0.619551 
        1.95123         1.25064        0.614774 
        1.95737         1.24457        0.610043 
        1.96349         1.23798        0.605374 
        1.96964         1.23238        0.600741 
        1.97578         1.22349        0.596153 
        1.98192         1.21766        0.591624 
        1.98805         1.20959         0.58714 
        1.99419         1.20598        0.582703 
        2.00033         1.20109        0.578309 
        2.00647         1.18965        0.573962 
         2.0126         1.18557        0.569667 
        2.01874         1.17675        0.565409 
        2.02488         1.17318        0.561191 
        2.03101         1.16244        0.557024 
        2.03714         1.15636        0.552903 
        2.04328         1.15306        0.548819 
        2.04941         1.14401         0.54478 
        2.05554         1.13945        0.540784 
        2.06167         1.13227        0.536823 
        2.06781         1.12837        0.532901 
        2.07396         1.12101        0.529012 
        2.08009          1.1154        0.525169 
        2.08622         1.10834        0.521369 
        2.09237         1.10367        0.517599 
        2.09851         1.09749        0.513865 
        2.10464         1.09445        0.510174 
        2.11077         1.08646        0.506525 
        2.11691         1.07997        0.502902 
        2.12305         1.07586        0.499315 
        2.12918         1.06979        0.495772 
        2.13531           1.064        0.492262 
        2.14145         1.05818        0.488779 
         2.1476         1.05102        0.485325 
        2.15372         1.04709        0.481922 
        2.15985         1.04044        0.478548 
        2.16599         1.03654        0.475196 
        2.17213         1.02912        0.471881 
        2.17827         1.02654        0.468597 
         2.1844          1.0219        0.465348 
        2.19054         1.01764        0.462129 
        2.19666         1.01113        0.458944 
         2.2028         1.00566        0.455787 
        2.20893         1.00127        0.452658 
        2.21508        0.997298        0.449555 
        2.22122        0.988178         0.44648 
        2.22736        0.984827         0.44344 
        2.23349        0.983274        0.440429 
        2.23962        0.975392        0.437444 
        2.24577        0.971673        0.434485 
         2.2519        0.965467        0.431557 
        2.25802        0.962236         0.42866 
        2.26417        0.956819        0.425782 
        2.27031        0.953045        0.422928 
        2.27644        0.947641        0.420108 
        2.28257        0.943444        0.417314 
        2.28872        0.938654        0.414541 
        2.29486        0.933824        0.411793 
        2.30099        0.928889        0.409075 
        2.30712        0.924356        0.406381 
        2.31326        0.922241        0.403706 
         2.3194        0.917751        0.401057 
        2.32553        0.913921        0.398436 
        2.33166        0.907134         0.39584 
         2.3378        0.902723        0.393263 
        2.34394        0.898056        0.390709 
        2.35007        0.894584         0.38818 
        2.35619        0.892324        0.385678 
        2.36233        0.885512        0.383191 
        2.36848        0.882448        0.380721 
        2.37462        0.878414        0.378278 
        2.38075        0.875146        0.375859 
        2.38689        0.870908        0.373459 
        2.39303        0.866285         0.37108 
        2.39916         0.86216        0.368724 
        2.40529           0.859         0.36639 
        2.41143        0.854445        0.364073 
        2.41757        0.851101        0.361776 
         2.4237         0.84863        0.359502 
        2.42983        0.843176        0.357249 
        2.43598         0.84057        0.355008 
        2.44211        0.836888        0.352791 
        2.44823        0.832232        0.350597 
        2.45437        0.829138        0.348417 
        2.46052        0.826633        0.346252 
        2.46665        0.821853         0.34411 
        2.47279        0.817956        0.341987 
        2.47892        0.813453         0.33988 
        2.48507        0.811363        0.337789 
         2.4912        0.806943         0.33572 
