# k  (h/Mpc)    P(k)  (Mpc/h)^3    P_linear(k)  (Mpc/h)^3
     0.00783031         17297.7         17435.7 
       0.013688         21018.8         21668.3 
       0.019231         21760.9         22179.8 
      0.0249154         20757.7         20780.8 
      0.0312784         17977.2         18257.9 
      0.0375637           15343           15719 
      0.0433917         13592.6           13757 
      0.0492413         12025.9         12277.1 
      0.0555754         10993.7         11147.6 
      0.0619321            9843         10324.3 
       0.067871          9345.1         9660.23 
      0.0738098         8770.93         8976.19 
      0.0800417         8011.04         8185.04 
      0.0862327          7172.5         7348.13 
      0.0921407         6478.11         6566.56 
      0.0982031         5890.76         5851.58 
       0.104506         5237.18         5250.58 
       0.110769         4846.84         4807.87 
       0.116806         4627.25         4504.31 
       0.122832          4359.8         4280.37 
       0.129052         4127.65         4083.21 
       0.135211         4016.29         3881.12 
       0.141259         3724.15         3654.72 
       0.147318         3456.49         3400.04 
       0.153489         3248.86         3128.53 
       0.159709          3111.1         2866.83 
       0.165845         2838.61         2641.12 
       0.171974         2752.76          2458.9 
       0.178125         2662.76         2319.34 
       0.184229         2454.49         2214.75 
        0.19034         2425.46         2129.98 
       0.196428         2359.71         2051.11 
       0.202534         2225.89          1966.8 
       0.208729         2179.59         1870.95 
       0.214876         2081.03         1767.04 
       0.220989         1982.97         1660.96 
       0.227147         1924.22         1558.89 
        0.23329         1846.67         1468.13 
       0.239377         1837.26         1392.37 
       0.245482          1752.4         1330.37 
       0.251667         1689.32         1278.87 
       0.257832         1660.51         1234.36 
       0.263955         1590.03         1192.34 
       0.270079            1552         1149.09 
        0.27624         1488.24         1102.92 
       0.282372         1473.28         1054.67 
        0.28843         1442.52         1006.56 
       0.294538          1380.7         959.862 
       0.300721         1357.19         916.467 
        0.30691         1320.81         878.049 
       0.313033         1273.85         845.006 
       0.319153         1261.75         816.103 
       0.325316         1245.46         789.726 
        0.33145         1217.61          764.77 
       0.337538         1179.84         740.164 
       0.343633         1154.16         715.142 
       0.349808         1134.98         689.451 
       0.355968         1111.19         663.932 
       0.362074         1079.99         639.475 
       0.368217         1076.21         616.285 
       0.374374         1059.25         594.903 
       0.380519         1023.99         575.448 
       0.386598         1019.78         557.839 
       0.392688         992.809         541.452 
        0.39888         975.446         525.567 
       0.405048         955.507         510.164 
       0.411186          952.22          495.03 
       0.417313         947.083         480.034 
       0.423458         919.344         465.259 
       0.429607         895.951         450.909 
       0.435692         888.575         437.309 
       0.441815          871.03          424.38 
       0.447964         862.898         412.197 
       0.454126         851.001         400.711 
       0.460267         841.382         389.892 
       0.466387         826.344          379.59 
        0.47254         813.746         369.562 
       0.478662         802.901         359.823 
       0.484765         794.337         350.337 
       0.490885         785.804         341.048 
       0.497035         771.081         331.966 
       0.503198         770.341         323.184 
       0.509342         755.694         314.796 
       0.515458         740.945         306.819 
       0.521598         741.372         299.159 
       0.527764         723.392         291.794 
       0.533884         714.911          284.77 
           0.54         710.921          277.99 
       0.546137         701.297          271.38 
       0.552299         696.049         264.912 
       0.558452         688.068          258.63 
       0.564573         684.723         252.562 
       0.570708         676.392         246.668 
       0.576825         662.889         240.983 
       0.582926          661.36         235.505 
       0.589034         652.796         230.213 
       0.595184         645.286         225.075 
       0.601379         635.584         220.078 
       0.607522         626.752         215.278 
       0.613639         626.081         210.635 
       0.619772         620.552         206.105 
       0.625918         611.847         201.689 
       0.632068         608.557         197.394 
       0.638161         600.247         193.261 
         0.6443         593.882         189.218 
       0.650464         589.759          185.28 
       0.656582          585.07         181.485 
       0.662703         578.035         177.799 
       0.668861         571.395         174.199 
       0.675024           568.9         170.699 
       0.681124         557.188         167.334 
       0.687237         557.842         164.053 
       0.693381         548.539         160.845 
       0.699536           549.8         157.715 
       0.705665         541.026          154.68 
       0.711789         539.776         151.726 
       0.717957         532.861         148.828 
        0.72409          528.45         146.022 
       0.730186         526.952         143.307 
       0.736317         519.878         140.647 
       0.742472         513.851         138.048 
       0.748622         513.233         135.518 
        0.75476          505.36         133.058 
       0.760888         503.704         130.664 
       0.767043         500.925         128.319 
       0.773185          496.42         126.037 
       0.779291         491.366         123.823 
       0.785407         487.485         121.658 
       0.791564          485.15         119.531 
       0.797719         477.533         117.457 
       0.803834         478.127         115.444 
       0.809972          470.89         113.473 
       0.816124         467.868         111.543 
       0.822261         464.915         109.664 
       0.828378         463.033         107.834 
       0.834502         455.518         106.045 
       0.840667         454.121         104.285 
       0.846816          450.22          102.57 
       0.852925         449.642         100.905 
       0.859047         444.111         99.2741 
       0.865192         441.778         97.6736 
       0.871341         436.864         96.1075 
       0.877463         436.125         94.5828 
       0.883569         431.829         93.0953 
       0.889708         426.874         91.6322 
       0.895864         422.492          90.197 
       0.902008         421.963         88.7956 
       0.908149         417.668          87.425 
       0.914301         416.243         86.0812 
       0.920448         411.026          84.767 
       0.926574         409.049          83.485 
       0.932687         407.788         82.2323 
       0.938823             403          81.001 
       0.944975         401.494         79.7921 
       0.951105         398.441         78.6124 
       0.957225         393.287         77.4586 
       0.963368         393.442         76.3242 
       0.969511         388.541         75.2126 
       0.975621         385.884         74.1292 
       0.981748         384.278         73.0644 
       0.987916         381.711         72.0139 
        0.99406         377.833         70.9881 
        1.00019         374.213         69.9844 
        1.00632         373.174         69.0011 
        1.01246         369.939         68.0353 
        1.01859         367.153         67.0896 
        1.02471         365.419         66.1632 
        1.03085         363.166          65.251 
        1.03698         360.951         64.3581 
        1.04314         358.044         63.4781 
        1.04929         356.817         62.6167 
        1.05541         352.652         61.7748 
        1.06154         350.497         60.9463 
        1.06769         347.665         60.1318 
        1.07382         344.662         59.3349 
        1.07993         344.571         58.5543 
        1.08607         342.275         57.7846 
        1.09222         338.876          57.028 
        1.09836         337.013         56.2858 
        1.10449         334.273         55.5578 
        1.11063         333.134         54.8418 
        1.11677         329.347         54.1388 
         1.1229         328.124         53.4493 
        1.12903         325.127         52.7713 
        1.13518         323.767         52.1044 
        1.14131         321.676         51.4495 
        1.14745         318.699         50.8063 
        1.15359         316.059         50.1739 
        1.15973         314.597         49.5521 
        1.16584         313.034         48.9437 
        1.17197         310.769         48.3446 
        1.17811         307.218         47.7537 
        1.18424         306.625         47.1745 
        1.19038         304.728         46.6032 
        1.19652         301.686         46.0416 
        1.20267         300.315         45.4893 
        1.20881         298.895         44.9462 
        1.21495         295.939         44.4128 
        1.22108         295.117         43.8882 
         1.2272         290.985         43.3733 
        1.23334         289.817         42.8655 
        1.23949         288.034         42.3646 
        1.24562         286.985         41.8732 
        1.25174         285.087         41.3903 
        1.25789         282.372         40.9136 
        1.26402         281.199         40.4452 
        1.27014         279.555         39.9854 
        1.27628         277.589         39.5313 
        1.28244         274.882         39.0834 
        1.28858         274.047          38.643 
        1.29471          272.37         38.2104 
        1.30084         271.577         37.7848 
        1.30697         268.332         37.3651 
        1.31312         266.935         36.9512 
        1.31925          265.55         36.5448 
        1.32537         264.395         36.1449 
        1.33151         261.522         35.7497 
        1.33765         259.782         35.3605 
        1.34378         258.901         34.9779 
        1.34992         256.254         34.6008 
        1.35606         254.768         34.2284 
         1.3622         252.891         33.8621 
        1.36833         252.754         33.5021 
        1.37445         251.167         33.1475 
        1.38059         247.973         32.7969 
        1.38675         246.769         32.4506 
        1.39288         246.179         32.1107 
        1.39901         243.758         31.7758 
        1.40515         242.474         31.4449 
         1.4113         240.777         31.1189 
        1.41742         239.036         30.7987 
        1.42355         237.847         30.4825 
         1.4297         236.322         30.1697 
        1.43585         234.574         29.8615 
        1.44198         233.277         29.5587 
        1.44809         231.975         29.2607 
        1.45423          230.58         28.9658 
        1.46036         229.799         28.6754 
        1.46649         227.736         28.3889 
        1.47263         225.894         28.1061 
        1.47877         224.861         27.8273 
        1.48491         223.056         27.5518 
        1.49104         221.016         27.2806 
        1.49718         220.446         27.0129 
        1.50333         218.846         26.7484 
        1.50947         217.402         26.4879 
         1.5156         216.189         26.2313 
        1.52172         214.634          25.978 
        1.52787         213.333         25.7277 
          1.534         212.766         25.4809 
        1.54013         210.792         25.2376 
        1.54627         209.618         24.9971 
        1.55241         208.683         24.7596 
        1.55855         207.066         24.5256 
        1.56467         205.772         24.2952 
         1.5708         204.339         24.0672 
        1.57695         203.682         23.8417 
        1.58308         202.474         23.6197 
        1.58922         200.657         23.4003 
        1.59535         199.347         23.1838 
         1.6015         198.439         22.9697 
        1.60764         197.013         22.7584 
        1.61376         195.674         22.5504 
        1.61989         194.422         22.3448 
        1.62604         193.434         22.1413 
        1.63218         191.863         21.9404 
        1.63831         191.171         21.7425 
        1.64444          189.66          21.547 
        1.65059         188.743         21.3534 
        1.65673         187.533         21.1624 
        1.66285          186.23         20.9743 
        1.66898         185.179         20.7884 
        1.67512         184.065         20.6044 
        1.68127         182.938         20.4224 
         1.6874         181.694          20.243 
        1.69353         181.128          20.066 
        1.69967         179.526         19.8906 
        1.70581         178.661         19.7173 
        1.71193         177.423         19.5468 
        1.71806         176.096          19.378 
        1.72421         175.361         19.2108 
        1.73035          174.05         19.0458 
        1.73649         172.737         18.8827 
        1.74262         172.078         18.7217 
        1.74876         170.884         18.5624 
        1.75489         170.345         18.4054 
        1.76101          169.26         18.2502 
        1.76715         168.071         18.0965 
        1.77329         166.833         17.9445 
        1.77943         165.755         17.7941 
        1.78557         164.766         17.6457 
        1.79171         164.152         17.4989 
        1.79785         162.747         17.3538 
        1.80399         161.939         17.2104 
        1.81012         161.421         17.0687 
        1.81625         159.657         16.9287 
        1.82239         159.315         16.7901 
        1.82853         158.222         16.6531 
        1.83466         156.929         16.5178 
        1.84078         156.337         16.3841 
        1.84692         155.566         16.2517 
        1.85306         154.366         16.1205 
         1.8592         153.663          15.991 
        1.86533         152.247          15.863 
        1.87147         151.457         15.7363 
        1.87761         150.698         15.6109 
        1.88375         149.619          15.487 
        1.88988         148.961         15.3646 
        1.89601         148.273         15.2434 
        1.90215         147.431         15.1234 
        1.90829         145.971         15.0048 
        1.91442         145.328         14.8875 
        1.92056         144.641         14.7715 
         1.9267         143.585         14.6566 
        1.93284         142.412         14.5429 
        1.93897         142.018         14.4306 
        1.94509         141.171         14.3197 
        1.95123         140.398         14.2097 
        1.95737         139.845         14.1008 
        1.96349         138.691         13.9933 
        1.96964          137.79         13.8866 
        1.97578         137.044          13.781 
        1.98192         136.492         13.6767 
        1.98805         135.493         13.5734 
        1.99419         134.659         13.4712 
        2.00033         133.942           13.37 
        2.00647         132.842         13.2699 
         2.0126         132.285          13.171 
        2.01874         131.476         13.0729 
        2.02488          130.79         12.9757 
        2.03101         130.174         12.8797 
        2.03714         129.649         12.7848 
        2.04328         128.445         12.6907 
        2.04941         127.875         12.5977 
        2.05554         127.119         12.5056 
        2.06167         126.492         12.4143 
        2.06781           125.8         12.3239 
        2.07396         124.829         12.2343 
        2.08009         124.395         12.1458 
        2.08622          123.63         12.0582 
        2.09237         122.565         11.9713 
        2.09851         122.154         11.8852 
        2.10464         121.561         11.8002 
        2.11077         120.921          11.716 
        2.11691          120.13         11.6325 
        2.12305         119.305         11.5499 
        2.12918         118.789         11.4682 
        2.13531         117.849         11.3873 
        2.14145         117.353         11.3069 
         2.1476          116.53         11.2273 
        2.15372         115.925         11.1488 
        2.15985         115.355          11.071 
        2.16599         114.559         10.9937 
        2.17213         113.925         10.9173 
        2.17827         113.414         10.8416 
         2.1844         112.583         10.7666 
        2.19054         112.088         10.6924 
        2.19666          111.37         10.6189 
         2.2028         110.846         10.5461 
        2.20893         110.261         10.4739 
        2.21508         109.451         10.4024 
        2.22122         108.678         10.3314 
        2.22736          108.51         10.2613 
        2.23349         107.883         10.1918 
        2.23962         107.204          10.123 
        2.24577         106.354         10.0547 
         2.2519         105.717         9.98712 
        2.25802         105.396         9.92029 
        2.26417         104.741         9.85388 
        2.27031         104.178         9.78801 
        2.27644         103.501         9.72294 
        2.28257         103.234         9.65847 
        2.28872         102.525         9.59445 
        2.29486         101.878         9.53103 
        2.30099         101.096         9.46831 
        2.30712         100.771         9.40612 
        2.31326         100.046         9.34439 
         2.3194         99.6223         9.28324 
        2.32553         99.0765         9.22274 
        2.33166         98.6491         9.16281 
         2.3378         97.9635         9.10333 
        2.34394          97.415         9.04435 
        2.35007         96.8207         8.98598 
        2.35619         96.3148          8.9282 
        2.36233         95.9864         8.87078 
        2.36848         95.3871         8.81376 
        2.37462         95.0139         8.75735 
        2.38075         94.3329         8.70149 
        2.38689         93.9213         8.64607 
        2.39303         93.4352         8.59114 
        2.39916          92.879         8.53674 
        2.40529          92.275         8.48282 
        2.41143         91.7724         8.42932 
        2.41757         91.1497         8.37626 
         2.4237         90.7543         8.32376 
        2.42983         90.2932         8.27171 
        2.43598         89.6933         8.21996 
        2.44211         89.2437         8.16874 
        2.44823         88.8415         8.11808 
        2.45437         88.5096          8.0677 
        2.46052         87.8529          8.0177 
        2.46665         87.4138         7.96822 
        2.47279         86.8978         7.91917 
        2.47892         86.5098          7.8705 
        2.48507         86.1096         7.82219 
         2.4912         85.4798         7.77438 
