#  k  (h/Mpc)          P(k)  (Mpc/h)^3     P_linear(k) (Mpc/h)^3
     0.00783031         1441.61          1450.3 
       0.013688         1885.31         1907.04 
       0.019231         2024.31         2034.99 
      0.0249154         1978.46         1978.77 
      0.0312784         1799.59         1804.19 
      0.0375637         1595.73         1603.04 
      0.0433917          1437.1         1436.28 
      0.0492413         1300.19         1304.26 
      0.0555754         1200.94         1199.45 
      0.0619321         1108.43         1120.91 
       0.067871         1052.33         1056.96 
      0.0738098         987.954         991.055 
      0.0800417         913.731         914.432 
      0.0862327          829.23         832.207 
      0.0921407         751.087         753.788 
      0.0982031         681.128         680.178 
       0.104506         613.059         616.377 
       0.110769         565.571         567.748 
       0.116806         535.921         533.312 
       0.122832         506.137         507.451 
       0.129052          485.46         484.982 
       0.135211         465.349         462.743 
       0.141259           438.5         438.422 
       0.147318         408.512         411.163 
       0.153489         381.709         381.762 
       0.159709         355.516         352.797 
       0.165845         325.978         327.106 
       0.171974         310.325         305.702 
       0.178125         293.711         288.779 
       0.184229         278.051         275.803 
        0.19034         270.002         265.303 
       0.196428         260.294         255.832 
       0.202534         247.101         246.085 
       0.208729         239.162         235.237 
       0.214876         229.172         223.482 
       0.220989         213.684         211.315 
       0.227147         205.858         199.351 
        0.23329         195.884         188.427 
       0.239377         187.654          179.05 
       0.245482         178.726         171.198 
       0.251667         171.145         164.607 
       0.257832         167.771         158.959 
       0.263955         160.352         153.765 
       0.270079          155.11         148.569 
        0.27624         148.574         143.099 
       0.282372         143.495         137.392 
        0.28843         140.379         131.632 
       0.294538         134.024          125.94 
       0.300721          127.79         120.535 
        0.30691         124.662          115.65 
       0.313033          119.74         111.387 
       0.319153         117.468         107.636 
       0.325316         112.444         104.241 
        0.33145         109.098         101.082 
       0.337538         106.142         98.0187 
       0.343633         103.236           94.94 
       0.349808         99.8959         91.7776 
       0.355968         96.7529         88.6184 
       0.362074         94.6687         85.5458 
       0.368217         91.8016         82.5939 
       0.374374         89.8002         79.8301 
       0.380519          85.989         77.2918 
       0.386598         83.6347         74.9892 
       0.392688         81.3326         72.8499 
        0.39888         79.8159         70.7988 
       0.405048          77.977         68.8287 
       0.411186         76.0294         66.9022 
       0.417313          73.987         65.0017 
       0.423458         71.9097         63.1184 
       0.429607         70.6827         61.2737 
       0.435692         69.3792         59.5132 
       0.441815         66.8222         57.8224 
       0.447964          64.905         56.2162 
       0.454126         63.7789         54.7022 
       0.460267         63.1793         53.2764 
       0.466387         61.4238         51.9214 
        0.47254         60.5542         50.6104 
       0.478662         58.7117         49.3445 
       0.484765         57.5516         48.1097 
       0.490885         55.9718         46.8973 
       0.497035         55.1371         45.7099 
       0.503198         53.8533         44.5561 
       0.509342         52.4976         43.4457 
       0.515458          51.867         42.3842 
       0.521598         50.6649          41.365 
       0.527764         50.0243         40.3853 
       0.533884         48.9036         39.4504 
           0.54         47.9482         38.5482 
       0.546137         46.5656         37.6709 
       0.552299          45.835          36.815 
       0.558452         44.9488         35.9827 
       0.564573         44.5441         35.1752 
       0.570708         43.3627          34.388 
       0.576825         42.7971         33.6271 
       0.582926         42.0875         32.8933 
       0.589034         41.3062         32.1834 
       0.595184           40.78         31.4923 
       0.601379         39.7035         30.8189 
       0.607522         39.1532         30.1721 
       0.613639         38.5102         29.5475 
       0.619772         37.9147         28.9391 
       0.625918         37.1655         28.3458 
       0.632068         36.8732         27.7676 
       0.638161         36.1342         27.2094 
         0.6443         35.5958          26.662 
       0.650464         34.7351          26.128 
       0.656582         34.5478         25.6132 
       0.662703         34.1669         25.1133 
       0.668861         33.2804          24.625 
       0.675024           32.91         24.1498 
       0.681124         32.6959         23.6923 
       0.687237         32.0597         23.2457 
       0.693381         31.4031         22.8083 
       0.699536         31.2931         22.3813 
       0.705665         30.7236          21.967 
       0.711789         30.1829         21.5637 
       0.717957         29.6082         21.1679 
        0.72409          29.371         20.7845 
       0.730186         29.2214          20.413 
       0.736317         28.6458         20.0489 
       0.742472         28.2958         19.6924 
       0.748622         27.8647          19.345 
        0.75476         27.2017         19.0069 
       0.760888         27.1074         18.6775 
       0.767043         26.6704         18.3547 
       0.773185         26.4124         18.0403 
       0.779291         26.1846         17.7351 
       0.785407         25.7278         17.4367 
       0.791564         25.5577         17.1433 
       0.797719         25.0411          16.857 
       0.803834         24.9214         16.5791 
       0.809972         24.4709         16.3065 
       0.816124         24.2185         16.0396 
       0.822261         23.9641         15.7794 
       0.828378          23.698         15.5259 
       0.834502         23.4809         15.2778 
       0.840667         23.2424         15.0335 
       0.846816          22.755         14.7954 
       0.852925         22.6781          14.564 
       0.859047         22.4121          14.337 
       0.865192         22.1171         14.1143 
       0.871341         21.8303         13.8962 
       0.877463         21.6309         13.6837 
       0.883569         21.5062         13.4763 
       0.889708         21.1644         13.2721 
       0.895864         20.9132         13.0718 
       0.902008         20.6718          12.876 
       0.908149         20.4291         12.6844 
       0.914301         20.3355         12.4964 
       0.920448         20.0329         12.3125 
       0.926574         19.9092          12.133 
       0.932687         19.6432         11.9575 
       0.938823         19.4118         11.7848 
       0.944975         19.2524         11.6152 
       0.951105         19.0442         11.4496 
       0.957225         18.9429         11.2876 
       0.963368         18.6733         11.1281 
       0.969511         18.4891         10.9718 
       0.975621         18.3182         10.8194 
       0.981748          18.086         10.6695 
       0.987916          17.965         10.5215 
        0.99406         17.8079         10.3769 
        1.00019          17.659         10.2353 
        1.00632         17.5054         10.0966 
        1.01246         17.3422         9.96024 
        1.01859         17.1417         9.82664 
        1.02471         16.9521         9.69569 
        1.03085         16.9015         9.56669 
        1.03698         16.7397         9.44034 
        1.04314         16.5507         9.31576 
        1.04929          16.344         9.19375 
        1.05541         16.2859         9.07443 
        1.06154         16.1461         8.95696 
        1.06769         16.0448         8.84141 
        1.07382         15.7885          8.7283 
        1.07993         15.6601         8.61745 
        1.08607         15.5979         8.50808 
        1.09222         15.4072         8.40051 
        1.09836         15.3625         8.29495 
        1.10449         15.1305         8.19134 
        1.11063         15.0842         8.08941 
        1.11677         14.9864         7.98927 
         1.1229         14.8474         7.89101 
        1.12903         14.7498         7.79433 
        1.13518         14.5338         7.69921 
        1.14131         14.4671         7.60575 
        1.14745          14.279         7.51391 
        1.15359         14.1852         7.42358 
        1.15973         14.0648         7.33471 
        1.16584         13.9648         7.24771 
        1.17197         13.8498         7.16201 
        1.17811         13.7351         7.07745 
        1.18424         13.6492         6.99452 
        1.19038         13.5728         6.91268 
        1.19652          13.463          6.8322 
        1.20267         13.3605         6.75301 
        1.20881         13.2292         6.67511 
        1.21495         13.1238         6.59857 
        1.22108         13.0792         6.52325 
         1.2272         12.9584          6.4493 
        1.23334         12.9104         6.37633 
        1.23949         12.7774         6.30433 
        1.24562         12.6773         6.23365 
        1.25174         12.6086         6.16417 
        1.25789         12.4549         6.09554 
        1.26402         12.4272         6.02809 
        1.27014          12.357         5.96184 
        1.27628         12.2019         5.89639 
        1.28244         12.1931         5.83181 
        1.28858         12.0961         5.76828 
        1.29471         11.9345         5.70586 
        1.30084         11.8644         5.64442 
        1.30697         11.8522         5.58381 
        1.31312         11.7249           5.524 
        1.31925         11.6603         5.46527 
        1.32537         11.5908         5.40745 
        1.33151         11.5021         5.35027 
        1.33765          11.414         5.29396 
        1.34378         11.3994         5.23857 
        1.34992         11.2856         5.18395 
        1.35606         11.2012         5.12999 
         1.3622         11.1207          5.0769 
        1.36833         11.0635          5.0247 
        1.37445         10.9903         4.97326 
        1.38059          10.934          4.9224 
        1.38675          10.849         4.87212 
        1.39288         10.7614         4.82276 
        1.39901          10.699         4.77411 
        1.40515         10.6355         4.72602 
         1.4113         10.5538         4.67862 
        1.41742         10.5135         4.63206 
        1.42355         10.4196         4.58605 
         1.4297         10.3825         4.54053 
        1.43585         10.3226         4.49565 
        1.44198         10.2556         4.45156 
        1.44809         10.2042         4.40814 
        1.45423         10.1191         4.36515 
        1.46036         10.0728         4.32281 
        1.46649         10.0067         4.28102 
        1.47263          9.9602         4.23976 
        1.47877         9.89346         4.19906 
        1.48491         9.84803         4.15884 
        1.49104         9.76457         4.11924 
        1.49718         9.73883         4.08012 
        1.50333         9.67007         4.04145 
        1.50947         9.58743         4.00337 
         1.5156         9.57462         3.96584 
        1.52172         9.51797         3.92879 
        1.52787          9.4606         3.89215 
          1.534         9.40826         3.85601 
        1.54013         9.35992         3.82038 
        1.54627         9.30068         3.78514 
        1.55241         9.22655         3.75034 
        1.55855         9.21782         3.71602 
        1.56467         9.14406         3.68224 
         1.5708         9.10424         3.64878 
        1.57695         9.02978         3.61569 
        1.58308         8.97742         3.58309 
        1.58922         8.94619         3.55087 
        1.59535         8.89434         3.51906 
         1.6015         8.82915          3.4876 
        1.60764         8.80451         3.45654 
        1.61376         8.77002         3.42595 
        1.61989         8.68482         3.39571 
        1.62604         8.66098         3.36577 
        1.63218         8.61896         3.33621 
        1.63831          8.5811         3.30707 
        1.64444          8.5083         3.27828 
        1.65059         8.47433         3.24976 
        1.65673         8.44425         3.22162 
        1.66285         8.40248         3.19388 
        1.66898         8.34779         3.16647 
        1.67512         8.29825         3.13933 
        1.68127         8.25089         3.11249 
         1.6874         8.23011         3.08602 
        1.69353         8.16924         3.05987 
        1.69967          8.1406         3.03397 
        1.70581         8.08057         3.00839 
        1.71193         8.06569         2.98319 
        1.71806         8.02701         2.95823 
        1.72421         7.96994         2.93352 
        1.73035         7.93416         2.90911 
        1.73649         7.89899         2.88499 
        1.74262         7.84832         2.86116 
        1.74876         7.83649         2.83759 
        1.75489          7.7901         2.81433 
        1.76101         7.73518         2.79135 
        1.76715          7.7235         2.76859 
        1.77329         7.68654         2.74605 
        1.77943         7.62596         2.72376 
        1.78557           7.615         2.70176 
        1.79171          7.5827         2.67999 
        1.79785         7.53677         2.65845 
        1.80399         7.47294         2.63717 
        1.81012         7.46091         2.61614 
        1.81625         7.42123         2.59535 
        1.82239         7.38918         2.57476 
        1.82853          7.3481         2.55441 
        1.83466         7.30207         2.53429 
        1.84078         7.28016         2.51442 
        1.84692         7.25178         2.49473 
        1.85306         7.21918         2.47522 
         1.8592         7.19795         2.45596 
        1.86533         7.16371         2.43691 
        1.87147         7.11978         2.41804 
        1.87761         7.10866         2.39937 
        1.88375         7.06171         2.38092 
        1.88988         7.02675         2.36268 
        1.89601         7.00191         2.34463 
        1.90215         6.94993         2.32675 
        1.90829         6.94669         2.30906 
        1.91442         6.89643         2.29156 
        1.92056         6.88887         2.27426 
         1.9267          6.8404         2.25712 
        1.93284         6.83661         2.24015 
        1.93897           6.784         2.22338 
        1.94509         6.74877         2.20682 
        1.95123         6.73005          2.1904 
        1.95737         6.70556         2.17412 
        1.96349         6.65412         2.15806 
        1.96964          6.6355         2.14211 
        1.97578          6.6132         2.12632 
        1.98192         6.57682         2.11072 
        1.98805         6.55836         2.09528 
        1.99419         6.53829         2.07999 
        2.00033          6.4866         2.06484 
        2.00647         6.48227         2.04985 
         2.0126         6.44879         2.03504 
        2.01874         6.43027         2.02035 
        2.02488         6.39614          2.0058 
        2.03101         6.35498         1.99141 
        2.03714         6.33876         1.97719 
        2.04328         6.31638         1.96308 
        2.04941         6.28568         1.94912 
        2.05554         6.27054         1.93532 
        2.06167         6.23573         1.92162 
        2.06781         6.21397         1.90806 
        2.07396          6.1828         1.89461 
        2.08009         6.16778         1.88131 
        2.08622         6.14277         1.86816 
        2.09237          6.1329         1.85511 
        2.09851         6.08298         1.84218 
        2.10464         6.06807          1.8294 
        2.11077         6.05397         1.81675 
        2.11691         6.03417         1.80419 
        2.12305         5.99849         1.79176 
        2.12918         5.98174         1.77947 
        2.13531         5.94896          1.7673 
        2.14145         5.93667         1.75521 
         2.1476         5.90345         1.74322 
        2.15372         5.88635         1.73141 
        2.15985         5.86819         1.71969 
        2.16599         5.84487         1.70805 
        2.17213         5.82805         1.69653 
        2.17827         5.78884         1.68512 
         2.1844         5.76659         1.67383 
        2.19054         5.75185         1.66263 
        2.19666          5.7333         1.65156 
         2.2028         5.69432         1.64058 
        2.20893         5.69291         1.62969 
        2.21508         5.67748         1.61888 
        2.22122         5.62917         1.60818 
        2.22736         5.62565         1.59759 
        2.23349         5.59963          1.5871 
        2.23962         5.58734          1.5767 
        2.24577         5.54862         1.56638 
         2.2519         5.54114         1.55618 
        2.25802         5.51125         1.54608 
        2.26417         5.49447         1.53604 
        2.27031         5.47224         1.52608 
        2.27644         5.45403         1.51624 
        2.28257         5.43686         1.50648 
        2.28872         5.42013          1.4968 
        2.29486         5.39397          1.4872 
        2.30099         5.37163         1.47771 
        2.30712         5.35839          1.4683 
        2.31326         5.33707         1.45895 
         2.3194         5.31775         1.44969 
        2.32553         5.29666         1.44052 
        2.33166         5.28434         1.43144 
         2.3378         5.26426         1.42243 
        2.34394         5.24285         1.41349 
        2.35007         5.21602         1.40464 
        2.35619          5.2101         1.39588 
        2.36233         5.18427         1.38717 
        2.36848         5.17554         1.37852 
        2.37462          5.1542         1.36996 
        2.38075         5.14234         1.36148 
        2.38689         5.12185         1.35307 
        2.39303         5.10003         1.34473 
        2.39916         5.08236         1.33647 
        2.40529         5.06237         1.32828 
        2.41143         5.05352         1.32015 
        2.41757         5.04032         1.31209 
         2.4237         5.01437         1.30411 
        2.42983         5.00743          1.2962 
        2.43598         4.99083         1.28833 
        2.44211          4.9631         1.28054 
        2.44823         4.94266         1.27284 
        2.45437         4.92808         1.26517 
        2.46052         4.91608         1.25756 
        2.46665         4.90381         1.25003 
        2.47279         4.86673         1.24257 
        2.47892         4.86346         1.23516 
        2.48507         4.85213          1.2278 
         2.4912          4.8357         1.22052 
