# k  (h/Mpc)    Pcb(k)  (Mpc/h)^3    Pcb_linear(k)  (Mpc/h)^3
     0.00783031         4394.35         4443.12 
       0.013688         5887.07         5869.57 
       0.019231         6258.05         6256.21 
      0.0249154         5987.14         6061.74 
      0.0312784         5472.95         5506.08 
      0.0375637         4886.97          4888.5 
      0.0433917         4345.59         4393.58 
      0.0492413         3993.42         4013.58 
      0.0555754          3648.6         3716.41 
      0.0619321         3487.26         3486.46 
       0.067871         3228.49          3284.2 
      0.0738098         3006.44         3063.12 
      0.0800417         2730.51          2803.3 
      0.0862327         2485.07         2532.06 
      0.0921407         2261.19          2285.2 
      0.0982031         2035.73            2066 
       0.104506         1894.17         1887.04 
       0.110769         1761.37         1757.44 
       0.116806         1655.71         1666.72 
       0.122832         1591.96         1593.78 
       0.129052         1498.19         1520.99 
       0.135211         1420.41         1440.67 
       0.141259         1348.23         1351.04 
       0.147318          1263.5         1254.75 
       0.153489         1160.59         1158.16 
       0.159709         1087.24         1070.74 
       0.165845         1035.55          999.51 
       0.171974         971.835         944.223 
       0.178125         929.387          901.88 
       0.184229         898.013         867.847 
        0.19034         846.176         836.277 
       0.196428         829.096         803.079 
       0.202534         801.615         766.071 
       0.208729         759.083         725.232 
       0.214876         714.893          683.76 
       0.220989         691.121         644.492 
       0.227147          649.54         609.342 
        0.23329         623.464          579.84 
       0.239377         608.341         555.869 
       0.245482         572.397         535.821 
       0.251667         565.902         517.755 
       0.257832         547.669         500.205 
       0.263955         528.979         482.075 
       0.270079         511.076         462.874 
        0.27624         501.867         442.873 
       0.282372         480.559         423.157 
        0.28843         464.439         404.756 
       0.294538         444.682         387.983 
       0.300721         440.019         373.068 
        0.30691         420.549         360.051 
       0.313033          411.11         348.552 
       0.319153         396.018          337.83 
       0.325316          386.72          327.25 
        0.33145         374.927         316.623 
       0.337538         369.737         305.897 
       0.343633         357.723         295.153 
       0.349808         346.959         284.523 
       0.355968         341.216         274.481 
       0.362074         332.464         265.262 
       0.368217         324.033         256.789 
       0.374374         313.921         249.024 
       0.380519         308.347         241.817 
       0.386598         301.035         235.038 
       0.392688         297.402         228.416 
        0.39888         289.662         221.758 
       0.405048          283.76         215.192 
       0.411186         277.697         208.758 
       0.417313         272.058         202.532 
       0.423458         266.764         196.568 
       0.429607         260.513         190.925 
       0.435692         253.113         185.683 
       0.441815         251.567         180.721 
       0.447964         247.462         175.986 
       0.454126         237.312          171.43 
       0.460267         234.825         167.028 
       0.466387         231.631         162.737 
        0.47254         227.309         158.509 
       0.478662         225.036         154.409 
       0.484765         219.363          150.45 
       0.490885         215.995         146.624 
       0.497035          213.21         142.939 
       0.503198         207.706         139.417 
       0.509342         204.796         136.061 
       0.515458         202.115         132.851 
       0.521598         199.757         129.736 
       0.527764         196.565         126.703 
       0.533884         193.344         123.777 
           0.54         190.625         120.928 
       0.546137         189.269         118.143 
       0.552299         186.263         115.428 
       0.558452         182.632         112.808 
       0.564573         179.403         110.293 
       0.570708          177.29         107.861 
       0.576825         174.798         105.518 
       0.582926         172.248         103.257 
       0.589034         169.206         101.063 
       0.595184           167.7         98.9198 
       0.601379         166.205         96.8221 
       0.607522         162.242         94.7977 
       0.613639         162.126         92.8349 
       0.619772         158.376         90.9202 
       0.625918         157.055         89.0564 
       0.632068         155.313         87.2471 
       0.638161         153.787          85.509 
         0.6443          151.68         83.8101 
       0.650464         149.917         82.1539 
       0.656582         148.409         80.5554 
       0.662703         145.787         78.9988 
       0.668861         144.484         77.4734 
       0.675024         142.806         75.9865 
       0.681124         141.466         74.5535 
       0.687237         139.048         73.1551 
       0.693381         137.568         71.7868 
       0.699536         136.139         70.4523 
       0.705665         136.764         69.1585 
       0.711789         133.148         67.8993 
       0.717957         132.619         66.6634 
        0.72409         130.736         65.4657 
       0.730186         128.623         64.3051 
       0.736317         128.448         63.1665 
       0.742472         127.043         62.0516 
       0.748622         126.161          60.965 
        0.75476         124.801         59.9072 
       0.760888         123.217         58.8764 
       0.767043         122.046         57.8663 
       0.773185         120.805         56.8824 
       0.779291         119.828         55.9274 
       0.785407         118.949         54.9934 
       0.791564         117.423         54.0752 
       0.797719         116.005         53.1787 
       0.803834         115.584         52.3086 
       0.809972           113.7          51.455 
       0.816124         113.132          50.619 
       0.822261         112.278         49.8039 
       0.828378         111.198         49.0096 
       0.834502         110.276         48.2321 
       0.840667         109.328         47.4667 
       0.846816          108.24         46.7204 
       0.852925         107.123          45.995 
       0.859047         105.892         45.2838 
       0.865192         105.697         44.5855 
       0.871341         104.782         43.9018 
       0.877463         103.286         43.2357 
       0.883569         102.712         42.5853 
       0.889708         102.186         41.9452 
       0.895864         101.231         41.3168 
       0.902008         100.495         40.7028 
       0.908149         99.7917         40.1019 
       0.914301         98.7536         39.5122 
       0.920448           98.03         38.9352 
       0.926574          97.427         38.3718 
       0.932687         96.7662          37.821 
       0.938823         95.4308         37.2791 
       0.944975         95.2185         36.7467 
       0.951105         94.2806         36.2268 
       0.957225         93.1504          35.718 
       0.963368         92.8712         35.2174 
       0.969511         92.3258         34.7265 
       0.975621         91.7438         34.2477 
       0.981748         90.8053         33.7768 
       0.987916         90.3031         33.3118 
        0.99406         89.8592         32.8576 
        1.00019         88.6046         32.4127 
        1.00632         88.4018         31.9767 
        1.01246         87.4988         31.5481 
        1.01859          86.575         31.1282 
        1.02471         86.9559         30.7165 
        1.03085         85.9184         30.3109 
        1.03698         85.1241         29.9137 
        1.04314         84.2964         29.5219 
        1.04929         84.0809         29.1382 
        1.05541         83.3213         28.7629 
        1.06154         83.0325         28.3934 
        1.06769         82.3214         28.0299 
        1.07382         81.9342          27.674 
        1.07993         81.6293         27.3252 
        1.08607         80.8082         26.9811 
        1.09222         80.4734         26.6426 
        1.09836         79.8468         26.3104 
        1.10449         79.3418         25.9843 
        1.11063         78.5503         25.6635 
        1.11677         78.1747         25.3482 
         1.1229         77.8711         25.0389 
        1.12903         76.8326         24.7345 
        1.13518         76.9135          24.435 
        1.14131         76.5575         24.1407 
        1.14745         75.5614         23.8515 
        1.15359         75.3518          23.567 
        1.15973          74.715         23.2871 
        1.16584         74.2355         23.0131 
        1.17197         73.9241         22.7431 
        1.17811         73.4663         22.4767 
        1.18424         72.7563         22.2153 
        1.19038         72.6636         21.9574 
        1.19652         72.2455         21.7038 
        1.20267         71.6979         21.4542 
        1.20881          71.223         21.2086 
        1.21495         70.7367         20.9673 
        1.22108         70.2963         20.7298 
         1.2272         69.7319         20.4966 
        1.23334         69.4681         20.2665 
        1.23949         69.2345         20.0394 
        1.24562         68.8667         19.8165 
        1.25174         68.4333         19.5973 
        1.25789           68.06         19.3808 
        1.26402         67.5484          19.168 
        1.27014         67.0183          18.959 
        1.27628         66.8195         18.7525 
        1.28244         66.2521         18.5487 
        1.28858         66.0003         18.3482 
        1.29471         65.7862         18.1512 
        1.30084         65.3376         17.9572 
        1.30697         64.7864         17.7659 
        1.31312         64.3878         17.5771 
        1.31925         64.2756         17.3916 
        1.32537         63.8672         17.2091 
        1.33151         63.4492         17.0285 
        1.33765         63.3052         16.8507 
        1.34378         62.9431         16.6758 
        1.34992         62.1444         16.5033 
        1.35606         61.9539         16.3328 
         1.3622         61.5562         16.1652 
        1.36833         61.4155         16.0002 
        1.37445         61.2034         15.8377 
        1.38059         60.8662          15.677 
        1.38675         60.4547         15.5182 
        1.39288         60.1177         15.3622 
        1.39901         59.7262         15.2084 
        1.40515          59.454         15.0565 
         1.4113         59.2944         14.9067 
        1.41742         58.6973         14.7595 
        1.42355         58.6316          14.614 
         1.4297         58.1627         14.4701 
        1.43585         58.0624         14.3282 
        1.44198         57.6787         14.1888 
        1.44809         57.3204         14.0515 
        1.45423         57.1726         13.9155 
        1.46036         56.7958         13.7816 
        1.46649         56.4986         13.6494 
        1.47263         56.2419         13.5189 
        1.47877          56.019         13.3902 
        1.48491         55.6879         13.2629 
        1.49104         55.3914         13.1376 
        1.49718         54.9749         13.0138 
        1.50333         54.8041         12.8914 
        1.50947         54.4564         12.7709 
         1.5156         54.1925         12.6521 
        1.52172         53.9334         12.5348 
        1.52787         53.8611         12.4188 
          1.534         53.4501         12.3044 
        1.54013          53.127         12.1916 
        1.54627         53.0564           12.08 
        1.55241         52.7212         11.9698 
        1.55855         52.3745         11.8612 
        1.56467         52.0285         11.7542 
         1.5708         51.9239         11.6482 
        1.57695         51.5697         11.5434 
        1.58308         51.5431         11.4402 
        1.58922         51.2397         11.3381 
        1.59535         50.8962         11.2374 
         1.6015         50.6604         11.1377 
        1.60764         50.5273         11.0393 
        1.61376         50.2909         10.9424 
        1.61989           49.78         10.8466 
        1.62604         49.7116         10.7517 
        1.63218         49.3944          10.658 
        1.63831         49.2037         10.5657 
        1.64444         49.0567         10.4744 
        1.65059         48.5978          10.384 
        1.65673         48.4702         10.2948 
        1.66285         48.3021         10.2069 
        1.66898         47.9554           10.12 
        1.67512         47.7649         10.0339 
        1.68127         47.4546         9.94879 
         1.6874         47.3948         9.86486 
        1.69353         47.0941         9.78195 
        1.69967         46.9362         9.69981 
        1.70581         46.7087         9.61865 
        1.71193         46.3754         9.53874 
        1.71806         46.2057         9.45957 
        1.72421         45.9189         9.38115 
        1.73035         45.7927         9.30372 
        1.73649         45.5667         9.22718 
        1.74262         45.2975         9.15157 
        1.74876         45.2705         9.07677 
        1.75489         44.8816         9.00296 
        1.76101         44.6979         8.93001 
        1.76715         44.4841         8.85776 
        1.77329         44.3005         8.78624 
        1.77943          44.144         8.71548 
        1.78557         43.9186         8.64562 
        1.79171         43.6658         8.57651 
        1.79785         43.4973         8.50815 
        1.80399         43.2992         8.44056 
        1.81012         43.1475          8.3738 
        1.81625         42.8752         8.30779 
        1.82239         42.7341         8.24241 
        1.82853         42.3834         8.17776 
        1.83466         42.2438         8.11388 
        1.84078         41.9701         8.05076 
        1.84692         41.9155         7.98821 
        1.85306         41.6316         7.92625 
         1.8592          41.501         7.86505 
        1.86533         41.2111         7.80454 
        1.87147          41.118          7.7446 
        1.87761         41.0459         7.68527 
        1.88375         40.7444         7.62663 
        1.88988         40.6833         7.56868 
        1.89601         40.3915          7.5113 
        1.90215         40.2834         7.45447 
        1.90829         40.1132         7.39827 
        1.91442         39.8438         7.34264 
        1.92056         39.7448         7.28765 
         1.9267         39.4827         7.23316 
        1.93284         39.2742         7.17921 
        1.93897         39.1715         7.12591 
        1.94509         38.9968         7.07327 
        1.95123         38.7848         7.02103 
        1.95737         38.6122         6.96929 
        1.96349         38.4264         6.91821 
        1.96964          38.188         6.86749 
        1.97578         38.1304         6.81727 
        1.98192         37.9176         6.76765 
        1.98805          37.771         6.71853 
        1.99419          37.529         6.66989 
        2.00033         37.3412         6.62171 
        2.00647         37.2217         6.57403 
         2.0126         37.0278          6.5269 
        2.01874         36.9276         6.48017 
        2.02488         36.8482         6.43385 
        2.03101         36.6122         6.38808 
        2.03714         36.3697          6.3428 
        2.04328         36.2255         6.29791 
        2.04941         36.0799         6.25349 
        2.05554         35.9475         6.20954 
        2.06167         35.7554         6.16596 
        2.06781         35.6096         6.12279 
        2.07396         35.4084         6.07997 
        2.08009         35.3758         6.03764 
        2.08622         35.1545         5.99577 
        2.09237         35.0615         5.95422 
        2.09851         34.8457         5.91305 
        2.10464         34.7256         5.87235 
        2.11077         34.4873         5.83208 
        2.11691         34.4836          5.7921 
        2.12305         34.2404         5.75249 
        2.12918         34.1658         5.71336 
        2.13531         34.0135         5.67459 
        2.14145          33.873         5.63609 
         2.1476         33.6295         5.59791 
        2.15372         33.5391         5.56027 
        2.15985         33.3779         5.52294 
        2.16599         33.2873         5.48586 
        2.17213         33.1456         5.44915 
        2.17827          32.883          5.4128 
         2.1844           32.79         5.37681 
        2.19054         32.6979         5.34114 
        2.19666          32.535         5.30584 
         2.2028         32.4298         5.27083 
        2.20893          32.262         5.23613 
        2.21508         32.1453          5.2017 
        2.22122          31.945         5.16757 
        2.22736         31.8599         5.13383 
        2.23349         31.7221         5.10039 
        2.23962         31.5719         5.06724 
        2.24577          31.399         5.03435 
         2.2519         31.2634          5.0018 
        2.25802         31.1884          4.9696 
        2.26417         31.0408         4.93759 
        2.27031         30.9254         4.90584 
        2.27644          30.822         4.87446 
        2.28257          30.703         4.84336 
        2.28872         30.4812         4.81247 
        2.29486         30.3715         4.78186 
        2.30099         30.2847         4.75158 
        2.30712         30.1998         4.72155 
        2.31326         30.0668         4.69173 
         2.3194         29.8845         4.66219 
        2.32553          29.787         4.63296 
        2.33166          29.624         4.60398 
         2.3378         29.4962         4.57522 
        2.34394         29.3856          4.5467 
        2.35007         29.2305         4.51846 
        2.35619         29.1123          4.4905 
        2.36233         29.0137         4.46272 
        2.36848         28.8452         4.43511 
        2.37462          28.756         4.40779 
        2.38075         28.6393         4.38073 
        2.38689          28.544         4.35388 
        2.39303         28.3785         4.32726 
        2.39916         28.2979         4.30089 
        2.40529         28.1371         4.27475 
        2.41143          28.061         4.24881 
        2.41757         27.9303         4.22307 
         2.4237         27.7997         4.19759 
        2.42983         27.7219         4.17233 
        2.43598         27.6032         4.14721 
        2.44211         27.4458         4.12234 
        2.44823         27.3334         4.09773 
        2.45437         27.2152         4.07325 
        2.46052          27.108         4.04896 
        2.46665         27.0693         4.02491 
        2.47279         26.9021         4.00106 
        2.47892          26.774         3.97739 
        2.48507         26.6644         3.95389 
         2.4912         26.5823         3.93063 
