# k  (h/Mpc)    P(k)  (Mpc/h)^3    P_linear(k)  (Mpc/h)^3
     0.00783031         9960.76         10118.5 
       0.013688         13417.2         13351.3 
       0.019231         14204.8         14222.8 
      0.0249154         13490.6         13776.1 
      0.0312784         12344.9         12510.4 
      0.0375637         11045.2         11105.5 
      0.0433917         9754.57         9980.24 
      0.0492413         8989.07          9116.4 
      0.0555754         8138.78         8440.92 
      0.0619321         7845.85          7918.3 
       0.067871         7191.81         7458.71 
      0.0738098         6696.27         6956.42 
      0.0800417         6051.47         6366.22 
      0.0862327         5529.88         5750.15 
      0.0921407         5065.81         5189.47 
      0.0982031         4562.11         4691.62 
       0.104506         4284.92         4285.18 
       0.110769         3983.44         3990.85 
       0.116806         3750.47         3784.81 
       0.122832         3595.77         3619.14 
       0.129052         3360.48         3453.83 
       0.135211         3193.73         3271.42 
       0.141259         3051.43         3067.88 
       0.147318         2873.45         2849.22 
       0.153489         2638.93         2629.88 
       0.159709         2496.18         2431.37 
       0.165845         2403.69         2269.61 
       0.171974         2267.78         2144.07 
       0.178125         2164.25         2047.91 
       0.184229         2086.28         1970.63 
        0.19034         1968.58         1898.94 
       0.196428         1936.91         1823.55 
       0.202534         1869.14         1739.51 
       0.208729         1783.77         1646.78 
       0.214876         1701.54          1552.6 
       0.220989         1649.32         1463.44 
       0.227147         1570.56         1383.62 
        0.23329          1512.2         1316.63 
       0.239377          1490.5          1262.2 
       0.245482         1399.31         1216.68 
       0.251667         1392.48         1175.65 
       0.257832         1341.93          1135.8 
       0.263955         1299.63         1094.63 
       0.270079         1257.85         1051.03 
        0.27624         1245.22         1005.62 
       0.282372         1191.79         960.848 
        0.28843         1179.86         919.062 
       0.294538         1123.37         880.977 
       0.300721         1120.18         847.109 
        0.30691         1073.43         817.551 
       0.313033         1054.24         791.443 
       0.319153         1034.03         767.095 
       0.325316         1001.16          743.07 
        0.33145         977.906         718.944 
       0.337538         965.569         694.587 
       0.343633         940.332         670.189 
       0.349808          910.43         646.054 
       0.355968         905.669         623.252 
       0.362074         893.675         602.315 
       0.368217         868.557          583.08 
       0.374374         834.849         565.445 
       0.380519         833.499         549.082 
       0.386598         814.203         533.688 
       0.392688         811.496         518.651 
        0.39888         788.151         503.533 
       0.405048         776.682         488.626 
       0.411186          765.08         474.016 
       0.417313          750.42         459.876 
       0.423458         738.886         446.336 
       0.429607         726.518         433.522 
       0.435692         711.367          421.62 
       0.441815         707.701         410.352 
       0.447964         692.613         399.602 
       0.454126          680.47         389.256 
       0.460267         668.885         379.261 
       0.466387         661.752         369.518 
        0.47254         651.234         359.916 
       0.478662         649.086         350.608 
       0.484765         631.286         341.617 
       0.490885          626.16         332.931 
       0.497035         614.272         324.563 
       0.503198         607.901         316.567 
       0.509342           602.2         308.946 
       0.515458         598.173         301.656 
       0.521598         585.484         294.584 
       0.527764         573.181         287.697 
       0.533884         572.595         281.053 
           0.54         565.225         274.584 
       0.546137         562.852          268.26 
       0.552299          552.97         262.096 
       0.558452         550.329         256.145 
       0.564573         541.537         250.435 
       0.570708         535.031         244.913 
       0.576825         522.519         239.593 
       0.582926         522.841         234.459 
       0.589034         518.009         229.478 
       0.595184         512.984         224.611 
       0.601379         507.131         219.848 
       0.607522         499.885         215.251 
       0.613639         499.416         210.794 
       0.619772         486.148         206.447 
       0.625918         485.418         202.215 
       0.632068         478.774         198.106 
       0.638161         477.081          194.16 
         0.6443         467.836         190.302 
       0.650464         465.697         186.541 
       0.656582         464.448         182.912 
       0.662703         460.885         179.377 
       0.668861         452.617         175.914 
       0.675024          449.19         172.537 
       0.681124         446.759         169.284 
       0.687237         442.283         166.108 
       0.693381         436.832         163.002 
       0.699536         431.676         159.971 
       0.705665         429.757         157.034 
       0.711789         426.096         154.174 
       0.717957         422.404         151.368 
        0.72409         419.066         148.649 
       0.730186         414.635         146.013 
       0.736317         411.234         143.428 
       0.742472         409.823         140.896 
       0.748622          405.04         138.429 
        0.75476         400.837         136.027 
       0.760888         396.332         133.687 
       0.767043         396.904         131.393 
       0.773185         391.434         129.159 
       0.779291         386.394         126.991 
       0.785407         384.667          124.87 
       0.791564         380.485         122.785 
       0.797719         378.179         120.749 
       0.803834         375.259         118.773 
       0.809972          373.12         116.835 
       0.816124         373.064         114.937 
       0.822261         366.791         113.086 
       0.828378         365.074         111.283 
       0.834502          362.84         109.517 
       0.840667         358.114         107.779 
       0.846816         356.845         106.085 
       0.852925         353.659         104.438 
       0.859047          352.72         102.823 
       0.865192           349.2         101.237 
       0.871341         346.245         99.6848 
       0.877463         344.061         98.1723 
       0.883569         341.891         96.6956 
       0.889708          339.03         95.2421 
       0.895864         335.228         93.8153 
       0.902008         334.414         92.4211 
       0.908149         332.366         91.0565 
       0.914301         328.408         89.7177 
       0.920448         325.926         88.4074 
       0.926574         323.114         87.1282 
       0.932687         323.529         85.8774 
       0.938823         319.318         84.6471 
       0.944975         318.568         83.4383 
       0.951105         315.722         82.2578 
       0.957225         313.232         81.1025 
       0.963368         309.542         79.9657 
       0.969511         308.073          78.851 
       0.975621          305.58         77.7638 
       0.981748         305.819         76.6945 
       0.987916         302.644         75.6389 
        0.99406         298.612         74.6074 
        1.00019         298.761         73.5974 
        1.00632         296.505         72.6072 
        1.01246         293.901         71.6341 
        1.01859         294.003         70.6805 
        1.02471         290.194         69.7458 
        1.03085         287.428         68.8249 
        1.03698         286.753         67.9229 
        1.04314         284.164         67.0333 
        1.04929         282.017          66.162 
        1.05541         281.555         65.3098 
        1.06154         278.141         64.4708 
        1.06769         277.239         63.6454 
        1.07382         275.558         62.8374 
        1.07993         273.405         62.0454 
        1.08607         272.567          61.264 
        1.09222         270.432         60.4954 
        1.09836         268.056         59.7411 
        1.10449         265.494         59.0007 
        1.11063         263.526         58.2722 
        1.11677          263.15         57.5564 
         1.1229         261.272         56.8541 
        1.12903         259.299          56.163 
        1.13518         257.672         55.4829 
        1.14131          255.96         54.8147 
        1.14745         255.374         54.1579 
        1.15359         252.896         53.5119 
        1.15973         252.058         52.8764 
        1.16584         249.331         52.2541 
        1.17197         248.953         51.6411 
        1.17811         246.724         51.0361 
        1.18424         245.193         50.4428 
        1.19038         244.197         49.8572 
        1.19652          242.43         49.2812 
        1.20267         241.568         48.7145 
        1.20881         239.479         48.1569 
        1.21495         237.761         47.6089 
        1.22108         236.827         47.0697 
         1.2272         234.963         46.5402 
        1.23334         233.522         46.0177 
        1.23949         232.276         45.5021 
        1.24562          231.05         44.9959 
        1.25174          228.36         44.4982 
        1.25789         227.131         44.0066 
        1.26402         226.262         43.5235 
        1.27014         224.648         43.0488 
        1.27628          223.43         42.5799 
        1.28244         222.888         42.1171 
        1.28858         220.721         41.6619 
        1.29471         218.709         41.2145 
        1.30084         217.809         40.7742 
        1.30697         216.339         40.3397 
        1.31312          214.96          39.911 
        1.31925         214.513         39.4899 
        1.32537         213.046         39.0754 
        1.33151          211.18         38.6654 
        1.33765         209.996         38.2617 
        1.34378          208.98         37.8645 
        1.34992         207.786         37.4728 
        1.35606         207.196         37.0858 
         1.3622          205.66          36.705 
        1.36833         203.683         36.3306 
        1.37445         202.347         35.9616 
        1.38059         201.186         35.5967 
        1.38675         200.205          35.236 
        1.39288          198.85         34.8818 
        1.39901         198.687         34.5327 
        1.40515         196.849         34.1876 
         1.4113         195.183         33.8475 
        1.41742         194.558         33.5133 
        1.42355         192.721          33.183 
         1.4297         191.855         32.8562 
        1.43585         190.296          32.534 
        1.44198          189.58         32.2174 
        1.44809         188.751         31.9057 
        1.45423         187.026          31.597 
        1.46036         186.445         31.2929 
        1.46649           185.1         30.9928 
        1.47263         183.924         30.6964 
        1.47877         183.029         30.4041 
        1.48491         181.458         30.1151 
        1.49104         181.033         29.8306 
        1.49718          178.96         29.5495 
        1.50333         178.383         29.2717 
        1.50947         177.567          28.998 
         1.5156         176.166         28.7282 
        1.52172         175.183         28.4619 
        1.52787         173.958         28.1985 
          1.534          173.45         27.9388 
        1.54013         171.818         27.6826 
        1.54627         171.292         27.4293 
        1.55241         169.922         27.1791 
        1.55855         169.016         26.9323 
        1.56467          168.03         26.6894 
         1.5708         167.189         26.4488 
        1.57695         165.864         26.2109 
        1.58308          165.41         25.9764 
        1.58922         164.243         25.7447 
        1.59535         162.945         25.5159 
         1.6015         162.547         25.2896 
        1.60764         161.266         25.0662 
        1.61376         160.197         24.8461 
        1.61989         159.261         24.6285 
        1.62604         158.539          24.413 
        1.63218         157.594         24.2003 
        1.63831         156.557         23.9907 
        1.64444          155.92         23.7834 
        1.65059         154.946         23.5782 
        1.65673         153.813         23.3756 
        1.66285         153.305          23.176 
        1.66898         152.331         22.9787 
        1.67512         151.583         22.7833 
        1.68127         150.271           22.59 
         1.6874         148.937         22.3994 
        1.69353          148.73         22.2112 
        1.69967         147.746         22.0246 
        1.70581         146.913         21.8404 
        1.71193         145.857         21.6589 
        1.71806         145.319         21.4792 
        1.72421         144.409         21.3011 
        1.73035          143.62         21.1253 
        1.73649         143.004         20.9515 
        1.74262         141.884         20.7798 
        1.74876         141.438           20.61 
        1.75489         140.015         20.4424 
        1.76101         139.524         20.2767 
        1.76715         138.665         20.1127 
        1.77329         138.238         19.9503 
        1.77943         137.022         19.7896 
        1.78557         136.289          19.631 
        1.79171         135.552          19.474 
        1.79785         134.697         19.3188 
        1.80399         134.008         19.1654 
        1.81012         133.251         19.0138 
        1.81625         132.429         18.8639 
        1.82239         131.957         18.7154 
        1.82853         131.301         18.5686 
        1.83466         130.374         18.4236 
        1.84078         129.759         18.2803 
        1.84692         128.713         18.1382 
        1.85306         128.181         17.9975 
         1.8592         127.162         17.8586 
        1.86533         126.456         17.7212 
        1.87147         125.668         17.5851 
        1.87761         125.336         17.4504 
        1.88375         124.073         17.3172 
        1.88988          123.51         17.1856 
        1.89601         122.668         17.0553 
        1.90215          122.21         16.9263 
        1.90829          121.57         16.7987 
        1.91442         121.068         16.6724 
        1.92056         120.266         16.5475 
         1.9267          119.63         16.4238 
        1.93284         119.013         16.3013 
        1.93897         118.227         16.1803 
        1.94509         117.794         16.0607 
        1.95123         117.061         15.9421 
        1.95737         116.364         15.8246 
        1.96349          115.71         15.7087 
        1.96964         114.748         15.5935 
        1.97578         114.305         15.4795 
        1.98192         113.645         15.3668 
        1.98805         112.703         15.2553 
        1.99419         112.397         15.1448 
        2.00033         111.817         15.0354 
        2.00647         111.142         14.9272 
         2.0126         110.525         14.8202 
        2.01874         109.804          14.714 
        2.02488         109.416         14.6089 
        2.03101         108.528         14.5049 
        2.03714         107.928         14.4021 
        2.04328         107.505         14.3002 
        2.04941         106.767         14.1993 
        2.05554         106.058         14.0995 
        2.06167         105.649         14.0006 
        2.06781         105.254         13.9026 
        2.07396         104.339         13.8053 
        2.08009         103.725         13.7092 
        2.08622         103.458         13.6141 
        2.09237         102.542         13.5198 
        2.09851         102.274         13.4263 
        2.10464         101.477         13.3339 
        2.11077         101.113         13.2425 
        2.11691         100.602         13.1517 
        2.12305         99.8609         13.0618 
        2.12918         99.2395         12.9729 
        2.13531         98.9124         12.8849 
        2.14145         98.0121         12.7974 
         2.1476          97.688         12.7107 
        2.15372         97.1942         12.6253 
        2.15985         96.6989         12.5405 
        2.16599         96.2341         12.4563 
        2.17213         95.4471          12.373 
        2.17827          95.235         12.2904 
         2.1844          94.496         12.2087 
        2.19054         94.2266         12.1277 
        2.19666          93.624         12.0476 
         2.2028         93.1861         11.9681 
        2.20893         92.4483         11.8893 
        2.21508         91.8475         11.8111 
        2.22122          91.541         11.7336 
        2.22736         90.9291          11.657 
        2.23349         90.7317         11.5811 
        2.23962         90.0431         11.5058 
        2.24577         89.5396         11.4311 
         2.2519         89.2649         11.3572 
        2.25802         88.4419         11.2841 
        2.26417         88.0893         11.2114 
        2.27031         87.6389         11.1393 
        2.27644         87.1719         11.0681 
        2.28257         86.5446         10.9974 
        2.28872         86.1474         10.9273 
        2.29486         85.7861         10.8578 
        2.30099         85.2544         10.7891 
        2.30712         84.7338         10.7209 
        2.31326         84.4497         10.6532 
         2.3194         83.8877         10.5861 
        2.32553         83.4701         10.5197 
        2.33166         82.9043         10.4539 
         2.3378         82.4997         10.3886 
        2.34394         82.1849         10.3239 
        2.35007         81.5547         10.2597 
        2.35619          81.075         10.1962 
        2.36233         80.7041         10.1331 
        2.36848         80.3094         10.0705 
        2.37462         79.8899         10.0084 
        2.38075         79.6008           9.947 
        2.38689         78.9861         9.88603 
        2.39303         78.6142         9.82559 
        2.39916         78.2432         9.76571 
        2.40529          77.936         9.70635 
        2.41143            77.4         9.64744 
        2.41757         77.0174           9.589 
         2.4237         76.7392         9.53115 
        2.42983         76.2191         9.47378 
        2.43598         75.8216         9.41675 
        2.44211         75.4412         9.36027 
        2.44823         75.0175         9.30439 
        2.45437         74.6174         9.24882 
        2.46052         74.1263         9.19366 
        2.46665         73.7778         9.13905 
        2.47279         73.4014          9.0849 
        2.47892         73.0336         9.03116 
        2.48507         72.5845          8.9778 
         2.4912          72.245         8.92499 
