# k  (h/Mpc)    P(k)  (Mpc/h)^3    P_linear(k)  (Mpc/h)^3
     0.00783031         926.488         936.844 
       0.013688         1174.08         1176.79 
       0.019231         1205.68         1206.27 
      0.0249154         1123.25         1129.51 
      0.0312784         993.706         994.688 
      0.0375637         866.119         864.167 
      0.0433917         766.035         767.285 
      0.0492413         696.717         696.193 
      0.0555754         638.041         640.961 
      0.0619321         598.291          596.09 
       0.067871         552.455         554.377 
      0.0738098         506.575         508.602 
      0.0800417         454.165         457.052 
      0.0862327         405.717         406.703 
      0.0921407         364.154         364.085 
      0.0982031         328.112         328.834 
       0.104506         303.402         301.772 
       0.110769         283.777         282.645 
       0.116806          267.97         268.459 
       0.122832         255.962         255.398 
       0.129052         240.086         240.819 
       0.135211         223.849         224.529 
       0.141259         207.957         207.412 
       0.147318         192.042         190.592 
       0.153489         176.156          175.28 
       0.159709         163.806         162.635 
       0.165845         155.389         153.014 
       0.171974         146.754          145.66 
       0.178125         140.834         139.587 
       0.184229         135.452         133.895 
        0.19034         128.141         127.853 
       0.196428         122.533          121.26 
       0.202534          116.53         114.264 
       0.208729         109.058         107.226 
       0.214876         102.145         100.782 
       0.220989         97.6517         95.2295 
       0.227147         92.0421         90.5817 
        0.23329         88.2609         86.7495 
       0.239377         85.2691         83.4723 
       0.245482         81.5069          80.406 
       0.251667         79.1648          77.285 
       0.257832         75.8578         74.0497 
       0.263955         72.6152         70.7416 
       0.270079         69.4449         67.4504 
        0.27624          66.893         64.3055 
       0.282372         64.0216         61.4528 
        0.28843         61.2287         58.9528 
       0.294538         58.9574         56.7338 
       0.300721          57.372         54.7201 
        0.30691         55.0429         52.8461 
       0.313033         53.2945         51.0468 
       0.319153         50.8982         49.2578 
       0.325316          49.885         47.4529 
        0.33145         47.9482         45.6806 
       0.337538         46.3933         43.9813 
       0.343633         44.6531         42.3777 
       0.349808         43.2914         40.8743 
       0.355968         41.9443         39.4965 
       0.362074         40.6064          38.236 
       0.368217         39.4351         37.0451 
       0.374374         38.1449         35.9038 
       0.380519         37.1782         34.7952 
       0.386598         36.1467         33.7199 
       0.392688         35.2479         32.6667 
        0.39888         34.1325         31.6271 
       0.405048         33.2356         30.6349 
       0.411186         32.3707         29.6987 
       0.417313         31.2809         28.8157 
       0.423458         30.4959         27.9809 
       0.429607         29.6271         27.1887 
       0.435692         28.7817         26.4382 
       0.441815           28.17         25.7095 
       0.447964         27.6455         25.0002 
       0.454126          26.646          24.309 
       0.460267         26.0727         23.6408 
       0.466387         25.2817         22.9983 
        0.47254         24.8259         22.3774 
       0.478662         24.3223         21.7853 
       0.484765         23.6192         21.2205 
       0.490885         23.0559         20.6783 
       0.497035         22.7365         20.1547 
       0.503198         22.1296         19.6485 
       0.509342          21.594         19.1601 
       0.515458         21.0861         18.6893 
       0.521598         20.6859         18.2312 
       0.527764         20.1933         17.7853 
       0.533884          19.839         17.3572 
           0.54         19.3987         16.9442 
       0.546137         19.0345         16.5447 
       0.552299         18.6815         16.1577 
       0.558452         18.1172         15.7846 
       0.564573          17.869         15.4254 
       0.570708         17.5254         15.0767 
       0.576825         17.0764         14.7398 
       0.582926         16.7849         14.4139 
       0.589034         16.3176         14.0972 
       0.595184          16.078         13.7877 
       0.601379         15.7428         13.4854 
       0.607522         15.5071         13.1948 
       0.613639         15.3063         12.9144 
       0.619772         14.8978         12.6419 
       0.625918         14.7638         12.3771 
       0.632068         14.5213         12.1199 
       0.638161         14.1777         11.8724 
         0.6443         13.8902         11.6299 
       0.650464         13.6168         11.3933 
       0.656582         13.5014          11.165 
       0.662703         13.2516         10.9429 
       0.668861         13.0153         10.7258 
       0.675024         12.7569         10.5144 
       0.681124          12.535         10.3111 
       0.687237         12.3475         10.1128 
       0.693381         12.1819         9.91894 
       0.699536         11.8541         9.72986 
       0.705665           11.73         9.54658 
       0.711789         11.5347         9.36823 
       0.717957         11.3445         9.19325 
        0.72409         11.1572         9.02377 
       0.730186         11.0051         8.85964 
       0.736317         10.8885         8.69875 
       0.742472         10.7137         8.54132 
       0.748622         10.5381         8.38799 
        0.75476         10.3184         8.23881 
       0.760888         10.1978         8.09353 
       0.767043         10.0752         7.95122 
       0.773185         9.87125         7.81267 
       0.779291         9.78843         7.67825 
       0.785407         9.63271         7.54683 
       0.791564         9.48061         7.41769 
       0.797719         9.32505         7.29166 
       0.803834         9.25013          7.1694 
       0.809972          9.1496         7.04954 
       0.816124         8.95777         6.93218 
       0.822261         8.82634         6.81785 
       0.828378         8.72245         6.70647 
       0.834502         8.64373         6.59751 
       0.840667         8.48366          6.4903 
       0.846816           8.346         6.38581 
       0.852925         8.27344          6.2843 
       0.859047         8.16601         6.18481 
       0.865192         8.08831         6.08717 
       0.871341         7.99634          5.9916 
       0.877463         7.87529         5.89855 
       0.883569         7.74512         5.80772 
       0.889708         7.62274         5.71837 
       0.895864         7.56013         5.63068 
       0.902008         7.46821         5.54505 
       0.908149          7.3875         5.46126 
       0.914301          7.2734         5.37909 
       0.920448          7.1727          5.2987 
       0.926574          7.0833         5.22026 
       0.932687          7.0205         5.14359 
       0.938823          6.9293          5.0682 
       0.944975         6.83774         4.99416 
       0.951105         6.77321         4.92188 
       0.957225         6.73659         4.85117 
       0.963368         6.63933         4.78163 
       0.969511          6.5588         4.71346 
       0.975621         6.47074           4.647 
       0.981748         6.40735         4.58166 
       0.987916         6.34185         4.51718 
        0.99406         6.23922         4.45419 
        1.00019         6.15949         4.39254 
        1.00632         6.12765         4.33213 
        1.01246         6.05825         4.27277 
        1.01859         5.97957         4.21462 
        1.02471         5.91853         4.15764 
        1.03085         5.85648         4.10153 
        1.03698         5.77877         4.04658 
        1.04314         5.73352         3.99242 
        1.04929         5.66013         3.93938 
        1.05541         5.59746         3.88753 
        1.06154           5.549         3.83649 
        1.06769         5.51582          3.7863 
        1.07382         5.42855         3.73718 
        1.07993         5.36765         3.68905 
        1.08607         5.33763         3.64158 
        1.09222         5.27805          3.5949 
        1.09836         5.22933         3.54911 
        1.10449         5.17295         3.50417 
        1.11063         5.12018         3.45997 
        1.11677         5.07733         3.41655 
         1.1229         5.02735         3.37396 
        1.12903         4.97036         3.33207 
        1.13518         4.92409         3.29086 
        1.14131         4.86101         3.25038 
        1.14745         4.80161          3.2106 
        1.15359          4.7791          3.1715 
        1.15973         4.72276         3.13303 
        1.16584         4.68158         3.09538 
        1.17197         4.63895         3.05829 
        1.17811         4.60435         3.02171 
        1.18424         4.56907         2.98584 
        1.19038         4.52989         2.95045 
        1.19652         4.48411         2.91565 
        1.20267         4.43805         2.88142 
        1.20881         4.40181         2.84775 
        1.21495         4.36607         2.81468 
        1.22108         4.32201         2.78214 
         1.2272         4.29841         2.75019 
        1.23334         4.24179         2.71868 
        1.23949         4.20243         2.68759 
        1.24562         4.18219         2.65708 
        1.25174         4.13051         2.62708 
        1.25789         4.10275         2.59746 
        1.26402         4.06236         2.56836 
        1.27014         4.02511         2.53977 
        1.27628         4.00325         2.51154 
        1.28244         3.95215         2.48369 
        1.28858         3.93502         2.45629 
        1.29471         3.89205         2.42938 
        1.30084         3.85592          2.4029 
        1.30697         3.84875         2.37677 
        1.31312         3.77914           2.351 
        1.31925         3.76556          2.3257 
        1.32537         3.73312         2.30079 
        1.33151         3.71324         2.27616 
        1.33765         3.66504         2.25192 
        1.34378         3.63942         2.22807 
        1.34992         3.62589         2.20456 
        1.35606         3.57579         2.18134 
         1.3622         3.56265         2.15849 
        1.36833         3.53211         2.13603 
        1.37445         3.50287         2.11391 
        1.38059         3.48479         2.09203 
        1.38675         3.46282         2.07041 
        1.39288         3.42574         2.04919 
        1.39901         3.39309         2.02827 
        1.40515         3.37097         2.00761 
         1.4113         3.34826         1.98724 
        1.41742          3.3254         1.96723 
        1.42355         3.30301         1.94746 
         1.4297         3.26866         1.92791 
        1.43585         3.25579         1.90863 
        1.44198         3.23643         1.88969 
        1.44809         3.19822         1.87105 
        1.45423         3.17531         1.85259 
        1.46036         3.15124         1.83441 
        1.46649         3.12688         1.81648 
        1.47263         3.10351         1.79877 
        1.47877         3.07589          1.7813 
        1.48491         3.05678         1.76405 
        1.49104         3.04144         1.74706 
        1.49718         3.01976         1.73028 
        1.50333         2.99804         1.71369 
        1.50947         2.97812         1.69736 
         1.5156         2.95595         1.68127 
        1.52172         2.93683         1.66539 
        1.52787         2.91583         1.64968 
          1.534         2.89506         1.63419 
        1.54013         2.87596         1.61892 
        1.54627          2.8494         1.60382 
        1.55241         2.82968         1.58891 
        1.55855         2.81775         1.57422 
        1.56467         2.79891         1.55975 
         1.5708         2.77237         1.54542 
        1.57695         2.75694         1.53125 
        1.58308         2.73694         1.51729 
        1.58922           2.725          1.5035 
        1.59535         2.70518         1.48989 
         1.6015         2.68735         1.47642 
        1.60764         2.67137         1.46313 
        1.61376         2.65454         1.45005 
        1.61989         2.63446         1.43711 
        1.62604         2.61554          1.4243 
        1.63218         2.60825         1.41166 
        1.63831         2.58219          1.3992 
        1.64444         2.56543         1.38689 
        1.65059         2.55282         1.37469 
        1.65673         2.53693         1.36266 
        1.66285         2.51662         1.35081 
        1.66898         2.50541         1.33909 
        1.67512         2.48357         1.32749 
        1.68127         2.46999         1.31602 
         1.6874         2.46133         1.30471 
        1.69353         2.43342         1.29354 
        1.69967         2.42235         1.28248 
        1.70581         2.41601         1.27155 
        1.71193         2.39601         1.26079 
        1.71806         2.38593         1.25013 
        1.72421         2.36995         1.23958 
        1.73035         2.35478         1.22916 
        1.73649         2.33909         1.21886 
        1.74262         2.32514         1.20869 
        1.74876         2.31694         1.19863 
        1.75489         2.29628          1.1887 
        1.76101         2.28235          1.1789 
        1.76715         2.27128         1.16918 
        1.77329         2.25917         1.15957 
        1.77943         2.24037         1.15006 
        1.78557         2.23071         1.14068 
        1.79171          2.2222         1.13139 
        1.79785         2.20373         1.12221 
        1.80399         2.19353         1.11313 
        1.81012         2.18515         1.10417 
        1.81625         2.16738         1.09531 
        1.82239         2.15395         1.08653 
        1.82853         2.13723         1.07786 
        1.83466         2.13285         1.06928 
        1.84078         2.11921         1.06082 
        1.84692         2.10967         1.05243 
        1.85306         2.09319         1.04412 
         1.8592         2.08306         1.03591 
        1.86533         2.07052          1.0278 
        1.87147         2.06332         1.01976 
        1.87761         2.05038         1.01181 
        1.88375         2.03396         1.00395 
        1.88988         2.02799        0.996186 
        1.89601         2.01463        0.988499 
        1.90215         2.00017        0.980887 
        1.90829          1.9894         0.97336 
        1.91442         1.98219        0.965911 
        1.92056         1.97028        0.958547 
         1.9267         1.96119        0.951253 
        1.93284         1.95337        0.944031 
        1.93897         1.94091        0.936897 
        1.94509         1.92787        0.929854 
        1.95123         1.91598        0.922865 
        1.95737         1.90723        0.915943 
        1.96349         1.89813         0.90911 
        1.96964         1.89144        0.902328 
        1.97578         1.87895        0.895612 
        1.98192         1.87048        0.888978 
        1.98805         1.85828        0.882412 
        1.99419         1.85161        0.875911 
        2.00033         1.84707        0.869474 
        2.00647         1.83085        0.863103 
         2.0126          1.8249        0.856807 
        2.01874         1.81157        0.850564 
        2.02488         1.80551        0.844379 
        2.03101         1.79164        0.838266 
        2.03714         1.78185        0.832221 
        2.04328          1.7774        0.826228 
        2.04941         1.76425        0.820299 
        2.05554         1.75923        0.814434 
        2.06167         1.74807        0.808618 
        2.06781         1.74289        0.802858 
        2.07396         1.73262        0.797146 
        2.08009         1.72404          0.7915 
        2.08622         1.71263        0.785915 
        2.09237         1.70974        0.780373 
        2.09851         1.69959        0.774885 
        2.10464         1.69405        0.769458 
        2.11077         1.68271         0.76409 
        2.11691         1.67315        0.758762 
        2.12305         1.66839        0.753484 
        2.12918         1.65958         0.74827 
        2.13531         1.65215        0.743105 
        2.14145         1.64193        0.737977 
         2.1476         1.63354        0.732891 
        2.15372         1.62641        0.727879 
        2.15985         1.61828         0.72291 
        2.16599         1.61148        0.717972 
        2.17213         1.60242        0.713087 
        2.17827         1.59748        0.708248 
         2.1844         1.59067        0.703458 
        2.19054         1.58474        0.698712 
        2.19666         1.57506        0.694016 
         2.2028         1.56796        0.689359 
        2.20893         1.55939        0.684743 
        2.21508         1.55574        0.680164 
        2.22122         1.54316        0.675625 
        2.22736         1.53632        0.671138 
        2.23349         1.53493        0.666692 
        2.23962         1.52359        0.662285 
        2.24577         1.51768        0.657914 
         2.2519         1.50927        0.653588 
        2.25802         1.50653        0.649309 
        2.26417         1.49685        0.645056 
        2.27031         1.49218        0.640837 
        2.27644         1.48497        0.636669 
        2.28257         1.47832        0.632538 
        2.28872         1.47082        0.628436 
        2.29486         1.46599        0.624372 
        2.30099         1.45741        0.620351 
        2.30712         1.45124        0.616365 
        2.31326         1.44856        0.612407 
         2.3194         1.44028        0.608486 
        2.32553         1.43519        0.604607 
        2.33166         1.42616        0.600763 
         2.3378         1.41985        0.596947 
        2.34394         1.41316        0.593163 
        2.35007         1.40729        0.589418 
        2.35619         1.40518         0.58571 
        2.36233         1.39525        0.582025 
        2.36848          1.3907        0.578364 
        2.37462         1.38499        0.574742 
        2.38075          1.3792        0.571155 
        2.38689         1.37364        0.567596 
        2.39303         1.36831        0.564068 
        2.39916         1.36058        0.560573 
        2.40529         1.35726        0.557109 
        2.41143         1.35007        0.553671 
        2.41757         1.34463        0.550262 
         2.4237         1.34141        0.546887 
        2.42983         1.33314        0.543541 
        2.43598         1.33042        0.540214 
        2.44211         1.32377         0.53692 
        2.44823          1.3181        0.533662 
        2.45437         1.31316        0.530422 
        2.46052         1.30899        0.527206 
        2.46665         1.30327        0.524023 
        2.47279         1.29748        0.520867 
        2.47892         1.29115        0.517735 
        2.48507         1.28745        0.514626 
         2.4912         1.28125        0.511548 
