# k  (h/Mpc)    Pcb(k)  (Mpc/h)^3    Pcb_linear(k)  (Mpc/h)^3
     0.00783031         1898.74         1917.03 
       0.013688         2534.77         2533.48 
       0.019231         2721.33         2721.19 
      0.0249154         2648.48         2670.29 
      0.0312784         2454.07         2462.44 
      0.0375637         2210.24          2208.7 
      0.0433917         1977.28         1988.86 
      0.0492413         1804.53         1807.26 
      0.0555754         1641.35         1657.28 
      0.0619321          1548.3         1543.24 
       0.067871         1441.59         1453.49 
      0.0738098         1353.32         1366.25 
      0.0800417         1250.27         1268.84 
      0.0862327         1153.33         1164.97 
      0.0921407         1057.31         1063.88 
      0.0982031         956.164         965.384 
       0.104506         878.052         875.638 
       0.110769          805.43         803.199 
       0.116806         746.197         749.218 
       0.122832         709.455         707.939 
       0.129052         669.223         673.758 
       0.135211          638.43         643.243 
       0.141259         611.934         612.624 
       0.147318         581.528         579.358 
       0.153489          541.96         542.917 
       0.159709         507.355         505.357 
       0.165845         478.488         469.912 
       0.171974         443.286         438.243 
       0.178125         418.148         411.429 
       0.184229         398.732         389.851 
        0.19034         375.407         372.445 
       0.196428         365.596         357.884 
       0.202534         355.343         344.541 
       0.208729         339.513             331 
       0.214876         322.619          316.83 
       0.220989         312.778         301.928 
       0.227147          293.49          286.54 
        0.23329         279.803         271.522 
       0.239377         268.928         257.667 
       0.245482         253.055         245.274 
       0.251667         246.716         234.418 
       0.257832         237.636         225.146 
       0.263955         229.329         217.101 
       0.270079         222.081          209.74 
        0.27624         217.541           202.6 
       0.282372         209.555         195.462 
        0.28843         201.561         188.268 
       0.294538         194.016         180.935 
       0.300721         189.566           173.6 
        0.30691         180.876         166.565 
       0.313033         175.264         160.078 
       0.319153         167.213         154.167 
       0.325316         164.216         148.788 
        0.33145         158.636         143.932 
       0.337538         155.387          139.47 
       0.343633         150.549         135.232 
       0.349808         146.474         131.054 
       0.355968         142.771         126.938 
       0.362074         138.539         122.893 
       0.368217         134.869         118.887 
       0.374374         130.871          114.99 
       0.380519         127.576         111.269 
       0.386598         124.228         107.797 
       0.392688         121.836         104.539 
        0.39888         118.551         101.443 
       0.405048          116.05         98.5467 
       0.411186         113.635          95.808 
       0.417313         110.189         93.1799 
       0.423458         107.829         90.6204 
       0.429607         105.067         88.1174 
       0.435692         101.852         85.6992 
       0.441815         100.692         83.3305 
       0.447964         99.1322         81.0291 
       0.454126         95.1904         78.8153 
       0.460267         93.7054         76.7082 
       0.466387         91.4577         74.7059 
        0.47254         90.2181         72.7862 
       0.478662         88.7491         70.9599 
       0.484765          86.476         69.2083 
       0.490885         84.7036         67.5101 
       0.497035         83.6576         65.8548 
       0.503198         81.5948         64.2433 
       0.509342          79.628         62.6805 
       0.515458         78.3313         61.1708 
       0.521598         77.2571         59.7043 
       0.527764         75.8487         58.2826 
       0.533884         74.5504          56.922 
           0.54         73.2577         55.6119 
       0.546137         72.2681         54.3451 
       0.552299         71.2656         53.1172 
       0.558452         69.2062         51.9311 
       0.564573         68.2041         50.7865 
       0.570708         67.4134         49.6723 
       0.576825         65.9124         48.5933 
       0.582926         64.8232         47.5476 
       0.589034         63.2526         46.5303 
       0.595184         62.5681         45.5358 
       0.601379         61.7515         44.5646 
       0.607522         60.4545         43.6314 
       0.613639         60.1691         42.7308 
       0.619772         58.6539         41.8552 
       0.625918         58.4523         41.0035 
       0.632068          57.531         40.1754 
       0.638161         56.5583         39.3778 
         0.6443         55.5835         38.5961 
       0.650464          54.745         37.8328 
       0.656582         54.4114         37.0953 
       0.662703         53.3732         36.3772 
       0.668861         52.6293         35.6741 
       0.675024         51.8434         34.9892 
       0.681124         50.9999         34.3298 
       0.687237         50.2185         33.6867 
       0.693381         49.8561         33.0577 
       0.699536          48.772         32.4443 
       0.705665         48.8157         31.8494 
       0.711789         47.7385         31.2702 
       0.717957          47.248         30.7014 
        0.72409         46.5811           30.15 
       0.730186         45.9635         29.6155 
       0.736317         45.6301         29.0912 
       0.742472          44.842         28.5779 
       0.748622         44.5041         28.0777 
        0.75476         43.8362         27.5908 
       0.760888         43.2924         27.1165 
       0.767043         42.8584         26.6517 
       0.773185         42.1712         26.1989 
       0.779291         41.9932         25.7594 
       0.785407          41.519         25.3296 
       0.791564          40.806         24.9069 
       0.797719         40.1268         24.4943 
       0.803834         40.0762         24.0938 
       0.809972         39.6686         23.7009 
       0.816124         38.8003         23.3161 
       0.822261         38.6842         22.9409 
       0.828378          38.277         22.5754 
       0.834502         37.8574         22.2176 
       0.840667         37.4939         21.8654 
       0.846816         36.9393         21.5219 
       0.852925         36.6457         21.1881 
       0.859047         36.2187         20.8608 
       0.865192         35.9686         20.5394 
       0.871341         35.7478         20.2247 
       0.877463         35.0941         19.9181 
       0.883569         34.7606         19.6187 
       0.889708         34.4105          19.324 
       0.895864         34.1884         19.0346 
       0.902008         33.9223         18.7519 
       0.908149          33.601         18.4752 
       0.914301         33.4335         18.2037 
       0.920448         32.7657         17.9379 
       0.926574         32.6244         17.6785 
       0.932687         32.3042         17.4248 
       0.938823         31.9173         17.1752 
       0.944975         31.6453           16.93 
       0.951105          31.439         16.6906 
       0.957225         31.0879         16.4562 
       0.963368         30.8647         16.2256 
       0.969511         30.6463         15.9995 
       0.975621          30.427          15.779 
       0.981748         30.0428         15.5621 
       0.987916         29.8812          15.348 
        0.99406         29.5532         15.1387 
        1.00019         29.1908         14.9339 
        1.00632         29.1546          14.733 
        1.01246         28.8593         14.5357 
        1.01859          28.503         14.3423 
        1.02471         28.4375         14.1527 
        1.03085         28.1748         13.9659 
        1.03698         27.7713          13.783 
        1.04314         27.6275         13.6026 
        1.04929         27.3425         13.4259 
        1.05541         27.1051          13.253 
        1.06154         26.9418         13.0829 
        1.06769         26.8037         12.9155 
        1.07382         26.5131         12.7516 
        1.07993          26.407          12.591 
        1.08607         26.1091         12.4325 
        1.09222         25.9435         12.2767 
        1.09836         25.6494         12.1237 
        1.10449         25.5696         11.9735 
        1.11063         25.3095         11.8258 
        1.11677         25.2143         11.6806 
         1.1229         25.0861         11.5381 
        1.12903         24.7849         11.3979 
        1.13518          24.544           11.26 
        1.14131         24.4593         11.1244 
        1.14745         24.2982         10.9912 
        1.15359         24.1402         10.8601 
        1.15973         23.9363         10.7312 
        1.16584         23.6574         10.6049 
        1.17197         23.6294         10.4806 
        1.17811         23.4101         10.3578 
        1.18424         23.2202         10.2374 
        1.19038         23.1428         10.1186 
        1.19652         22.9377         10.0017 
        1.20267         22.7487         9.88674 
        1.20881         22.7126          9.7736 
        1.21495         22.5349         9.66242 
        1.22108         22.3183         9.55301 
         1.2272         22.1422         9.44556 
        1.23334         21.9848         9.33955 
        1.23949         21.8249         9.23492 
        1.24562         21.7976         9.13221 
        1.25174         21.6363         9.03124 
        1.25789         21.5232          8.9315 
        1.26402         21.3997         8.83346 
        1.27014         21.2273         8.73715 
        1.27628         20.9991         8.64201 
        1.28244         20.9449         8.54812 
        1.28858         20.8761         8.45576 
        1.29471          20.666           8.365 
        1.30084         20.5113         8.27566 
        1.30697         20.4432         8.18751 
        1.31312         20.2278         8.10053 
        1.31925         20.1178         8.01511 
        1.32537         20.0672         7.93101 
        1.33151         19.9008         7.84784 
        1.33765         19.7839         7.76592 
        1.34378         19.6856         7.68534 
        1.34992         19.4939         7.60586 
        1.35606         19.4524         7.52735 
         1.3622         19.3527          7.4501 
        1.36833         19.2145         7.37413 
        1.37445         19.1249         7.29926 
        1.38059         19.0451         7.22522 
        1.38675         18.8578         7.15203 
        1.39288         18.7756         7.08016 
        1.39901         18.6109         7.00932 
        1.40515         18.5619          6.9393 
         1.4113         18.4691         6.87026 
        1.41742         18.3505         6.80244 
        1.42355          18.249         6.73542 
         1.4297         18.1257         6.66911 
        1.43585         18.0854         6.60372 
        1.44198         17.9494         6.53947 
        1.44809         17.8636          6.4762 
        1.45423         17.7533         6.41355 
        1.46036         17.6866         6.35184 
        1.46649         17.5893         6.29094 
        1.47263         17.4462         6.23079 
        1.47877           17.38         6.17146 
        1.48491          17.279         6.11281 
        1.49104         17.2129         6.05507 
        1.49718         17.1084         5.99803 
        1.50333         17.0246         5.94164 
        1.50947         16.9387          5.8861 
         1.5156         16.8316         5.83136 
        1.52172         16.7323         5.77732 
        1.52787           16.64         5.72386 
          1.534         16.5701         5.67116 
        1.54013         16.4852         5.61917 
        1.54627          16.373         5.56776 
        1.55241         16.3137         5.51698 
        1.55855         16.2536         5.46691 
        1.56467         16.1429         5.41762 
         1.5708         16.1131         5.36879 
        1.57695         15.9661          5.3205 
        1.58308         15.9132         5.27292 
        1.58922         15.8455         5.22589 
        1.59535         15.7746         5.17946 
         1.6015         15.6649         5.13354 
        1.60764         15.5994          5.0882 
        1.61376         15.5721         5.04353 
        1.61989         15.4365         4.99938 
        1.62604          15.401         4.95565 
        1.63218         15.3221         4.91248 
        1.63831         15.2649         4.86993 
        1.64444         15.1721         4.82787 
        1.65059          15.082         4.78622 
        1.65673         15.0318          4.7451 
        1.66285         14.9071         4.70459 
        1.66898         14.8776         4.66454 
        1.67512         14.8142         4.62488 
        1.68127         14.7234         4.58566 
         1.6874         14.6766         4.54697 
        1.69353         14.6106         4.50877 
        1.69967         14.5143         4.47091 
        1.70581         14.4293         4.43351 
        1.71193         14.3946         4.39668 
        1.71806         14.3705          4.3602 
        1.72421         14.2484         4.32406 
        1.73035         14.2203         4.28837 
        1.73649         14.1649          4.2531 
        1.74262         14.0766         4.21825 
        1.74876         14.0234         4.18378 
        1.75489         13.9771         4.14976 
        1.76101          13.876         4.11614 
        1.76715         13.8546         4.08285 
        1.77329         13.7833         4.04989 
        1.77943         13.6946         4.01728 
        1.78557         13.6656         3.98508 
        1.79171         13.6059         3.95323 
        1.79785         13.5356         3.92172 
        1.80399         13.4723         3.89057 
        1.81012         13.4179          3.8598 
        1.81625         13.3399         3.82938 
        1.82239         13.3032         3.79925 
        1.82853         13.2116         3.76946 
        1.83466         13.1833         3.74002 
        1.84078         13.0913         3.71092 
        1.84692         13.0908          3.6821 
        1.85306         13.0131         3.65354 
         1.8592         12.9491         3.62534 
        1.86533         12.9126         3.59745 
        1.87147         12.8486         3.56982 
        1.87761         12.7976         3.54248 
        1.88375         12.7514         3.51546 
        1.88988         12.7029         3.48875 
        1.89601         12.6469          3.4623 
        1.90215         12.5865         3.43611 
        1.90829         12.5386         3.41021 
        1.91442         12.4882         3.38457 
        1.92056         12.4451         3.35923 
         1.9267         12.3866         3.33412 
        1.93284         12.3288         3.30925 
        1.93897         12.2714         3.28468 
        1.94509         12.2303         3.26042 
        1.95123         12.1766         3.23635 
        1.95737         12.1228          3.2125 
        1.96349         12.0724         3.18896 
        1.96964         12.0284         3.16558 
        1.97578         11.9791         3.14244 
        1.98192         11.9272         3.11957 
        1.98805           11.89         3.09693 
        1.99419         11.8429         3.07451 
        2.00033         11.8143          3.0523 
        2.00647         11.7556         3.03033 
         2.0126         11.7034         3.00861 
        2.01874         11.6529         2.98707 
        2.02488         11.6064         2.96572 
        2.03101         11.5618         2.94462 
        2.03714         11.5161         2.92375 
        2.04328         11.4703         2.90306 
        2.04941          11.435         2.88259 
        2.05554         11.3797         2.86233 
        2.06167         11.3317         2.84224 
        2.06781         11.3086         2.82234 
        2.07396         11.2684         2.80261 
        2.08009         11.2041          2.7831 
        2.08622         11.1521          2.7638 
        2.09237          11.154         2.74465 
        2.09851         11.1199         2.72567 
        2.10464         11.0572         2.70691 
        2.11077         10.9935         2.68835 
        2.11691         10.9557         2.66992 
        2.12305         10.9367         2.65167 
        2.12918         10.9025         2.63363 
        2.13531         10.8382         2.61576 
        2.14145         10.8097         2.59801 
         2.1476         10.7539         2.58042 
        2.15372         10.7237         2.56307 
        2.15985         10.7108         2.54586 
        2.16599          10.647         2.52877 
        2.17213         10.6247         2.51185 
        2.17827         10.5857          2.4951 
         2.1844         10.5359         2.47851 
        2.19054         10.4862         2.46206 
        2.19666         10.4588          2.4458 
         2.2028         10.4081         2.42966 
        2.20893         10.4009         2.41367 
        2.21508          10.339          2.3978 
        2.22122         10.2945         2.38207 
        2.22736         10.2714         2.36651 
        2.23349         10.2423          2.3511 
        2.23962         10.2049         2.33582 
        2.24577         10.1528         2.32066 
         2.2519         10.1331         2.30566 
        2.25802         10.0893         2.29081 
        2.26417         10.0472         2.27606 
        2.27031         10.0191         2.26142 
        2.27644         9.98404         2.24696 
        2.28257         9.95299         2.23263 
        2.28872         9.91076         2.21839 
        2.29486         9.88124         2.20428 
        2.30099         9.85778         2.19032 
        2.30712         9.82775         2.17648 
        2.31326         9.76005         2.16274 
         2.3194          9.7346         2.14912 
        2.32553         9.72114         2.13565 
        2.33166         9.68176         2.12229 
         2.3378         9.65536         2.10904 
        2.34394          9.6127         2.09589 
        2.35007         9.55889         2.08287 
        2.35619         9.53988         2.06998 
        2.36233         9.50619         2.05718 
        2.36848         9.47792         2.04445 
        2.37462         9.43678         2.03186 
        2.38075         9.41668         2.01939 
        2.38689         9.37393         2.00701 
        2.39303         9.34144         1.99474 
        2.39916         9.32142         1.98259 
        2.40529         9.28316         1.97054 
        2.41143         9.25417         1.95858 
        2.41757         9.24002         1.94671 
         2.4237         9.20321         1.93497 
        2.42983         9.16925         1.92332 
        2.43598         9.14875         1.91174 
        2.44211         9.11334         1.90028 
        2.44823         9.08652         1.88894 
        2.45437         9.04409         1.87765 
        2.46052         9.00604         1.86646 
        2.46665         8.98242         1.85537 
        2.47279         8.95167         1.84438 
        2.47892         8.91979         1.83347 
        2.48507         8.90015         1.82264 
         2.4912         8.86026         1.81191 
