# k  (h/Mpc)    Pcb(k)  (Mpc/h)^3    Pcb_linear(k)  (Mpc/h)^3
     0.00783031         2846.23         2875.52 
       0.013688         3663.08         3658.09 
       0.019231         3807.44         3805.39 
      0.0249154         3585.17         3617.85 
      0.0312784         3216.48         3227.22 
      0.0375637         2820.08         2815.73 
      0.0433917         2474.42         2489.04 
      0.0492413         2235.23         2237.32 
      0.0555754          2019.3         2041.27 
      0.0619321         1904.61         1896.07 
       0.067871         1762.43         1778.45 
      0.0738098         1641.45         1657.92 
      0.0800417         1495.91         1519.13 
      0.0862327         1359.77         1372.18 
      0.0921407         1229.77         1234.07 
      0.0982031         1098.61         1106.37 
       0.104506         1005.67         997.398 
       0.110769         922.968         915.536 
       0.116806         858.762         858.167 
       0.122832         820.517         815.166 
       0.129052          774.18         777.459 
       0.135211          736.67         739.707 
       0.141259         701.269         698.325 
       0.147318         659.259         652.238 
       0.153489         606.799         603.076 
       0.159709         563.589          555.27 
       0.165845         529.668         513.409 
       0.171974         491.057         478.913 
       0.178125         465.553         451.833 
       0.184229         446.338         431.069 
        0.19034         421.251         414.115 
       0.196428         411.575         398.623 
       0.202534         399.227         382.579 
       0.208729         379.037         364.794 
       0.214876         357.577          345.73 
       0.220989         343.936         326.245 
       0.227147         321.648         307.301 
        0.23329         306.012         290.154 
       0.239377         294.876         275.506 
       0.245482         277.339         263.225 
       0.251667         271.944         252.826 
       0.257832         262.832         243.804 
       0.263955         253.798         235.432 
       0.270079         245.239         227.044 
        0.27624         239.914         218.295 
       0.282372         230.256         209.276 
        0.28843         220.806         200.291 
       0.294538         211.633         191.504 
       0.300721         206.978         183.207 
        0.30691         197.281         175.718 
       0.313033           191.6         169.144 
       0.319153         183.149          163.31 
       0.325316         179.847         157.966 
        0.33145         173.747         152.962 
       0.337538         170.455          148.11 
       0.343633         164.839         143.268 
       0.349808         159.997         138.351 
       0.355968         156.024          133.49 
       0.362074          151.18         128.808 
       0.368217         146.982         124.326 
       0.374374         142.641         120.133 
       0.380519         139.194         116.261 
       0.386598         135.559         112.723 
       0.392688         133.117         109.413 
        0.39888          129.59         106.219 
       0.405048         126.751         103.152 
       0.411186         123.992         100.168 
       0.417313         120.436         97.2408 
       0.423458          117.76         94.3681 
       0.429607         114.743         91.5731 
       0.435692         111.056         88.9123 
       0.441815         109.951         86.3618 
       0.447964         108.173         83.9332 
       0.454126         103.637         81.6296 
       0.460267         102.224         79.4516 
       0.466387         99.9952         77.3761 
        0.47254         98.4663         75.3638 
       0.478662         96.9835         73.4233 
       0.484765         94.3665         71.5416 
       0.490885           92.52         69.7033 
       0.497035         91.3638         67.9084 
       0.503198         88.9653         66.1704 
       0.509342         86.8869          64.502 
       0.515458         85.5337         62.9057 
       0.521598         84.3704         61.3673 
       0.527764          82.899         59.8849 
       0.533884         81.4959         58.4691 
           0.54         79.9894         57.1021 
       0.546137         79.0455         55.7723 
       0.552299         77.9097         54.4762 
       0.558452          75.747         53.2202 
       0.564573         74.4994         52.0065 
       0.570708         73.6655         50.8257 
       0.576825         72.2013         49.6849 
       0.582926         70.8835         48.5839 
       0.589034         69.2958         47.5186 
       0.595184         68.5339         46.4815 
       0.601379         67.6503         45.4705 
       0.607522         66.0952         44.4986 
       0.613639          65.867         43.5592 
       0.619772         64.2262         42.6445 
       0.625918         63.9086         41.7539 
       0.632068         62.9647         40.8877 
       0.638161         61.9656         40.0532 
         0.6443         60.9595         39.2357 
       0.650464         60.0586         38.4382 
       0.656582         59.5958         37.6691 
       0.662703         58.4159         36.9219 
       0.668861         57.6766         36.1917 
       0.675024         56.8557         35.4815 
       0.681124         55.9348          34.798 
       0.687237          55.042         34.1313 
       0.693381         54.6423         33.4788 
       0.699536         53.5365         32.8421 
       0.705665         53.7073         32.2246 
       0.711789         52.3708         31.6236 
       0.717957         51.8769         31.0339 
        0.72409          51.165         30.4629 
       0.730186         50.4101         29.9101 
       0.736317         50.1251         29.3683 
       0.742472         49.2716         28.8382 
       0.748622         48.9094         28.3219 
        0.75476         48.2401         27.8195 
       0.760888          47.557         27.3302 
       0.767043         47.0884         26.8508 
       0.773185         46.3991         26.3839 
       0.779291         46.2109          25.931 
       0.785407         45.7205         25.4881 
       0.791564         44.9494         25.0529 
       0.797719         44.1806         24.6282 
       0.803834          44.127         24.2162 
       0.809972         43.5727         23.8124 
       0.816124         42.7514         23.4169 
       0.822261         42.5568         23.0317 
       0.828378         42.1866         22.6564 
       0.834502         41.7016         22.2892 
       0.840667         41.3198         21.9279 
       0.846816         40.7173         21.5757 
       0.852925         40.3791         21.2335 
       0.859047         39.8853         20.8981 
       0.865192         39.6188         20.5689 
       0.871341         39.4121         20.2466 
       0.877463         38.6295         19.9328 
       0.883569         38.3282         19.6265 
       0.889708          38.012         19.3251 
       0.895864         37.6977         19.0293 
       0.902008         37.3978         18.7404 
       0.908149         37.0486         18.4578 
       0.914301         36.8996         18.1805 
       0.920448         36.2025         17.9093 
       0.926574         36.0294         17.6446 
       0.932687          35.664         17.3859 
       0.938823          35.204         17.1315 
       0.944975         35.0018         16.8817 
       0.951105          34.719         16.6378 
       0.957225         34.3129         16.3991 
       0.963368         34.1474         16.1644 
       0.969511         33.8794         15.9343 
       0.975621         33.6265           15.71 
       0.981748         33.1743         15.4895 
       0.987916         33.0329         15.2719 
        0.99406         32.7041         15.0593 
        1.00019         32.3122         14.8512 
        1.00632         32.1949         14.6473 
        1.01246          31.935         14.4469 
        1.01859         31.5271         14.2507 
        1.02471         31.4962         14.0583 
        1.03085         31.1911         13.8689 
        1.03698          30.742         13.6835 
        1.04314         30.5499         13.5006 
        1.04929          30.307         13.3216 
        1.05541         30.0065         13.1466 
        1.06154         29.8819         12.9743 
        1.06769         29.6798         12.8048 
        1.07382         29.4001          12.639 
        1.07993          29.296         12.4765 
        1.08607          28.922         12.3162 
        1.09222         28.7944         12.1586 
        1.09836         28.4632          12.004 
        1.10449         28.3568         11.8523 
        1.11063         28.0165          11.703 
        1.11677         27.9348         11.5564 
         1.1229         27.8166         11.4125 
        1.12903         27.4502          11.271 
        1.13518         27.2244         11.1318 
        1.14131         27.1743         10.9951 
        1.14745         26.9657         10.8607 
        1.15359         26.8228         10.7286 
        1.15973         26.5429         10.5986 
        1.16584           26.26         10.4714 
        1.17197         26.2943         10.3461 
        1.17811         25.9587         10.2225 
        1.18424         25.7507         10.1013 
        1.19038         25.6978         9.98174 
        1.19652         25.5023         9.86415 
        1.20267         25.3149         9.74848 
        1.20881         25.1913          9.6347 
        1.21495         25.0101         9.52293 
        1.22108         24.8133         9.41296 
         1.2272         24.5778         9.30501 
        1.23334         24.4652         9.19851 
        1.23949         24.2621         9.09344 
        1.24562         24.2196         8.99032 
        1.25174         24.0636         8.88897 
        1.25789         23.9119         8.78888 
        1.26402         23.7931         8.69053 
        1.27014         23.5664         8.59394 
        1.27628         23.3529         8.49853 
        1.28244          23.311          8.4044 
        1.28858         23.2169         8.31184 
        1.29471         22.9967         8.22089 
        1.30084         22.8385         8.13139 
        1.30697         22.7147          8.0431 
        1.31312         22.5156         7.95601 
        1.31925         22.3981         7.87048 
        1.32537         22.3455         7.78631 
        1.33151         22.1395         7.70308 
        1.33765         22.0554         7.62112 
        1.34378         21.9568         7.54052 
        1.34992         21.6889         7.46103 
        1.35606         21.6627         7.38253 
         1.3622         21.5382          7.3053 
        1.36833         21.3855         7.22937 
        1.37445         21.3205         7.15457 
        1.38059         21.1976         7.08059 
        1.38675         20.9796          7.0075 
        1.39288         20.9322         6.93573 
        1.39901         20.7562         6.86501 
        1.40515         20.6865         6.79512 
         1.4113         20.5529         6.72624 
        1.41742         20.4058         6.65858 
        1.42355          20.341         6.59174 
         1.4297         20.2237         6.52561 
        1.43585         20.1773         6.46042 
        1.44198         19.9696         6.39638 
        1.44809         19.9106         6.33334 
        1.45423         19.8025         6.27091 
        1.46036          19.725         6.20945 
        1.46649         19.6153         6.14879 
        1.47263         19.4594          6.0889 
        1.47877         19.3787         6.02984 
        1.48491         19.2807         5.97148 
        1.49104         19.2273         5.91402 
        1.49718         19.0703         5.85727 
        1.50333         19.0017         5.80119 
        1.50947         18.9243         5.74595 
         1.5156         18.7636         5.69153 
        1.52172         18.6598         5.63781 
        1.52787         18.5946         5.58469 
          1.534           18.49         5.53231 
        1.54013          18.365         5.48067 
        1.54627         18.2835          5.4296 
        1.55241          18.191         5.37917 
        1.55855         18.1219         5.32946 
        1.56467         18.0295         5.28051 
         1.5708         17.9822         5.23205 
        1.57695         17.8165         5.18412 
        1.58308          17.784         5.13691 
        1.58922           17.69         5.09026 
        1.59535         17.5968         5.04421 
         1.6015         17.4858         4.99866 
        1.60764         17.4244         4.95371 
        1.61376         17.3781         4.90943 
        1.61989         17.2101         4.86566 
        1.62604         17.2136         4.82234 
        1.63218         17.0922         4.77956 
        1.63831         17.0397         4.73741 
        1.64444         16.9082         4.69576 
        1.65059         16.8422         4.65451 
        1.65673         16.7962          4.6138 
        1.66285         16.6551         4.57369 
        1.66898         16.6301         4.53406 
        1.67512         16.5475         4.49481 
        1.68127         16.4426           4.456 
         1.6874         16.3788         4.41773 
        1.69353         16.3233         4.37994 
        1.69967         16.2165          4.3425 
        1.70581         16.1311         4.30552 
        1.71193         16.0615         4.26912 
        1.71806         16.0322         4.23305 
        1.72421         15.9126         4.19734 
        1.73035          15.884         4.16208 
        1.73649         15.7997         4.12724 
        1.74262         15.7519         4.09282 
        1.74876         15.6679         4.05878 
        1.75489          15.604         4.02519 
        1.76101         15.4988           3.992 
        1.76715         15.5044         3.95914 
        1.77329         15.3929         3.92661 
        1.77943         15.3039         3.89443 
        1.78557         15.2584         3.86267 
        1.79171         15.2188         3.83125 
        1.79785         15.1154         3.80018 
        1.80399         15.0637         3.76946 
        1.81012         15.0017         3.73912 
        1.81625         14.9177         3.70914 
        1.82239         14.8741         3.67943 
        1.82853         14.7596         3.65007 
        1.83466         14.7321         3.62106 
        1.84078         14.6202          3.5924 
        1.84692         14.6163           3.564 
        1.85306         14.5435         3.53588 
         1.8592         14.4795         3.50811 
        1.86533         14.4307         3.48065 
        1.87147         14.3623         3.45345 
        1.87761         14.3119         3.42654 
        1.88375         14.2221         3.39994 
        1.88988         14.2021         3.37366 
        1.89601         14.1361         3.34764 
        1.90215         14.0581         3.32188 
        1.90829         14.0105          3.2964 
        1.91442         13.9491         3.27119 
        1.92056         13.9101         3.24627 
         1.9267         13.8452         3.22158 
        1.93284         13.7763         3.19713 
        1.93897         13.6996         3.17299 
        1.94509         13.6645         3.14915 
        1.95123         13.6145         3.12549 
        1.95737         13.5562         3.10206 
        1.96349         13.4965         3.07893 
        1.96964         13.4458         3.05598 
        1.97578         13.3922         3.03324 
        1.98192         13.3208         3.01079 
        1.98805         13.2887         2.98856 
        1.99419         13.2265         2.96655 
        2.00033         13.1873         2.94476 
        2.00647         13.1425          2.9232 
         2.0126          13.044         2.90188 
        2.01874         13.0135         2.88075 
        2.02488         12.9453         2.85981 
        2.03101         12.9291         2.83912 
        2.03714         12.8715         2.81865 
        2.04328          12.815         2.79837 
        2.04941         12.7612          2.7783 
        2.05554         12.7286         2.75844 
        2.06167          12.663         2.73875 
        2.06781         12.6354         2.71925 
        2.07396         12.5846         2.69991 
        2.08009         12.5228          2.6808 
        2.08622         12.4565         2.66189 
        2.09237          12.443         2.64313 
        2.09851         12.4055         2.62455 
        2.10464         12.3392         2.60617 
        2.11077         12.2835           2.588 
        2.11691         12.2256         2.56996 
        2.12305         12.1983         2.55209 
        2.12918         12.1662         2.53444 
        2.13531         12.1095         2.51695 
        2.14145         12.0686         2.49959 
         2.1476         12.0134         2.48237 
        2.15372         11.9761          2.4654 
        2.15985         11.9436         2.44857 
        2.16599          11.887         2.43185 
        2.17213         11.8632         2.41531 
        2.17827         11.8109         2.39893 
         2.1844         11.7636         2.38271 
        2.19054         11.6959         2.36664 
        2.19666         11.6752         2.35074 
         2.2028          11.623         2.33497 
        2.20893         11.6054         2.31934 
        2.21508         11.5423         2.30384 
        2.22122         11.4844         2.28847 
        2.22736         11.4606         2.27328 
        2.23349         11.4033         2.25822 
        2.23962         11.3908          2.2433 
        2.24577         11.3278          2.2285 
         2.2519         11.2939         2.21385 
        2.25802         11.2519         2.19936 
        2.26417         11.2082         2.18496 
        2.27031         11.1767         2.17068 
        2.27644          11.137         2.15656 
        2.28257         11.1106         2.14258 
        2.28872         11.0419         2.12869 
        2.29486         11.0194         2.11492 
        2.30099         11.0072         2.10131 
        2.30712         10.9639         2.08781 
        2.31326         10.8999         2.07441 
         2.3194         10.8459         2.06113 
        2.32553           10.84         2.04799 
        2.33166         10.7838         2.03498 
         2.3378         10.7594         2.02206 
        2.34394         10.7141         2.00924 
        2.35007           10.66         1.99656 
        2.35619         10.6278           1.984 
        2.36233         10.5865         1.97153 
        2.36848         10.5733         1.95913 
        2.37462         10.5256         1.94686 
        2.38075         10.4733         1.93472 
        2.38689         10.4491         1.92266 
        2.39303         10.4122         1.91072 
        2.39916         10.3814         1.89888 
        2.40529          10.357         1.88715 
        2.41143         10.3038         1.87551 
        2.41757          10.294         1.86396 
         2.4237         10.2378         1.85253 
        2.42983         10.2167          1.8412 
        2.43598         10.1893         1.82994 
        2.44211          10.138         1.81878 
        2.44823         10.1164         1.80775 
        2.45437         10.0795         1.79677 
        2.46052         10.0303         1.78588 
        2.46665         10.0023          1.7751 
        2.47279         9.96883         1.76441 
        2.47892         9.92722         1.75381 
        2.48507          9.8949         1.74328 
         2.4912         9.87072         1.73285 
