# k  (h/Mpc)    P(k)  (Mpc/h)^3    P_linear(k)  (Mpc/h)^3
     0.00783031         50.5212         50.9266 
       0.013688         64.6332         64.8633 
       0.019231          67.488         67.4994 
      0.0249154         64.0815         64.1843 
      0.0312784         57.3108         57.2605 
      0.0375637         50.0895         49.9625 
      0.0433917         44.2594         44.1674 
      0.0492413         39.8061         39.7016 
      0.0555754         36.2805         36.2233 
      0.0619321         33.7425         33.6471 
       0.067871         31.5874         31.5602 
      0.0738098         29.4324         29.4214 
      0.0800417         26.9541         26.9588 
      0.0862327         24.3699         24.3511 
      0.0921407         21.9337         21.9003 
      0.0982031         19.6589         19.6343 
       0.104506         17.7552         17.7004 
       0.110769         16.2933         16.2477 
       0.116806         15.2453         15.2296 
       0.122832         14.4937         14.4664 
       0.129052         13.8026         13.7973 
       0.135211         13.1236         13.1273 
       0.141259         12.4012         12.3929 
       0.147318         11.5963         11.5751 
       0.153489         10.7162         10.7026 
       0.159709         9.86889         9.85427 
       0.165845         9.14556         9.11138 
       0.171974         8.51195         8.49919 
       0.178125         8.03328         8.01861 
       0.184229         7.66919         7.65012 
        0.19034         7.35029         7.34923 
       0.196428         7.08194          7.0743 
       0.202534         6.81083         6.78955 
       0.208729         6.48442         6.47394 
       0.214876         6.13658         6.13563 
       0.220989         5.80973         5.78984 
       0.227147         5.45668         5.45363 
        0.23329         5.15349         5.14933 
       0.239377           4.895         4.88938 
       0.245482          4.6742         4.67143 
       0.251667         4.49757         4.48688 
       0.257832         4.33171         4.32678 
       0.263955         4.18519         4.17819 
       0.270079         4.03695         4.02932 
        0.27624         3.88782         3.87406 
       0.282372         3.72699         3.71401 
        0.28843         3.56098         3.55455 
       0.294538         3.40628          3.3986 
       0.300721         3.26436         3.25136 
        0.30691         3.12632         3.11846 
       0.313033         3.00982         3.00179 
       0.319153         2.89647         2.89825 
       0.325316         2.81552         2.80342 
        0.33145         2.72422         2.71461 
       0.337538         2.63688          2.6285 
       0.343633         2.54853         2.54258 
       0.349808         2.46315          2.4553 
       0.355968         2.37854         2.36904 
       0.362074         2.29353         2.28595 
       0.368217         2.21436         2.20639 
       0.374374         2.13509         2.13199 
       0.380519         2.07105         2.06328 
       0.386598         2.00931         2.00049 
       0.392688         1.95261         1.94175 
        0.39888         1.89357         1.88506 
       0.405048         1.83947         1.83064 
       0.411186         1.78732         1.77767 
       0.417313         1.73288         1.72573 
       0.423458          1.6846         1.67475 
       0.429607         1.63226         1.62514 
       0.435692         1.58492         1.57792 
       0.441815         1.53995         1.53266 
       0.447964         1.50019         1.48956 
       0.454126         1.45581         1.44868 
       0.460267         1.41608         1.41003 
       0.466387         1.37868         1.37319 
        0.47254         1.34365         1.33748 
       0.478662         1.31029         1.30304 
       0.484765         1.27547         1.26965 
       0.490885          1.2436         1.23702 
       0.497035         1.21486         1.20517 
       0.503198         1.18182         1.17432 
       0.509342           1.154         1.14472 
       0.515458          1.1235         1.11639 
       0.521598         1.09663         1.08908 
       0.527764         1.06851         1.06278 
       0.533884          1.0463         1.03765 
           0.54         1.02138         1.01339 
       0.546137        0.998607         0.98979 
       0.552299        0.974646        0.966789 
       0.558452        0.950924        0.944497 
       0.564573        0.930433        0.922958 
       0.570708        0.909649        0.902003 
       0.576825        0.888743        0.881756 
       0.582926        0.870656        0.862218 
       0.589034        0.848539        0.843312 
       0.595184        0.830754        0.824906 
       0.601379        0.813334        0.806963 
       0.607522        0.797297        0.789716 
       0.613639        0.781757        0.773045 
       0.619772        0.763236        0.756811 
       0.625918         0.74789        0.741005 
       0.632068        0.733473        0.725633 
       0.638161        0.717865        0.710824 
         0.6443         0.70331        0.696316 
       0.650464        0.688073        0.682163 
       0.656582        0.675145        0.668514 
       0.662703         0.66226        0.655252 
       0.668861        0.650331        0.642293 
       0.675024        0.636735         0.62969 
       0.681124        0.623179         0.61756 
       0.687237        0.612798        0.605728 
       0.693381        0.601523        0.594149 
       0.699536        0.588269        0.582848 
       0.705665        0.577608        0.571889 
       0.711789        0.568156        0.561223 
       0.717957        0.556623        0.550759 
        0.72409        0.547202        0.540625 
       0.730186        0.536671        0.530814 
       0.736317        0.528313        0.521199 
       0.742472        0.518497        0.511792 
       0.748622         0.50911        0.502629 
        0.75476        0.499245        0.493713 
       0.760888        0.490478        0.485029 
       0.767043        0.483972        0.476521 
       0.773185        0.474492        0.468236 
       0.779291        0.466226        0.460197 
       0.785407        0.458727        0.452337 
       0.791564        0.450998        0.444614 
       0.797719        0.443734        0.437077 
       0.803834        0.436515        0.429766 
       0.809972        0.428999        0.422598 
       0.816124          0.4218         0.41558 
       0.822261        0.414454        0.408743 
       0.828378        0.408411        0.402083 
       0.834502        0.402129        0.395566 
       0.840667        0.394956        0.389154 
       0.846816        0.388894        0.382903 
       0.852925        0.383605        0.376831 
       0.859047        0.377599        0.370878 
       0.865192        0.371051        0.365036 
       0.871341          0.3651        0.359317 
       0.877463        0.360544        0.353747 
       0.883569        0.354521        0.348311 
       0.889708        0.349139        0.342962 
       0.895864        0.343736        0.337713 
       0.902008        0.338553        0.332586 
       0.908149        0.333336         0.32757 
       0.914301        0.327664         0.32265 
       0.920448        0.323363        0.317837 
       0.926574        0.318459        0.313139 
       0.932687        0.313661        0.308548 
       0.938823         0.31012        0.304033 
       0.944975        0.305359        0.299599 
       0.951105        0.301135         0.29527 
       0.957225         0.29734        0.291035 
       0.963368        0.292773         0.28687 
       0.969511        0.288222        0.282787 
       0.975621        0.284232        0.278806 
       0.981748        0.281104        0.274892 
       0.987916        0.276968         0.27103 
        0.99406        0.272923        0.267257 
        1.00019        0.269588        0.263564 
        1.00632        0.265319        0.259945 
        1.01246        0.261587        0.256389 
        1.01859        0.258528        0.252907 
        1.02471        0.255074        0.249494 
        1.03085        0.252215        0.246132 
        1.03698        0.248409        0.242841 
        1.04314        0.245233        0.239596 
        1.04929        0.241838        0.236419 
        1.05541        0.239133        0.233312 
        1.06154        0.235673        0.230255 
        1.06769        0.232416        0.227248 
        1.07382        0.229681        0.224305 
        1.07993        0.226535        0.221421 
        1.08607        0.224372        0.218577 
        1.09222        0.221105         0.21578 
        1.09836        0.218819        0.213035 
        1.10449        0.216017        0.210342 
        1.11063        0.212883        0.207693 
        1.11677        0.210152        0.205091 
         1.1229        0.207905        0.202538 
        1.12903        0.205212        0.200027 
        1.13518        0.202961        0.197557 
        1.14131        0.200295         0.19513 
        1.14745         0.19743        0.192745 
        1.15359        0.195413        0.190401 
        1.15973        0.192764        0.188094 
        1.16584        0.190957        0.185837 
        1.17197        0.188664        0.183613 
        1.17811        0.186633        0.181419 
        1.18424        0.184756        0.179268 
        1.19038        0.182272        0.177146 
        1.19652         0.17971        0.175059 
        1.20267         0.17823        0.173006 
        1.20881        0.176162        0.170987 
        1.21495        0.174318        0.169004 
        1.22108        0.172054        0.167052 
         1.2272        0.170367        0.165136 
        1.23334        0.168311        0.163246 
        1.23949        0.166447        0.161382 
        1.24562        0.164602        0.159551 
        1.25174        0.162876        0.157753 
        1.25789        0.161373        0.155977 
        1.26402        0.159069        0.154231 
        1.27014        0.157588        0.152517 
        1.27628        0.155954        0.150824 
        1.28244        0.153945        0.149153 
        1.28858        0.152479         0.14751 
        1.29471        0.151161        0.145896 
        1.30084        0.149178        0.144308 
        1.30697        0.147699        0.142741 
        1.31312        0.145781        0.141195 
        1.31925        0.144411        0.139678 
        1.32537        0.143049        0.138184 
        1.33151        0.141622        0.136707 
        1.33765        0.140185        0.135252 
        1.34378        0.138613        0.133822 
        1.34992        0.137148        0.132411 
        1.35606        0.135763        0.131018 
         1.3622        0.134433        0.129647 
        1.36833        0.133034          0.1283 
        1.37445        0.131409        0.126972 
        1.38059         0.13025        0.125659 
        1.38675         0.12933        0.124362 
        1.39288        0.127893        0.123089 
        1.39901        0.126567        0.121834 
        1.40515        0.125521        0.120593 
         1.4113        0.123947        0.119371 
        1.41742        0.122788         0.11817 
        1.42355        0.121768        0.116984 
         1.4297        0.120464         0.11581 
        1.43585        0.119334        0.114653 
        1.44198        0.118269        0.113517 
        1.44809        0.117023        0.112398 
        1.45423        0.115978         0.11129 
        1.46036        0.114873        0.110199 
        1.46649        0.114002        0.109123 
        1.47263        0.112774         0.10806 
        1.47877        0.111445        0.107012 
        1.48491        0.110621        0.105976 
        1.49104        0.109406        0.104956 
        1.49718        0.108315        0.103949 
        1.50333        0.107611        0.102954 
        1.50947        0.106435        0.101974 
         1.5156        0.105478        0.101008 
        1.52172         0.10453        0.100054 
        1.52787        0.103585       0.0991117 
          1.534        0.102502       0.0981822 
        1.54013        0.101638       0.0972657 
        1.54627        0.100926       0.0963593 
        1.55241       0.0998142       0.0954643 
        1.55855       0.0988242       0.0945821 
        1.56467        0.098257       0.0937135 
         1.5708       0.0973029       0.0928534 
        1.57695       0.0963549       0.0920028 
        1.58308        0.095477        0.091165 
        1.58922        0.094721        0.090337 
        1.59535       0.0938626       0.0895197 
         1.6015       0.0929565       0.0887115 
        1.60764        0.092281       0.0879136 
        1.61376       0.0913579       0.0871279 
        1.61989       0.0906389       0.0863511 
        1.62604       0.0899418       0.0855822 
        1.63218       0.0891471       0.0848231 
        1.63831       0.0883438       0.0840751 
        1.64444       0.0876484       0.0833358 
        1.65059       0.0869414       0.0826037 
        1.65673       0.0862031       0.0818813 
        1.66285       0.0855877       0.0811695 
        1.66898       0.0848195       0.0804661 
        1.67512       0.0839815       0.0797696 
        1.68127       0.0832501       0.0790808 
         1.6874       0.0826642       0.0784017 
        1.69353       0.0818291        0.077731 
        1.69967       0.0814577       0.0770666 
        1.70581        0.080471       0.0764103 
        1.71193        0.079914       0.0757642 
        1.71806       0.0791928       0.0751242 
        1.72421       0.0788023       0.0744904 
        1.73035       0.0779844       0.0738646 
        1.73649       0.0774875       0.0732463 
        1.74262       0.0767871       0.0726355 
        1.74876       0.0761551       0.0720313 
        1.75489       0.0756942       0.0714353 
        1.76101       0.0749583       0.0708462 
        1.76715       0.0743336        0.070263 
        1.77329       0.0736865       0.0696857 
        1.77943       0.0732096       0.0691147 
        1.78557       0.0726892       0.0685509 
        1.79171        0.072105       0.0679934 
        1.79785       0.0715497       0.0674419 
        1.80399       0.0709593       0.0668968 
        1.81012       0.0704573       0.0663584 
        1.81625       0.0698682       0.0658262 
        1.82239       0.0693018       0.0652991 
        1.82853       0.0687986        0.064778 
        1.83466       0.0682874       0.0642632 
        1.84078       0.0677736       0.0637545 
        1.84692       0.0671943       0.0632506 
        1.85306       0.0667714       0.0627515 
         1.8592       0.0661585       0.0622586 
        1.86533       0.0657639       0.0617713 
        1.87147       0.0652246       0.0612886 
        1.87761       0.0648803        0.060811 
        1.88375       0.0643818        0.060339 
        1.88988       0.0637842       0.0598726 
        1.89601       0.0633433       0.0594108 
        1.90215       0.0628772       0.0589536 
        1.90829       0.0623725       0.0585015 
        1.91442        0.062057       0.0580541 
        1.92056       0.0614987       0.0576117 
         1.9267       0.0610224       0.0571736 
        1.93284       0.0606235       0.0567397 
        1.93897       0.0601766       0.0563112 
        1.94509       0.0598121       0.0558881 
        1.95123       0.0593209       0.0554683 
        1.95737       0.0589297       0.0550525 
        1.96349        0.058476        0.054642 
        1.96964       0.0580852       0.0542346 
        1.97578       0.0576472       0.0538311 
        1.98192        0.057308       0.0534326 
        1.98805       0.0568617       0.0530382 
        1.99419       0.0564134       0.0526476 
        2.00033       0.0560298       0.0522609 
        2.00647       0.0557929       0.0518781 
         2.0126        0.055247       0.0514999 
        2.01874       0.0549918       0.0511249 
        2.02488        0.054584       0.0507533 
        2.03101       0.0542221       0.0503861 
        2.03714       0.0537132       0.0500228 
        2.04328       0.0535286       0.0496628 
        2.04941       0.0530095       0.0493066 
        2.05554       0.0527697       0.0489542 
        2.06167       0.0524351       0.0486048 
        2.06781       0.0520118       0.0482587 
        2.07396       0.0516908       0.0479155 
        2.08009        0.051344       0.0475763 
        2.08622       0.0510284       0.0472408 
        2.09237       0.0506683       0.0469078 
        2.09851       0.0503169        0.046578 
        2.10464       0.0500628        0.046252 
        2.11077       0.0496586       0.0459294 
        2.11691       0.0493175       0.0456093 
        2.12305       0.0490089       0.0452922 
        2.12918       0.0487484       0.0449788 
        2.13531       0.0483592       0.0446685 
        2.14145       0.0480246       0.0443603 
         2.1476        0.047722       0.0440548 
        2.15372       0.0475027       0.0437536 
        2.15985       0.0471094        0.043455 
        2.16599       0.0468021       0.0431583 
        2.17213       0.0465196       0.0428647 
        2.17827       0.0462157        0.042574 
         2.1844       0.0459938       0.0422862 
        2.19054       0.0456677       0.0420009 
        2.19666       0.0453462       0.0417188 
         2.2028       0.0450375       0.0414389 
        2.20893       0.0448286       0.0411615 
        2.21508       0.0445362       0.0408864 
        2.22122       0.0442195       0.0406137 
        2.22736       0.0439915        0.040344 
        2.23349        0.043711       0.0400769 
        2.23962       0.0435129       0.0398121 
        2.24577       0.0431828       0.0395494 
         2.2519       0.0429226       0.0392895 
        2.25802       0.0426515       0.0390323 
        2.26417       0.0423957       0.0387767 
        2.27031       0.0420888       0.0385232 
        2.27644        0.041824       0.0382727 
        2.28257        0.041637       0.0380245 
        2.28872       0.0413893        0.037778 
        2.29486       0.0411756       0.0375337 
        2.30099       0.0408953       0.0372921 
        2.30712       0.0405585       0.0370526 
        2.31326       0.0403602       0.0368147 
         2.3194       0.0401873       0.0365791 
        2.32553       0.0399033       0.0363459 
        2.33166       0.0397354       0.0361149 
         2.3378       0.0394782       0.0358856 
        2.34394       0.0392113       0.0356582 
        2.35007       0.0389559       0.0354332 
        2.35619       0.0386666       0.0352103 
        2.36233       0.0385573       0.0349888 
        2.36848       0.0383749       0.0347688 
        2.37462       0.0380798       0.0345512 
        2.38075       0.0378657       0.0343356 
        2.38689       0.0376637       0.0341217 
        2.39303        0.037462       0.0339097 
        2.39916       0.0372332       0.0336997 
        2.40529       0.0370472       0.0334915 
        2.41143       0.0367853       0.0332849 
        2.41757       0.0365869       0.0330799 
         2.4237       0.0364428       0.0328771 
        2.42983        0.036246        0.032676 
        2.43598       0.0360595        0.032476 
        2.44211       0.0357871       0.0322781 
        2.44823       0.0356052       0.0320823 
        2.45437       0.0354005       0.0318875 
        2.46052       0.0352183       0.0316942 
        2.46665       0.0349713       0.0315029 
        2.47279       0.0347724       0.0313132 
        2.47892       0.0345679        0.031125 
        2.48507       0.0343817       0.0309381 
         2.4912       0.0342266       0.0307531 
