# k  (h/Mpc)    Pcb(k)  (Mpc/h)^3    Pcb_linear(k)  (Mpc/h)^3
     0.00783031         5165.99         5224.44 
       0.013688         6560.37         6535.69 
       0.019231         6724.58         6716.16 
      0.0249154         6224.11         6298.78 
      0.0312784         5493.56         5520.25 
      0.0375637         4734.55         4725.97 
      0.0433917         4076.15         4108.65 
      0.0492413          3638.7         3644.27 
      0.0555754         3249.02         3296.21 
      0.0619321         3070.06         3053.35 
       0.067871         2831.89         2866.87 
      0.0738098          2641.9         2677.74 
      0.0800417         2404.89         2454.58 
      0.0862327         2182.94         2210.18 
      0.0921407         1967.93            1974 
      0.0982031         1739.54          1751.5 
       0.104506         1583.15          1560.1 
       0.110769         1439.95          1417.6 
       0.116806         1333.89         1321.33 
       0.122832         1273.48         1254.33 
       0.129052         1200.84         1200.65 
       0.135211         1148.91         1148.77 
       0.141259         1100.68         1089.79 
       0.147318         1037.31         1019.97 
       0.153489         952.505         941.137 
       0.159709         884.198         861.037 
       0.165845         828.047         788.914 
       0.171974         764.403         728.958 
       0.178125         721.571         682.714 
       0.184229         689.934         649.183 
        0.19034         648.867         624.262 
       0.196428         638.305         603.422 
       0.202534         621.503         582.269 
       0.208729           591.9         557.694 
       0.214876         559.651         529.439 
       0.220989         538.669         498.651 
       0.227147          504.37         467.248 
        0.23329         479.029         438.015 
       0.239377         462.177         412.915 
       0.245482         431.223         392.353 
       0.251667         424.223         375.925 
       0.257832         410.149         362.795 
       0.263955         396.799         351.423 
       0.270079         383.561         340.265 
        0.27624          377.42         328.222 
       0.282372         362.307         315.067 
        0.28843         348.955          301.18 
       0.294538         332.937         286.951 
       0.300721         327.319         273.157 
        0.30691         311.315         260.633 
       0.313033         303.002          249.89 
       0.319153         290.602         240.754 
       0.325316         283.888          232.88 
        0.33145         274.755         225.856 
       0.337538         270.671         219.205 
       0.343633         261.835         212.463 
       0.349808          253.79         205.368 
       0.355968         249.001         198.033 
       0.362074         241.938         190.691 
       0.368217         235.102         183.499 
       0.374374         227.392         176.713 
       0.380519         222.827          170.54 
       0.386598         216.982          165.05 
       0.392688         213.767         160.103 
        0.39888          208.15           155.5 
       0.405048         203.504         151.156 
       0.411186         198.952         146.931 
       0.417313         194.533         142.717 
       0.423458         190.413         138.453 
       0.429607         185.738         134.205 
       0.435692         180.029         130.082 
       0.441815         178.573         126.089 
       0.447964         175.366         122.309 
       0.454126           167.8         118.785 
       0.460267         165.861         115.514 
       0.466387         163.364         112.466 
        0.47254         160.148         109.563 
       0.478662         158.425         106.772 
       0.484765         153.938         104.043 
       0.490885         151.402         101.349 
       0.497035         149.369         98.6815 
       0.503198         145.323         96.0575 
       0.509342         142.789         93.5163 
       0.515458         140.771         91.0896 
       0.521598         138.798         88.7694 
       0.527764         136.636         86.5528 
       0.533884         134.344         84.4574 
           0.54         132.038         82.4584 
       0.546137         130.861         80.5282 
       0.552299         128.739         78.6463 
       0.558452         125.973         76.8093 
       0.564573          123.71         75.0195 
       0.570708         122.094         73.2694 
       0.576825         120.324         71.5726 
       0.582926         118.122         69.9318 
       0.589034         116.061          68.343 
       0.595184         114.747         66.8006 
       0.601379         113.447         65.3077 
       0.607522         110.672         63.8837 
       0.613639         110.456         62.5147 
       0.619772         107.919         61.1833 
       0.625918         106.887         59.8834 
       0.632068         105.612         58.6144 
       0.638161         104.382         57.3884 
         0.6443         102.962         56.1861 
       0.650464         101.651         55.0131 
       0.656582         100.371         53.8829 
       0.662703         98.5193         52.7855 
       0.668861         97.4576          51.714 
       0.675024         96.3169         50.6731 
       0.681124          95.163         49.6733 
       0.687237         93.4727         48.7001 
       0.693381         92.5139         47.7496 
       0.699536         91.3313         46.8232 
       0.705665         91.7383          45.925 
       0.711789          89.196         45.0503 
       0.717957         88.6893          44.191 
        0.72409          87.418         43.3577 
       0.730186         85.9596         42.5505 
       0.736317         85.7762         41.7593 
       0.742472         84.7008         40.9857 
       0.748622         83.9446         40.2333 
        0.75476         83.0065         39.5024 
       0.760888         81.8147         38.7916 
       0.767043         81.0493          38.096 
       0.773185         80.0946         37.4193 
       0.779291         79.5198         36.7629 
       0.785407         78.8295         36.1213 
       0.791564         77.7762         35.4905 
       0.797719         76.6796         34.8749 
       0.803834         76.3884         34.2776 
       0.809972         75.0741          33.692 
       0.816124         74.5203         33.1188 
       0.822261         73.9629         32.5605 
       0.828378         73.3329         32.0169 
       0.834502         72.5772         31.4854 
       0.840667         71.9138         30.9628 
       0.846816         71.0126         30.4536 
       0.852925         70.3926         29.9593 
       0.859047         69.4801          29.475 
       0.865192         69.1691         28.9999 
       0.871341         68.7332         28.5351 
       0.877463         67.5263         28.0826 
       0.883569         67.1201          27.641 
       0.889708         66.7582         27.2067 
       0.895864         66.1351         26.7807 
       0.902008         65.5496         26.3647 
       0.908149         65.0771         25.9578 
       0.914301         64.4862         25.5589 
       0.920448         63.8918         25.1688 
       0.926574         63.3598         24.7882 
       0.932687         62.9456         24.4163 
       0.938823         61.9679         24.0507 
       0.944975         61.8189         23.6918 
       0.951105         61.1956         23.3416 
       0.957225         60.4424          22.999 
       0.963368         60.3512         22.6622 
       0.969511         59.9033         22.3322 
       0.975621         59.4268         22.0106 
       0.981748         58.7631         21.6944 
       0.987916         58.4134         21.3826 
        0.99406         58.0742          21.078 
        1.00019         57.3295           20.78 
        1.00632         57.1035         20.4881 
        1.01246          56.586         20.2013 
        1.01859         55.8931         19.9205 
        1.02471         56.0344         19.6454 
        1.03085         55.3886         19.3746 
        1.03698         54.8673         19.1095 
        1.04314         54.3416         18.8482 
        1.04929         54.1056         18.5924 
        1.05541         53.5379         18.3425 
        1.06154         53.4596         18.0965 
        1.06769          52.946         17.8547 
        1.07382         52.6473         17.6181 
        1.07993         52.4257         17.3863 
        1.08607         51.8481         17.1577 
        1.09222         51.6373         16.9331 
        1.09836         51.2305         16.7127 
        1.10449         50.8529         16.4965 
        1.11063         50.2902          16.284 
        1.11677         50.0382         16.0752 
         1.1229         49.8514         15.8705 
        1.12903         49.1427         15.6692 
        1.13518         49.2051         15.4712 
        1.14131         48.9811         15.2768 
        1.14745          48.322         15.0858 
        1.15359         48.2475          14.898 
        1.15973         47.7072         14.7134 
        1.16584         47.4001         14.5328 
        1.17197         47.2378         14.3549 
        1.17811         46.8944         14.1795 
        1.18424         46.4311         14.0075 
        1.19038         46.3686         13.8379 
        1.19652         46.1042         13.6711 
        1.20267         45.7471         13.5071 
        1.20881         45.4063         13.3459 
        1.21495         45.0816         13.1875 
        1.22108         44.8247         13.0317 
         1.2272         44.3559         12.8788 
        1.23334         44.2405         12.7281 
        1.23949         44.1145         12.5794 
        1.24562         43.7822         12.4334 
        1.25174         43.5746           12.29 
        1.25789         43.2931         12.1485 
        1.26402         42.9671         12.0094 
        1.27014         42.5967         11.8729 
        1.27628         42.4659          11.738 
        1.28244         42.1308          11.605 
        1.28858         41.9897         11.4743 
        1.29471         41.8211         11.3458 
        1.30084         41.5559         11.2195 
        1.30697         41.2063         11.0949 
        1.31312          40.888         10.9719 
        1.31925         40.7947         10.8513 
        1.32537         40.5838         10.7326 
        1.33151         40.2793         10.6152 
        1.33765          40.226         10.4996 
        1.34378         39.9723          10.386 
        1.34992         39.4713          10.274 
        1.35606         39.3159         10.1635 
         1.3622         39.1074         10.0547 
        1.36833         38.9199          9.9478 
        1.37445         38.8852         9.84251 
        1.38059         38.6356         9.73842 
        1.38675         38.2859         9.63559 
        1.39288          38.185         9.53465 
        1.39901         37.8484         9.43521 
        1.40515         37.7006         9.33696 
         1.4113         37.5924         9.24015 
        1.41742         37.1955         9.14509 
        1.42355         37.1263         9.05118 
         1.4297         36.8618         8.95832 
        1.43585          36.812         8.86679 
        1.44198         36.4911         8.77689 
        1.44809         36.3279         8.68841 
        1.45423         36.2023         8.60083 
        1.46036         36.0454         8.51461 
        1.46649         35.7722         8.42954 
        1.47263         35.6133         8.34557 
        1.47877         35.4874         8.26278 
        1.48491         35.2904         8.18099 
        1.49104         35.1152         8.10047 
        1.49718         34.7883         8.02098 
        1.50333          34.739         7.94242 
        1.50947         34.5538         7.86508 
         1.5156         34.3423         7.78889 
        1.52172         34.1194          7.7137 
        1.52787          34.147         7.63935 
          1.534         33.8284         7.56607 
        1.54013         33.6178         7.49383 
        1.54627          33.567          7.4224 
        1.55241         33.3481         7.35189 
        1.55855         33.1659         7.28239 
        1.56467         32.9503         7.21399 
         1.5708         32.9044         7.14626 
        1.57695         32.5883         7.07931 
        1.58308         32.6376         7.01337 
        1.58922         32.4343         6.94822 
        1.59535         32.2072         6.88393 
         1.6015          32.046         6.82036 
        1.60764         31.9629         6.75762 
        1.61376         31.7481         6.69584 
        1.61989          31.498         6.63479 
        1.62604         31.4818         6.57436 
        1.63218           31.26         6.51472 
        1.63831         31.1624         6.45596 
        1.64444         31.0251          6.3979 
        1.65059         30.7743         6.34042 
        1.65673         30.6736         6.28371 
        1.66285         30.5514         6.22785 
        1.66898         30.3913         6.17264 
        1.67512         30.3039         6.11801 
        1.68127         30.0567         6.06398 
         1.6874         29.9751         6.01072 
        1.69353         29.8517         5.95814 
        1.69967         29.6748         5.90606 
        1.70581         29.5678         5.85463 
        1.71193         29.4149           5.804 
        1.71806           29.27         5.75386 
        1.72421         29.0967         5.70422 
        1.73035         28.9917         5.65522 
        1.73649         28.8813          5.6068 
        1.74262          28.709         5.55899 
        1.74876         28.6839          5.5117 
        1.75489         28.4709         5.46506 
        1.76101         28.3498         5.41897 
        1.76715         28.2294         5.37335 
        1.77329         28.1377          5.3282 
        1.77943         27.9933         5.28354 
        1.78557         27.8508         5.23947 
        1.79171         27.7363         5.19589 
        1.79785         27.5932         5.15279 
        1.80399         27.4704         5.11019 
        1.81012         27.4168         5.06813 
        1.81625         27.2599         5.02656 
        1.82239          27.207          4.9854 
        1.82853          26.953         4.94472 
        1.83466         26.8438         4.90453 
        1.84078          26.668         4.86482 
        1.84692         26.6501          4.8255 
        1.85306         26.4932         4.78656 
         1.8592         26.3682         4.74811 
        1.86533         26.2376          4.7101 
        1.87147         26.1404         4.67247 
        1.87761          26.119         4.63523 
        1.88375         25.9563         4.59843 
        1.88988         25.8791         4.56208 
        1.89601          25.683          4.5261 
        1.90215         25.6338         4.49048 
        1.90829         25.5566         4.45526 
        1.91442         25.3787         4.42041 
        1.92056         25.3129         4.38597 
         1.9267         25.1734         4.35186 
        1.93284         25.0444         4.31809 
        1.93897          24.985         4.28474 
        1.94509         24.8652         4.25182 
        1.95123         24.7164         4.21916 
        1.95737         24.6404         4.18682 
        1.96349         24.5306          4.1549 
        1.96964            24.4         4.12322 
        1.97578         24.3675         4.09185 
        1.98192         24.1808         4.06088 
        1.98805         24.1471         4.03022 
        1.99419         24.0107         3.99988 
        2.00033         23.8642         3.96983 
        2.00647         23.7862          3.9401 
         2.0126         23.6576         3.91072 
        2.01874         23.6021          3.8816 
        2.02488         23.5806         3.85275 
        2.03101         23.4284         3.82425 
        2.03714         23.3062         3.79606 
        2.04328         23.1999         3.76812 
        2.04941         23.1166         3.74048 
        2.05554         23.0518         3.71314 
        2.06167         22.9517         3.68604 
        2.06781          22.856          3.6592 
        2.07396         22.7624         3.63259 
        2.08009         22.6997         3.60629 
        2.08622          22.571         3.58028 
        2.09237         22.4872         3.55448 
        2.09851         22.3717         3.52893 
        2.10464         22.3224         3.50367 
        2.11077         22.1511         3.47868 
        2.11691         22.1496         3.45389 
        2.12305         22.0141         3.42933 
        2.12918         21.9596         3.40507 
        2.13531          21.866         3.38105 
        2.14145         21.7793          3.3572 
         2.1476         21.6514         3.33355 
        2.15372         21.5851         3.31025 
        2.15985         21.4678         3.28715 
        2.16599         21.4146          3.2642 
        2.17213         21.3501         3.24149 
        2.17827         21.2078         3.21901 
         2.1844         21.1155         3.19676 
        2.19054         21.0531         3.17471 
        2.19666         20.9918          3.1529 
         2.2028         20.9316         3.13127 
        2.20893         20.7933         3.10984 
        2.21508         20.7259         3.08858 
        2.22122         20.5932         3.06752 
        2.22736          20.572         3.04669 
        2.23349         20.4714         3.02606 
        2.23962          20.388         3.00562 
        2.24577         20.2738         2.98534 
         2.2519         20.2338         2.96528 
        2.25802          20.175         2.94543 
        2.26417         20.0843         2.92571 
        2.27031         20.0071         2.90615 
        2.27644         19.9366         2.88683 
        2.28257         19.8405         2.86769 
        2.28872         19.7299         2.84868 
        2.29486         19.6785         2.82984 
        2.30099         19.5877         2.81122 
        2.30712         19.5787         2.79275 
        2.31326         19.4675         2.77442 
         2.3194         19.3715         2.75627 
        2.32553         19.2956          2.7383 
        2.33166          19.196         2.72051 
         2.3378         19.1225         2.70285 
        2.34394         19.0731         2.68533 
        2.35007         18.9889           2.668 
        2.35619         18.8695         2.65084 
        2.36233         18.8419         2.63379 
        2.36848          18.753         2.61686 
        2.37462         18.7119         2.60011 
        2.38075         18.6262         2.58352 
        2.38689         18.5878         2.56706 
        2.39303         18.4693         2.55075 
        2.39916         18.4103          2.5346 
        2.40529         18.3278         2.51859 
        2.41143         18.2838          2.5027 
        2.41757         18.2063         2.48695 
         2.4237         18.1179         2.47136 
        2.42983         18.0664          2.4559 
        2.43598         17.9937         2.44054 
        2.44211         17.9038         2.42533 
        2.44823         17.8274         2.41028 
        2.45437         17.7882         2.39532 
        2.46052         17.7201         2.38048 
        2.46665         17.6735         2.36578 
        2.47279         17.5852         2.35122 
        2.47892         17.5308         2.33677 
        2.48507         17.4595         2.32242 
         2.4912         17.3919         2.30823 
