# k  (h/Mpc)    P(k)  (Mpc/h)^3    P_linear(k)  (Mpc/h)^3
     0.00783031         10009.6         10165.8 
       0.013688         12766.8         12699.3 
       0.019231         13046.1         13041.8 
      0.0249154         12005.3         12226.8 
      0.0312784         10609.9         10712.9 
      0.0375637         9164.57         9170.01 
      0.0433917         7853.05         7971.36 
      0.0492413          7029.3         7069.87 
      0.0555754         6236.25         6394.24 
      0.0619321         5937.41         5922.85 
       0.067871         5435.77         5560.92 
      0.0738098         5071.42         5193.92 
      0.0800417         4601.35         4760.95 
      0.0862327         4190.12         4286.82 
      0.0921407         3800.01         3828.67 
      0.0982031         3361.06         3397.09 
       0.104506         3087.08         3025.83 
       0.110769         2812.29         2749.41 
       0.116806         2613.25         2562.69 
       0.122832         2490.62         2432.71 
       0.129052         2334.26         2328.58 
       0.135211         2234.79         2227.96 
       0.141259         2148.71         2113.56 
       0.147318         2029.46         1978.14 
       0.153489         1862.15         1825.25 
       0.159709         1744.09         1669.89 
       0.165845         1649.52         1530.01 
       0.171974         1535.45         1413.73 
       0.178125         1451.62         1324.04 
       0.184229         1387.88         1259.01 
        0.19034         1305.13         1210.68 
       0.196428         1286.71         1170.26 
       0.202534         1248.48         1129.23 
       0.208729         1191.85         1081.57 
       0.214876         1134.37         1026.77 
       0.220989         1095.32         967.062 
       0.227147         1036.85         906.158 
        0.23329         990.188         849.465 
       0.239377         965.671         800.786 
       0.245482          900.55         760.904 
       0.251667          892.39         729.045 
       0.257832         859.645         703.584 
       0.263955         832.947         681.529 
       0.270079         804.341         659.893 
        0.27624         795.909         636.534 
       0.282372         762.565          611.02 
        0.28843          746.82          584.09 
       0.294538         709.323         556.493 
       0.300721         704.637         529.743 
        0.30691         672.279         505.454 
       0.313033         658.632         484.619 
       0.319153         640.138         466.897 
       0.325316         620.915          451.63 
        0.33145         604.264         438.009 
       0.337538          596.06         425.109 
       0.343633         578.086         412.035 
       0.349808         558.906         398.278 
       0.355968         554.261          384.05 
       0.362074         544.336         369.811 
       0.368217         528.973         355.863 
       0.374374         507.371         342.701 
       0.380519         504.082         330.734 
       0.386598         491.482         320.085 
       0.392688         488.774         310.492 
        0.39888         474.465         301.564 
       0.405048         465.282         293.139 
       0.411186          456.93         284.945 
       0.417313         448.406         276.773 
       0.423458          440.31         268.506 
       0.429607         431.884         260.266 
       0.435692         421.757         252.271 
       0.441815          418.44         244.526 
       0.447964         409.713         237.196 
       0.454126         398.516         230.361 
       0.460267         392.537         224.017 
       0.466387         388.112         218.107 
        0.47254         380.403         212.477 
       0.478662         379.244         207.065 
       0.484765         367.183         201.773 
       0.490885         363.422         196.548 
       0.497035         356.938         191.375 
       0.503198         350.992         186.285 
       0.509342         348.208         181.358 
       0.515458         344.236         176.651 
       0.521598         337.069         172.152 
       0.527764         331.265         167.853 
       0.533884         328.722         163.789 
           0.54         324.161         159.913 
       0.546137         322.757         156.169 
       0.552299         316.082          152.52 
       0.558452         313.767         148.957 
       0.564573         308.866         145.486 
       0.570708         303.465         142.092 
       0.576825         298.433         138.802 
       0.582926         295.964         135.619 
       0.589034         293.052         132.538 
       0.595184          290.14         129.547 
       0.601379         286.869         126.652 
       0.607522         281.915          123.89 
       0.613639         280.563         121.235 
       0.619772         274.095         118.653 
       0.625918         272.914         116.133 
       0.632068         268.876         113.671 
       0.638161         267.759         111.294 
         0.6443         263.243         108.962 
       0.650464         260.753         106.687 
       0.656582         259.183         104.496 
       0.662703         257.213         102.367 
       0.668861         252.642         100.289 
       0.675024         249.842         98.2708 
       0.681124         248.813         96.3318 
       0.687237         245.649         94.4446 
       0.693381         242.009         92.6012 
       0.699536         240.028         90.8046 
       0.705665         238.611         89.0628 
       0.711789         235.713         87.3665 
       0.717957         234.471         85.6999 
        0.72409         231.788          84.084 
       0.730186         229.078         82.5185 
       0.736317          226.73         80.9841 
       0.742472         225.622         79.4839 
       0.748622         223.751         78.0247 
        0.75476         221.897         76.6072 
       0.760888         218.885         75.2287 
       0.767043         218.685         73.8798 
       0.773185         215.983         72.5675 
       0.779291         212.191         71.2946 
       0.785407          211.71         70.0502 
       0.791564         209.573         68.8271 
       0.797719         207.122         67.6331 
       0.803834         205.985         66.4748 
       0.809972         204.449         65.3391 
       0.816124         204.374         64.2275 
       0.822261         201.364         63.1448 
       0.828378           199.7         62.0906 
       0.834502           199.4         61.0599 
       0.840667         196.255         60.0463 
       0.846816          194.97         59.0589 
       0.852925         194.061         58.1002 
       0.859047         192.099          57.161 
       0.865192         190.452         56.2397 
       0.871341         188.715         55.3382 
       0.877463         187.449         54.4607 
       0.883569         186.497         53.6044 
       0.889708          184.79         52.7622 
       0.895864         182.549          51.936 
       0.902008         181.908         51.1292 
       0.908149          181.17         50.3402 
       0.914301         178.998         49.5665 
       0.920448         177.682         48.8099 
       0.926574         176.765         48.0718 
       0.932687         176.317         47.3506 
       0.938823         174.074         46.6417 
       0.944975         172.553         45.9457 
       0.951105         171.889         45.2664 
       0.957225         170.068         44.6022 
       0.963368         168.245          43.949 
       0.969511         167.725          43.309 
       0.975621          166.63         42.6852 
       0.981748         166.218         42.0721 
       0.987916         164.246         41.4673 
        0.99406         163.033         40.8767 
        1.00019         162.831         40.2988 
        1.00632         161.232         39.7326 
        1.01246         160.219         39.1765 
        1.01859         159.281         38.6319 
        1.02471         157.931         38.0985 
        1.03085         156.353         37.5733 
        1.03698         155.654         37.0591 
        1.04314         154.403         36.5524 
        1.04929         153.288         36.0564 
        1.05541          152.84         35.5716 
        1.06154         151.662         35.0946 
        1.06769         151.541         34.6256 
        1.07382         150.218         34.1668 
        1.07993         148.909         33.7173 
        1.08607          148.03         33.2741 
        1.09222         147.413         32.8384 
        1.09836         146.108          32.411 
        1.10449         144.865         31.9918 
        1.11063         143.836         31.5796 
        1.11677          143.55         31.1747 
         1.1229         142.093         30.7777 
        1.12903         141.406         30.3873 
        1.13518          141.16         30.0034 
        1.14131         139.642         29.6263 
        1.14745         139.146         29.2559 
        1.15359         138.119         28.8918 
        1.15973         137.699         28.5338 
        1.16584         136.233         28.1834 
        1.17197         135.672         27.8385 
        1.17811         134.879         27.4983 
        1.18424          134.19         27.1647 
        1.19038         133.753         26.8358 
        1.19652         132.724         26.5124 
        1.20267         131.912         26.1944 
        1.20881         130.827         25.8817 
        1.21495         130.295         25.5746 
        1.22108          129.64         25.2725 
         1.2272         128.487          24.976 
        1.23334         127.931         24.6836 
        1.23949         126.761         24.3952 
        1.24562         126.322         24.1122 
        1.25174         125.081         23.8341 
        1.25789         124.665         23.5596 
        1.26402         124.034         23.2899 
        1.27014         123.231         23.0251 
        1.27628         122.626         22.7636 
        1.28244         122.046         22.5057 
        1.28858         121.534         22.2521 
        1.29471         120.199          22.003 
        1.30084         119.827          21.758 
        1.30697         119.066         21.5163 
        1.31312         118.715         21.2779 
        1.31925         117.616         21.0439 
        1.32537         117.171         20.8137 
        1.33151         116.029         20.5861 
        1.33765         115.724          20.362 
        1.34378         114.957         20.1417 
        1.34992         114.761         19.9245 
        1.35606         113.947           19.71 
         1.3622         113.039         19.4991 
        1.36833         112.539         19.2918 
        1.37445         111.794         19.0876 
        1.38059         111.377         18.8857 
        1.38675         110.518         18.6863 
        1.39288         110.132         18.4906 
        1.39901         109.706         18.2977 
        1.40515         108.914         18.1072 
         1.4113         107.991         17.9195 
        1.41742         107.834         17.7351 
        1.42355         106.991          17.553 
         1.4297         106.433         17.3729 
        1.43585         105.596         17.1954 
        1.44198         105.388         17.0211 
        1.44809         104.603         16.8495 
        1.45423         103.916         16.6796 
        1.46036         103.717         16.5124 
        1.46649         102.993         16.3474 
        1.47263         102.431         16.1846 
        1.47877          102.09          16.024 
        1.48491         101.132         15.8654 
        1.49104          100.86         15.7093 
        1.49718         100.063         15.5551 
        1.50333         99.6425         15.4028 
        1.50947         99.1518         15.2528 
         1.5156         98.5876          15.105 
        1.52172         97.9665         14.9592 
        1.52787          97.646          14.815 
          1.534         97.0032         14.6729 
        1.54013         96.3692         14.5328 
        1.54627         96.0058         14.3943 
        1.55241         95.3811         14.2575 
        1.55855         95.0495         14.1228 
        1.56467         94.5508         13.9901 
         1.5708          93.884         13.8588 
        1.57695          93.738         13.7289 
        1.58308         92.7585          13.601 
        1.58922         92.7019         13.4747 
        1.59535         92.1378           13.35 
         1.6015         91.5667         13.2267 
        1.60764         91.0795         13.1051 
        1.61376         90.8257         12.9853 
        1.61989         90.1649         12.8669 
        1.62604         89.8447         12.7497 
        1.63218         89.3724          12.634 
        1.63831         88.6301         12.5201 
        1.64444         88.3437         12.4075 
        1.65059          87.778          12.296 
        1.65673         87.1293          12.186 
        1.66285         86.9708         12.0777 
        1.66898         86.3687         11.9706 
        1.67512         85.9276         11.8647 
        1.68127         85.4998         11.7599 
         1.6874         85.0611         11.6566 
        1.69353         84.5848         11.5546 
        1.69967         84.0632         11.4536 
        1.70581         83.8534         11.3539 
        1.71193         83.5354         11.2557 
        1.71806         82.8252         11.1585 
        1.72421         82.4703         11.0622 
        1.73035         82.0296         10.9672 
        1.73649         81.6014         10.8733 
        1.74262         81.1981         10.7806 
        1.74876         80.8488         10.6888 
        1.75489          80.185         10.5984 
        1.76101         79.9891          10.509 
        1.76715          79.472         10.4205 
        1.77329         79.1716          10.333 
        1.77943         78.5983         10.2464 
        1.78557         78.4237         10.1609 
        1.79171         77.8493         10.0764 
        1.79785         77.5256         9.99281 
        1.80399         77.1963         9.91021 
        1.81012         76.8769         9.82864 
        1.81625          76.315         9.74803 
        1.82239         76.0152          9.6682 
        1.82853         75.7467          9.5893 
        1.83466         75.2268         9.51136 
        1.84078         74.9969         9.43436 
        1.84692          74.383          9.3581 
        1.85306         74.0298         9.28258 
         1.8592         73.5924         9.20801 
        1.86533         73.3222         9.13431 
        1.87147         72.7856         9.06132 
        1.87761         72.5566          8.9891 
        1.88375         72.1928         8.91775 
        1.88988         71.8781         8.84725 
        1.89601         71.4176         8.77748 
        1.90215         71.1041          8.7084 
        1.90829         70.8513         8.64009 
        1.91442         70.4049         8.57251 
        1.92056         69.8529         8.50572 
         1.9267         69.7379         8.43957 
        1.93284         69.2267         8.37408 
        1.93897         68.8401         8.30941 
        1.94509         68.5505         8.24556 
        1.95123           68.21         8.18222 
        1.95737         68.0201          8.1195 
        1.96349          67.459         8.05759 
        1.96964         67.2255         7.99616 
        1.97578         66.9785         7.93533 
        1.98192         66.5492         7.87526 
        1.98805          66.349         7.81581 
        1.99419         65.8192         7.75696 
        2.00033         65.5548          7.6987 
        2.00647         65.3105         7.64104 
         2.0126         64.7948         7.58407 
        2.01874         64.5063          7.5276 
        2.02488         64.3084         7.47164 
        2.03101         64.0119         7.41636 
        2.03714         63.5728         7.36169 
        2.04328          63.384         7.30751 
        2.04941         62.9767         7.25392 
        2.05554         62.6828          7.2009 
        2.06167         62.3621         7.14834 
        2.06781         62.0771         7.09629 
        2.07396         61.7305         7.04469 
        2.08009         61.4987         6.99369 
        2.08622         61.2179         6.94325 
        2.09237         60.8201         6.89321 
        2.09851         60.6573         6.84365 
        2.10464         60.2431         6.79466 
        2.11077         59.8687         6.74621 
        2.11691         59.6399         6.69813 
        2.12305         59.3815         6.65051 
        2.12918         59.0846         6.60346 
        2.13531         58.7274         6.55687 
        2.14145         58.4545         6.51062 
         2.1476         58.2486         6.46476 
        2.15372         57.9318         6.41957 
        2.15985         57.5962         6.37477 
        2.16599         57.3248         6.33026 
        2.17213         57.0891         6.28623 
        2.17827         56.7736         6.24263 
         2.1844         56.4296         6.19948 
        2.19054         56.1415         6.15672 
        2.19666         55.9059         6.11442 
         2.2028            55.8         6.07248 
        2.20893          55.479         6.03092 
        2.21508         55.1358         5.98969 
        2.22122         54.9282         5.94884 
        2.22736         54.6748         5.90845 
        2.23349         54.4037         5.86845 
        2.23962          54.031         5.82879 
        2.24577         53.7355         5.78947 
         2.2519          53.463         5.75056 
        2.25802         53.3487         5.71208 
        2.26417         52.9821         5.67383 
        2.27031         52.7977          5.6359 
        2.27644         52.5314         5.59843 
        2.28257         52.2299          5.5613 
        2.28872         51.9692         5.52444 
        2.29486           51.78         5.48792 
        2.30099         51.5376          5.4518 
        2.30712         51.2986         5.41599 
        2.31326         50.9438         5.38044 
         2.3194         50.7459         5.34523 
        2.32553         50.4387         5.31039 
        2.33166         50.2296         5.27588 
         2.3378         49.9713         5.24163 
        2.34394         49.6385         5.20767 
        2.35007          49.397         5.17405 
        2.35619         49.2725         5.14078 
        2.36233         49.1428         5.10772 
        2.36848          48.764         5.07488 
        2.37462         48.5333         5.04239 
        2.38075         48.3287         5.01022 
        2.38689         48.1323         4.97831 
        2.39303         47.9166         4.94668 
        2.39916         47.7173         4.91535 
        2.40529         47.4671          4.8843 
        2.41143         47.2392         4.85349 
        2.41757         46.9452         4.82294 
         2.4237         46.8193          4.7927 
        2.42983          46.534         4.76273 
        2.43598           46.28         4.73293 
        2.44211         46.1128         4.70344 
        2.44823         45.8544         4.67426 
        2.45437         45.6582         4.64525 
        2.46052          45.323         4.61646 
        2.46665         45.1716         4.58796 
        2.47279         45.0125         4.55972 
        2.47892         44.8253         4.53169 
        2.48507         44.5354         4.50388 
         2.4912         44.4162         4.47634 
