# k  (h/Mpc)    P(k)  (Mpc/h)^3    P_linear(k)  (Mpc/h)^3
     0.00783031         13002.5         13094.4 
       0.013688         16529.7         16992.2 
       0.019231         17618.8         17924.5 
      0.0249154         17180.6         17221.4 
      0.0312784         15262.3         15498.7 
      0.0375637           13298           13622 
      0.0433917         11962.7         12120.7 
      0.0492413         10719.3         10967.2 
      0.0555754         9902.99         10074.2 
      0.0619321         8954.59         9410.11 
       0.067871         8542.71         8857.69 
      0.0738098         8037.82         8272.49 
      0.0800417         7378.45         7584.18 
      0.0862327         6643.08            6851 
      0.0921407         6018.17         6165.48 
      0.0982031         5497.33         5539.42 
       0.104506         4924.79         5014.84 
       0.110769         4575.68         4629.42 
       0.116806          4391.6         4364.12 
       0.122832         4142.05         4164.48 
       0.129052          3942.4         3982.06 
       0.135211         3828.82         3789.15 
       0.141259         3559.24         3570.96 
       0.147318         3297.46         3326.77 
       0.153489         3106.43          3069.5 
       0.159709         2972.69         2825.05 
       0.165845         2714.19         2617.32 
       0.171974          2642.2         2451.86 
       0.178125         2559.35         2326.06 
       0.184229         2368.47         2230.97 
        0.19034         2339.47         2151.28 
       0.196428         2277.29          2073.7 
       0.202534         2146.06         1988.25 
       0.208729         2102.34         1890.54 
       0.214876         2012.31         1785.68 
       0.220989         1909.87          1680.5 
       0.227147         1858.47         1581.39 
        0.23329         1786.36         1495.08 
       0.239377         1774.74         1424.25 
       0.245482         1694.06         1366.77 
       0.251667         1633.41         1318.57 
       0.257832         1610.81         1275.56 
       0.263955         1540.62         1233.34 
       0.270079         1503.45         1188.61 
        0.27624         1441.21         1140.36 
       0.282372         1424.86         1090.32 
        0.28843         1401.05         1041.14 
       0.294538         1338.13         994.376 
       0.300721         1312.93         951.761 
        0.30691         1282.87         914.698 
       0.313033         1235.44         883.031 
       0.319153         1222.91         855.138 
       0.325316         1207.81         829.109 
        0.33145         1183.43         803.799 
       0.337538         1145.82         778.206 
       0.343633         1119.66          751.93 
       0.349808         1099.67         724.914 
       0.355968         1078.24         698.384 
       0.362074          1047.1         673.303 
       0.368217         1044.15         649.913 
       0.374374         1028.46         628.634 
       0.380519         993.413         609.369 
       0.386598         988.719         591.906 
       0.392688         964.892         575.422 
        0.39888         944.649         559.159 
       0.405048           927.9         543.147 
       0.411186         924.465         527.202 
       0.417313         921.536         511.392 
       0.423458          892.73         495.877 
       0.429607         869.081         480.921 
       0.435692         862.478         466.906 
       0.441815         846.358         453.716 
       0.447964         836.828         441.319 
       0.454126         825.713         429.639 
       0.460267         815.544         418.575 
       0.466387         803.018         407.924 
        0.47254         788.828         397.435 
       0.478662         779.007          387.19 
       0.484765         771.653          377.17 
       0.490885         762.706         367.347 
       0.497035         749.455         357.784 
       0.503198         748.392         348.599 
       0.509342         734.553         339.874 
       0.515458         720.146          331.59 
       0.521598         717.814          323.64 
       0.527764           701.7         315.985 
       0.533884         695.817          308.65 
           0.54         689.999         301.524 
       0.546137         680.401         294.531 
       0.552299         676.649         287.674 
       0.558452         668.894         281.013 
       0.564573         663.175         274.584 
       0.570708         657.086          268.35 
       0.576825         643.737         262.347 
       0.582926         641.958         256.573 
       0.589034         633.575         251.005 
       0.595184         627.105         245.595 
       0.601379         617.541          240.32 
       0.607522         608.662         235.236 
       0.613639         607.701           230.3 
       0.619772         603.568         225.474 
       0.625918         593.775         220.767 
       0.632068         590.359         216.189 
       0.638161         583.159         211.786 
         0.6443         577.357         207.482 
       0.650464         572.625         203.289 
       0.656582         568.243         199.248 
       0.662703         561.544         195.321 
       0.668861         555.416         191.483 
       0.675024         551.943         187.747 
       0.681124         542.907         184.151 
       0.687237         542.433         180.642 
       0.693381         533.656         177.206 
       0.699536          533.16         173.851 
       0.705665         526.485         170.595 
       0.711789         525.214         167.424 
       0.717957         517.662         164.313 
        0.72409          513.26           161.3 
       0.730186         512.982         158.382 
       0.736317         505.391         155.525 
       0.742472         499.758          152.73 
       0.748622         497.488         150.008 
        0.75476         492.435          147.36 
       0.760888         489.598         144.781 
       0.767043         486.852         142.253 
       0.773185         483.263         139.791 
       0.779291          477.43           137.4 
       0.785407         474.135         135.062 
       0.791564         471.033         132.763 
       0.797719         464.117          130.52 
       0.803834         465.734         128.343 
       0.809972         458.673         126.208 
       0.816124         454.899         124.119 
       0.822261         452.083         122.083 
       0.828378         449.873         120.099 
       0.834502         442.849         118.159 
       0.840667         442.593          116.25 
       0.846816          436.86         114.388 
       0.852925         436.762          112.58 
       0.859047         432.554         110.807 
       0.865192         430.078         109.067 
       0.871341         424.449         107.364 
       0.877463         422.874         105.705 
       0.883569         418.768         104.086 
       0.889708         414.728         102.492 
       0.895864         411.057         100.929 
       0.902008         409.968         99.4012 
       0.908149         406.324         97.9065 
       0.914301         404.677         96.4403 
       0.920448         400.274         95.0059 
       0.926574         398.184         93.6059 
       0.932687         396.644         92.2374 
       0.938823         391.689         90.8916 
       0.944975         390.329         89.5698 
       0.951105         387.193         88.2792 
       0.957225         381.763         87.0165 
       0.963368         382.766         85.7745 
       0.969511         376.202         84.5568 
       0.975621         375.716         83.3695 
       0.981748         373.389         82.2022 
       0.987916         371.084           81.05 
        0.99406         367.581         79.9244 
        1.00019         363.797         78.8227 
        1.00632         363.491         77.7428 
        1.01246         360.295         76.6817 
        1.01859         356.477         75.6424 
        1.02471         354.657         74.6237 
        1.03085         353.232         73.6204 
        1.03698         350.937         72.6379 
        1.04314         349.099         71.6692 
        1.04929         346.888         70.7206 
        1.05541         342.321         69.7931 
        1.06154          341.31         68.8802 
        1.06769          337.88         67.9823 
        1.07382         336.139         67.1034 
        1.07993         334.408         66.2423 
        1.08607         332.211         65.3928 
        1.09222         329.477         64.5575 
        1.09836         328.023         63.7379 
        1.10449         325.561         62.9336 
        1.11063          323.31         62.1425 
        1.11677         319.741         61.3653 
         1.1229         319.282         60.6028 
        1.12903          316.51         59.8528 
        1.13518         314.347         59.1149 
        1.14131         313.268         58.3899 
        1.14745         309.392         57.6777 
        1.15359          307.22         56.9772 
        1.15973         306.007         56.2882 
        1.16584         304.305         55.6138 
        1.17197          302.07         54.9495 
        1.17811         299.099         54.2942 
        1.18424         297.864         53.6514 
        1.19038          296.14         53.0174 
        1.19652         292.921         52.3938 
        1.20267         292.391         51.7804 
        1.20881         290.374         51.1769 
        1.21495         288.412         50.5841 
        1.22108         286.696         50.0008 
         1.2272          282.85         49.4282 
        1.23334         282.215         48.8632 
        1.23949         280.535         48.3058 
        1.24562         279.274         47.7587 
        1.25174          276.92          47.221 
        1.25789         274.636           46.69 
        1.26402          274.03         46.1681 
        1.27014         272.594         45.6555 
        1.27628         269.836         45.1492 
        1.28244         268.272         44.6497 
        1.28858         266.836         44.1584 
        1.29471         265.386         43.6757 
        1.30084         264.185         43.2007 
        1.30697         261.219          42.732 
        1.31312         259.554         42.2697 
        1.31925         258.407         41.8157 
        1.32537         257.196         41.3689 
        1.33151         254.896         40.9271 
        1.33765         253.036          40.492 
        1.34378         251.611         40.0641 
        1.34992         249.409         39.6422 
        1.35606         248.412         39.2254 
         1.3622         246.755         38.8155 
        1.36833          245.49         38.4124 
        1.37445         244.471         38.0153 
        1.38059         241.781         37.6226 
        1.38675         240.452         37.2345 
        1.39288         239.498         36.8535 
        1.39901          237.21         36.4781 
        1.40515         236.239          36.107 
         1.4113         234.337         35.7413 
        1.41742         232.346         35.3821 
        1.42355         232.454         35.0271 
         1.4297         230.309          34.676 
        1.43585         228.448         34.3299 
        1.44198           227.1         33.9899 
        1.44809         226.135         33.6551 
        1.45423         224.636         33.3236 
        1.46036         223.313         32.9972 
        1.46649         222.063         32.6751 
        1.47263         220.421          32.357 
        1.47877         218.964         32.0434 
        1.48491         217.283         31.7334 
        1.49104         215.623         31.4282 
        1.49718          214.79         31.1268 
        1.50333         212.907         30.8288 
        1.50947         212.134         30.5354 
         1.5156         210.708         30.2463 
        1.52172          209.39          29.961 
        1.52787         207.865         29.6787 
          1.534         207.481         29.4005 
        1.54013         205.636         29.1261 
        1.54627         204.549         28.8548 
        1.55241         203.326         28.5869 
        1.55855         202.265         28.3227 
        1.56467         200.911         28.0627 
         1.5708         199.368         27.8052 
        1.57695         198.454         27.5506 
        1.58308         197.168         27.2998 
        1.58922         195.757         27.0519 
        1.59535         194.227         26.8072 
         1.6015         193.547         26.5652 
        1.60764         192.108         26.3264 
        1.61376         190.545         26.0911 
        1.61989         189.406         25.8585 
        1.62604         188.381         25.6283 
        1.63218         187.272          25.401 
        1.63831         186.693         25.1771 
        1.64444         184.911         24.9557 
        1.65059          184.14         24.7365 
        1.65673         182.723         24.5202 
        1.66285         181.845         24.3071 
        1.66898         180.812         24.0965 
        1.67512         179.525         23.8879 
        1.68127         178.627         23.6817 
         1.6874         177.395         23.4783 
        1.69353         176.571         23.2775 
        1.69967         175.083         23.0786 
        1.70581         174.536          22.882 
        1.71193         173.146         22.6886 
        1.71806         171.923         22.4969 
        1.72421         171.054         22.3071 
        1.73035         169.849         22.1197 
        1.73649         168.662         21.9345 
        1.74262         168.061         21.7516 
        1.74876         167.096         21.5706 
        1.75489         166.286         21.3921 
        1.76101         164.991         21.2157 
        1.76715         163.901          21.041 
        1.77329         162.676         20.8681 
        1.77943          161.77         20.6971 
        1.78557         161.035         20.5282 
        1.79171         160.258         20.3612 
        1.79785         159.089         20.1961 
        1.80399         158.135         20.0328 
        1.81012         157.276         19.8715 
        1.81625         156.084         19.7121 
        1.82239         155.248         19.5542 
        1.82853         154.549         19.3982 
        1.83466         153.103         19.2439 
        1.84078         152.715         19.0916 
        1.84692         151.733         18.9406 
        1.85306         150.547         18.7911 
         1.8592         150.062         18.6435 
        1.86533         148.524         18.4975 
        1.87147         147.873         18.3529 
        1.87761         147.153         18.2098 
        1.88375         145.829         18.0684 
        1.88988         145.387         17.9287 
        1.89601         144.955         17.7904 
        1.90215         144.016         17.6534 
        1.90829         142.583          17.518 
        1.91442         142.012         17.3839 
        1.92056         141.072         17.2514 
         1.9267         140.389         17.1202 
        1.93284         139.288         16.9902 
        1.93897         138.612         16.8619 
        1.94509         137.734         16.7351 
        1.95123          137.07         16.6093 
        1.95737         136.417         16.4848 
        1.96349          135.36         16.3618 
        1.96964         134.648         16.2398 
        1.97578         133.762         16.1189 
        1.98192         133.115         15.9995 
        1.98805         132.333         15.8813 
        1.99419         131.122         15.7643 
        2.00033         130.748         15.6485 
        2.00647         130.053         15.5338 
         2.0126         129.138         15.4205 
        2.01874         128.424         15.3081 
        2.02488         127.705         15.1968 
        2.03101         127.304         15.0867 
        2.03714         126.229         14.9779 
        2.04328         125.518           14.87 
        2.04941         125.173         14.7633 
        2.05554         124.364         14.6577 
        2.06167         123.417          14.553 
        2.06781         122.703         14.4494 
        2.07396         122.036         14.3465 
        2.08009          121.42         14.2449 
        2.08622         120.582         14.1444 
        2.09237         119.685         14.0446 
        2.09851          119.35         13.9458 
        2.10464          118.55         13.8481 
        2.11077           117.9         13.7515 
        2.11691         117.356         13.6556 
        2.12305         116.654         13.5606 
        2.12918         115.914         13.4667 
        2.13531         115.095         13.3737 
        2.14145         114.707         13.2814 
         2.1476         113.899         13.1898 
        2.15372         113.197         13.0996 
        2.15985         112.494         13.0101 
        2.16599         111.913         12.9212 
        2.17213         111.307         12.8332 
        2.17827         110.643         12.7461 
         2.1844         110.171         12.6599 
        2.19054         109.329         12.5744 
        2.19666         108.645         12.4898 
         2.2028          108.19          12.406 
        2.20893         107.747         12.3229 
        2.21508         106.753         12.2404 
        2.22122         106.287         12.1587 
        2.22736         105.937         12.0779 
        2.23349         105.348         11.9979 
        2.23962         104.594         11.9185 
        2.24577         104.045         11.8398 
         2.2519         103.292         11.7619 
        2.25802         102.932         11.6849 
        2.26417          102.17         11.6083 
        2.27031         101.593         11.5323 
        2.27644         101.214         11.4573 
        2.28257         100.694         11.3829 
        2.28872         100.044          11.309 
        2.29486         99.6071         11.2358 
        2.30099         98.8288         11.1634 
        2.30712         98.5254         11.0916 
        2.31326         97.8549         11.0204 
         2.3194         97.3616         10.9498 
        2.32553         96.6902         10.8799 
        2.33166         96.4527         10.8107 
         2.3378         95.7608          10.742 
        2.34394         95.0512         10.6738 
        2.35007         94.5253         10.6064 
        2.35619         94.0487         10.5396 
        2.36233         93.6375         10.4732 
        2.36848         92.8966         10.4073 
        2.37462          92.722         10.3421 
        2.38075         92.1088         10.2775 
        2.38689         91.5967         10.2134 
        2.39303         91.1126         10.1498 
        2.39916         90.6543         10.0869 
        2.40529         90.2147         10.0245 
        2.41143         89.5849         9.96262 
        2.41757         88.9122         9.90121 
         2.4237         88.5737         9.84043 
        2.42983          87.977         9.78018 
        2.43598         87.7069         9.72026 
        2.44211         87.2768         9.66095 
        2.44823         86.6574         9.60227 
        2.45437          86.336         9.54391 
        2.46052         85.6703           9.486 
        2.46665         85.2691         9.42866 
        2.47279          84.906         9.37182 
        2.47892         84.4747         9.31542 
        2.48507          84.114         9.25942 
         2.4912         83.3941           9.204 
