# k  (h/Mpc)    Pcb(k)  (Mpc/h)^3    Pcb_linear(k)  (Mpc/h)^3
     0.00783031         18406.3         18675.7 
       0.013688         20741.2           20533 
       0.019231         18799.5         18711.4 
      0.0249154         15234.9         15496.7 
      0.0312784         11836.3         11884.1 
      0.0375637         9221.58            9126 
      0.0433917         7413.54         7441.49 
      0.0492413         6480.99         6442.18 
      0.0555754         5754.07         5855.44 
      0.0619321         5556.68         5480.45 
       0.067871         5036.54         5111.21 
      0.0738098         4570.28         4625.25 
      0.0800417         3942.46         4003.47 
      0.0862327         3380.53         3364.99 
      0.0921407         2927.85         2831.89 
      0.0982031         2500.75         2420.61 
       0.104506         2298.03         2148.56 
       0.110769         2130.41         2004.31 
       0.116806         2037.58         1934.66 
       0.122832         1969.31         1881.22 
       0.129052         1837.74         1800.06 
       0.135211         1721.68         1674.51 
       0.141259         1606.28         1514.95 
       0.147318         1463.25         1343.46 
       0.153489         1301.96         1184.42 
       0.159709         1201.59          1059.2 
       0.165845         1134.24         975.706 
       0.171974         1074.71         926.186 
       0.178125         1031.14         897.702 
       0.184229         992.518         875.609 
        0.19034         936.784         847.222 
       0.196428         911.432         806.247 
       0.202534          871.28         753.031 
       0.208729          814.79         692.813 
       0.214876         765.891         634.948 
       0.220989           727.8         585.776 
       0.227147         693.392         547.849 
        0.23329         661.784         521.183 
       0.239377          647.09         502.776 
       0.245482         603.535         488.144 
       0.251667         599.962         473.111 
       0.257832         575.611         455.189 
       0.263955         554.197         433.845 
       0.270079         528.938         410.024 
        0.27624         519.405         385.718 
       0.282372         498.142         363.341 
        0.28843         483.871         344.398 
       0.294538          458.13         328.945 
       0.300721         453.753         316.476 
        0.30691         433.861         306.108 
       0.313033         424.538         296.611 
       0.319153         410.613         286.896 
       0.325316         399.182         276.304 
        0.33145         385.989         265.048 
       0.337538         378.533         253.568 
       0.343633         366.166         242.414 
       0.349808         352.121         231.983 
       0.355968         347.871         222.772 
       0.362074         342.115          214.83 
       0.368217         331.861         207.794 
       0.374374         317.284         201.373 
       0.380519          314.93         195.202 
       0.386598         306.275         189.103 
       0.392688          302.76         182.898 
        0.39888         294.331         176.517 
       0.405048         287.464         170.261 
       0.411186         282.156          164.29 
       0.417313         276.198         158.706 
       0.423458         269.531         153.564 
       0.429607         265.314          148.84 
       0.435692         257.842         144.497 
       0.441815         254.978         140.368 
       0.447964         249.254         136.362 
       0.454126         242.836         132.409 
       0.460267         238.119         128.526 
       0.466387         234.628         124.732 
        0.47254         230.111         121.019 
       0.478662         229.053         117.469 
       0.484765         220.377         114.114 
       0.490885         217.872          110.94 
       0.497035         213.752         107.918 
       0.503198         210.174         105.037 
       0.509342         208.406         102.285 
       0.515458         205.042         99.6376 
       0.521598         199.821         97.0467 
       0.527764          197.78          94.506 
       0.533884         195.077         92.0537 
           0.54          191.94         89.6842 
       0.546137         190.716         87.3936 
       0.552299         186.714         85.1825 
       0.558452          185.38         83.0633 
       0.564573         182.461         81.0411 
       0.570708         178.304         79.0933 
       0.576825         175.867         77.2197 
       0.582926         173.199         75.4089 
       0.589034         171.422         73.6452 
       0.595184         169.811         71.9182 
       0.601379         166.589         70.2304 
       0.607522         164.457         68.6094 
       0.613639         162.959         67.0486 
       0.619772         159.834         65.5357 
       0.625918         158.664         64.0691 
       0.632068         156.086         62.6487 
       0.638161         155.041         61.2853 
         0.6443         152.606         59.9537 
       0.650464         151.188         58.6573 
       0.656582         148.688         57.4084 
       0.662703         148.407          56.195 
       0.668861         145.798         55.0089 
       0.675024         143.623         53.8552 
       0.681124         142.637         52.7457 
       0.687237         140.724         51.6651 
       0.693381          138.43         50.6101 
       0.699536         137.365         49.5833 
       0.705665         136.117         48.5904 
       0.711789         134.496         47.6263 
       0.717957         134.288         46.6823 
        0.72409         132.194         45.7695 
       0.730186         130.489         44.8867 
       0.736317         128.971         44.0223 
       0.742472         127.969         43.1773 
       0.748622         126.819         42.3552 
        0.75476         125.551         41.5561 
       0.760888         124.241         40.7788 
       0.767043         123.552         40.0184 
       0.773185         122.542         39.2791 
       0.779291          120.19         38.5628 
       0.785407         119.721         37.8636 
       0.791564         118.928         37.1774 
       0.797719         116.472         36.5087 
       0.803834         116.021         35.8608 
       0.809972         115.318         35.2265 
       0.816124         114.433         34.6062 
       0.822261         113.613         34.0025 
       0.828378          112.48         33.4152 
       0.834502         111.901         32.8412 
       0.840667         110.269         32.2771 
       0.846816         109.203         31.7279 
       0.852925         108.504         31.1949 
       0.859047         107.566         30.6731 
       0.865192         106.406         30.1615 
       0.871341         105.585         29.6614 
       0.877463         104.514         29.1748 
       0.883569         104.367         28.7004 
       0.889708         103.108         28.2341 
       0.895864         102.123         27.7771 
       0.902008         101.366         27.3311 
       0.908149          101.05         26.8952 
       0.914301          99.824         26.4682 
       0.920448          99.088         26.0508 
       0.926574         98.2958          25.644 
       0.932687         98.2365         25.2467 
       0.938823         96.7861         24.8564 
       0.944975         96.0955         24.4735 
       0.951105         95.3101         24.1001 
       0.957225         94.8359         23.7351 
       0.963368         93.3881         23.3765 
       0.969511         93.2543         23.0253 
       0.975621         92.5061         22.6833 
       0.981748         92.2498         22.3473 
       0.987916         91.2413         22.0161 
        0.99406         90.5647         21.6928 
        1.00019         90.3296         21.3767 
        1.00632         89.2757         21.0672 
        1.01246         88.8306         20.7633 
        1.01859         88.3112          20.466 
        1.02471         87.3284         20.1749 
        1.03085         86.5503         19.8885 
        1.03698         86.3376         19.6082 
        1.04314         85.4711         19.3322 
        1.04929         85.1661         19.0621 
        1.05541         84.3107         18.7983 
        1.06154         84.0929         18.5389 
        1.06769         83.6701          18.284 
        1.07382         82.9133         18.0347 
        1.07993         82.5419         17.7906 
        1.08607         81.7492           17.55 
        1.09222         81.5837         17.3137 
        1.09836         80.8508         17.0819 
        1.10449         80.2182         16.8547 
        1.11063         79.8208         16.6314 
        1.11677         79.1659         16.4122 
         1.1229         78.7036         16.1974 
        1.12903         78.3818         15.9862 
        1.13518         78.0698         15.7786 
        1.14131         77.3818         15.5748 
        1.14745         77.0678         15.3747 
        1.15359         76.4758         15.1781 
        1.15973          76.188         14.9849 
        1.16584         75.4565         14.7959 
        1.17197          74.934         14.6099 
        1.17811         74.6869         14.4265 
        1.18424         74.1813         14.2468 
        1.19038         74.0781         14.0697 
        1.19652         73.5166         13.8956 
        1.20267         72.7148         13.7245 
        1.20881         72.5934         13.5563 
        1.21495         71.8101         13.3912 
        1.22108         71.7662         13.2289 
         1.2272         71.0223         13.0697 
        1.23334         70.6284         12.9127 
        1.23949         70.4282         12.7579 
        1.24562         69.8297         12.6061 
        1.25174         69.6633          12.457 
        1.25789         69.2719         12.3099 
        1.26402         68.4478         12.1654 
        1.27014         68.3957         12.0235 
        1.27628         68.0513         11.8836 
        1.28244         67.6733         11.7456 
        1.28858         67.4159         11.6099 
        1.29471         66.9373         11.4767 
        1.30084         66.7201         11.3457 
        1.30697          66.135         11.2166 
        1.31312         65.7865         11.0893 
        1.31925         65.4528         10.9644 
        1.32537         65.0464         10.8415 
        1.33151         64.5909           10.72 
        1.33765         64.3854         10.6005 
        1.34378         64.0993         10.4831 
        1.34992         63.7275         10.3673 
        1.35606         63.3584          10.253 
         1.3622         62.9854         10.1407 
        1.36833         62.7759         10.0303 
        1.37445         62.3502         9.92163 
        1.38059         61.8025         9.81423 
        1.38675         61.5127         9.70815 
        1.39288          61.469         9.60407 
        1.39901         61.0507         9.50156 
        1.40515          60.592         9.40031 
         1.4113         60.3788         9.30058 
        1.41742         60.1317         9.20268 
        1.42355         59.8374           9.106 
         1.4297         59.6359         9.01042 
        1.43585         59.2535         8.91624 
        1.44198         58.8158         8.82378 
        1.44809         58.6484          8.7328 
        1.45423          58.449         8.64277 
        1.46036         58.0253         8.55417 
        1.46649         57.7035         8.46678 
        1.47263         57.4125         8.38054 
        1.47877         57.1148         8.29554 
        1.48491          56.829         8.21159 
        1.49104         56.6153         8.12898 
        1.49718         56.3124         8.04744 
        1.50333         56.2421         7.96689 
        1.50947         55.7557         7.88761 
         1.5156         55.6502         7.80952 
        1.52172         55.2859         7.73249 
        1.52787           55.02         7.65634 
          1.534         54.6672         7.58131 
        1.54013          54.341         7.50737 
        1.54627          54.232         7.43427 
        1.55241         53.8347         7.36214 
        1.55855         53.6424         7.29106 
        1.56467         53.4749         7.22112 
         1.5708         53.1997          7.1519 
        1.57695         53.0502         7.08348 
        1.58308         52.7034         7.01611 
        1.58922         52.3311         6.94957 
        1.59535          52.263         6.88392 
         1.6015         51.8095         6.81903 
        1.60764         51.6892           6.755 
        1.61376         51.4107         6.69197 
        1.61989         51.2479          6.6297 
        1.62604          50.921         6.56807 
        1.63218         50.8053         6.50727 
        1.63831         50.3434         6.44737 
        1.64444         50.1229          6.3882 
        1.65059          50.129         6.32964 
        1.65673         49.6872         6.27187 
        1.66285         49.4535         6.21498 
        1.66898         49.3868         6.15878 
        1.67512         48.9331         6.10316 
        1.68127         48.8893         6.04818 
         1.6874         48.5893           5.994 
        1.69353         48.3799         5.94051 
        1.69967         48.1613         5.88755 
        1.70581         47.9588         5.83526 
        1.71193         47.7794          5.7838 
        1.71806         47.4372         5.73285 
        1.72421         47.4161         5.68242 
        1.73035         47.1321         5.63264 
        1.73649         46.8707         5.58348 
        1.74262         46.6096         5.53494 
        1.74876         46.4007         5.48694 
        1.75489         46.2767         5.43961 
        1.76101         46.1079         5.39285 
        1.76715         45.7586         5.34658 
        1.77329         45.5618         5.30079 
        1.77943         45.3822         5.25552 
        1.78557         45.1352         5.21084 
        1.79171         45.0009         5.16667 
        1.79785         44.6813         5.12301 
        1.80399         44.6245         5.07986 
        1.81012         44.3476         5.03727 
        1.81625         44.1836         4.99518 
        1.82239         43.9178         4.95351 
        1.82853         43.7778         4.91233 
        1.83466          43.561         4.87167 
        1.84078         43.2828          4.8315 
        1.84692         43.1913         4.79172 
        1.85306         42.9408         4.75234 
         1.8592         42.8124         4.71347 
        1.86533         42.5554         4.67505 
        1.87147         42.2896         4.63701 
        1.87761         42.2441         4.59938 
        1.88375         42.0265         4.56221 
        1.88988          41.738         4.52549 
        1.89601          41.638         4.48916 
        1.90215         41.4122         4.45319 
        1.90829         41.2844         4.41763 
        1.91442          41.157         4.38246 
        1.92056         40.9311          4.3477 
         1.9267         40.7731         4.31329 
        1.93284         40.4853         4.27922 
        1.93897         40.3553         4.24559 
        1.94509         40.2596         4.21238 
        1.95123         40.0438         4.17945 
        1.95737         39.7947         4.14685 
        1.96349         39.6821         4.11468 
        1.96964         39.4101         4.08275 
        1.97578         39.2218         4.05116 
        1.98192         39.2065         4.01995 
        1.98805         38.9706         3.98908 
        1.99419         38.8073         3.95852 
        2.00033         38.6634         3.92827 
        2.00647         38.4945         3.89835 
         2.0126         38.2397         3.86878 
        2.01874         38.1185         3.83948 
        2.02488         37.9951         3.81045 
        2.03101          37.857         3.78178 
        2.03714         37.6618         3.75343 
        2.04328           37.49         3.72533 
        2.04941         37.2936         3.69755 
        2.05554         37.1572         3.67007 
        2.06167         37.0507         3.64283 
        2.06781         36.8478         3.61586 
        2.07396         36.7398         3.58912 
        2.08009         36.5269         3.56271 
        2.08622          36.262         3.53658 
        2.09237         36.2524         3.51067 
        2.09851         36.1313         3.48502 
        2.10464         35.9159         3.45966 
        2.11077         35.7265         3.43458 
        2.11691         35.5678          3.4097 
        2.12305         35.4714         3.38506 
        2.12918         35.3522         3.36073 
        2.13531         35.0958         3.33663 
        2.14145         34.9267         3.31271 
         2.1476         34.7458           3.289 
        2.15372         34.6261         3.26564 
        2.15985         34.6028         3.24248 
        2.16599         34.4113         3.21948 
        2.17213         34.2716         3.19672 
        2.17827         34.1088         3.17419 
         2.1844         33.8899          3.1519 
        2.19054         33.7945         3.12982 
        2.19666          33.609         3.10797 
         2.2028         33.5728         3.08632 
        2.20893         33.3673         3.06486 
        2.21508         33.2995         3.04358 
        2.22122         33.1284         3.02249 
        2.22736         32.9472         3.00165 
        2.23349         32.8472         2.98101 
        2.23962         32.7078         2.96055 
        2.24577         32.5093         2.94027 
         2.2519         32.3791          2.9202 
        2.25802         32.3107         2.90035 
        2.26417         32.1477         2.88064 
        2.27031          32.018         2.86108 
        2.27644          31.845         2.84177 
        2.28257         31.7192         2.82263 
        2.28872          31.596         2.80363 
        2.29486         31.4656         2.78482 
        2.30099         31.3527         2.76621 
        2.30712         31.2109         2.74776 
        2.31326         31.1151         2.72945 
         2.3194          30.905         2.71132 
        2.32553         30.7837         2.69338 
        2.33166         30.7052         2.67562 
         2.3378         30.5988         2.65798 
        2.34394         30.4816          2.6405 
        2.35007         30.3263          2.6232 
        2.35619         30.1779         2.60608 
        2.36233         30.0576         2.58907 
        2.36848         29.9893         2.57218 
        2.37462         29.8075         2.55547 
        2.38075         29.7543         2.53892 
        2.38689         29.5825         2.52251 
        2.39303         29.4102         2.50625 
        2.39916         29.2831         2.49014 
        2.40529         29.1912         2.47418 
        2.41143         29.1037         2.45835 
        2.41757         28.9675         2.44265 
         2.4237         28.8682         2.42711 
        2.42983         28.7738         2.41171 
        2.43598         28.6505          2.3964 
        2.44211         28.4823         2.38125 
        2.44823         28.4074         2.36627 
        2.45437         28.2396         2.35137 
        2.46052         28.1532         2.33659 
        2.46665         28.0257         2.32196 
        2.47279         27.8762         2.30746 
        2.47892         27.8329         2.29307 
        2.48507         27.7084          2.2788 
         2.4912         27.5824         2.26467 
