# k  (h/Mpc)    P(k)  (Mpc/h)^3    P_linear(k)  (Mpc/h)^3
     0.00783031         13041.3         13227.6 
       0.013688         16598.2         16464.1 
       0.019231         16935.9         16921.4 
      0.0249154         15647.5         15979.6 
      0.0312784         14042.2         14219.2 
      0.0375637         12378.3           12420 
      0.0433917         10771.8         11003.5 
      0.0492413         9792.59         9904.12 
      0.0555754         8716.67         9024.43 
      0.0619321         8312.61          8342.6 
       0.067871         7524.76         7772.47 
      0.0738098         6961.68         7192.66 
      0.0800417         6263.33          6548.5 
      0.0862327         5714.24         5894.92 
      0.0921407         5231.47         5302.92 
      0.0982031         4688.33         4770.57 
       0.104506         4387.45         4323.63 
       0.110769         4045.71         3986.85 
       0.116806         3786.79         3742.76 
       0.122832            3601         3547.23 
       0.129052          3344.1         3363.54 
       0.135211         3173.84         3175.94 
       0.141259         3035.96         2976.78 
       0.147318         2861.61         2766.44 
       0.153489         2627.12         2553.84 
       0.159709          2483.7         2356.38 
       0.165845         2384.18         2188.96 
       0.171974          2244.6         2052.73 
       0.178125         2133.52         1943.99 
       0.184229         2043.11         1856.01 
        0.19034          1927.3          1778.3 
       0.196428         1891.53         1702.88 
       0.202534         1822.33         1624.14 
       0.208729         1739.84         1539.94 
       0.214876         1664.51         1454.45 
       0.220989         1609.75         1371.64 
       0.227147         1537.03          1294.6 
        0.23329         1476.38         1226.81 
       0.239377         1452.03         1169.22 
       0.245482         1360.69         1119.81 
       0.251667         1352.84         1075.87 
       0.257832         1300.57         1035.39 
       0.263955         1258.58          996.17 
       0.270079         1216.17         956.643 
        0.27624         1203.34         916.387 
       0.282372         1152.27         876.551 
        0.28843         1142.38         838.536 
       0.294538         1085.83         802.615 
       0.300721         1081.01         769.428 
        0.30691         1036.44         739.496 
       0.313033         1016.78         712.778 
       0.319153         997.645          688.22 
       0.325316         965.214         664.899 
        0.33145         943.069         642.433 
       0.337538         928.685         620.528 
       0.343633         905.501         598.902 
       0.349808         875.489         577.495 
       0.355968         870.118         556.912 
       0.362074         859.989         537.546 
       0.368217         834.219         519.287 
       0.374374         801.635         502.214 
       0.380519          801.66         486.313 
       0.386598         780.781         471.489 
       0.392688         778.347          457.33 
        0.39888         755.432         443.464 
       0.405048         744.603         430.048 
       0.411186         733.797         417.065 
       0.417313         718.831         404.494 
       0.423458         707.135          392.33 
       0.429607         696.512          380.67 
       0.435692         681.607         369.679 
       0.441815         676.755          359.15 
       0.447964         662.467         349.093 
       0.454126         653.286         339.474 
       0.460267         639.632         330.274 
       0.466387         632.574         321.431 
        0.47254         624.467         312.833 
       0.478662         621.029         304.546 
       0.484765         602.524         296.543 
       0.490885         598.413         288.789 
       0.497035          586.42          281.28 
       0.503198         581.414         274.042 
       0.509342         575.934         267.104 
       0.515458         571.903         260.466 
       0.521598         558.393         254.051 
       0.527764         547.597         247.837 
       0.533884         546.466         241.874 
           0.54          539.65         236.105 
       0.546137         536.781         230.497 
       0.552299         527.679         225.042 
       0.558452         524.874         219.766 
       0.564573         517.314         214.685 
       0.570708         510.993         209.757 
       0.576825         497.774         205.008 
       0.582926         498.796         200.426 
       0.589034          494.39         195.985 
       0.595184         489.733         191.653 
       0.601379         483.193         187.424 
       0.607522         476.406         183.356 
       0.613639         475.933         179.426 
       0.619772         464.362           175.6 
       0.625918         462.951         171.878 
       0.632068         456.375         168.261 
       0.638161          454.78         164.781 
         0.6443         446.414         161.376 
       0.650464         444.058         158.058 
       0.656582          441.83          154.86 
       0.662703         439.448         151.751 
       0.668861         431.662         148.711 
       0.675024         428.297         145.752 
       0.681124         425.398         142.904 
       0.687237         421.519         140.126 
       0.693381         416.004         137.409 
       0.699536         410.651          134.76 
       0.705665         409.044         132.193 
       0.711789          406.34         129.696 
       0.717957         402.828         127.248 
        0.72409          399.93         124.877 
       0.730186         395.162         122.581 
       0.736317         391.789         120.332 
       0.742472         390.291         118.131 
       0.748622         385.764         115.988 
        0.75476         381.308         113.902 
       0.760888         377.324         111.872 
       0.767043         378.032         109.884 
       0.773185         373.163         107.948 
       0.779291         368.413         106.071 
       0.785407         366.835         104.236 
       0.791564          362.42         102.433 
       0.797719         360.147         100.674 
       0.803834          357.13         98.9684 
       0.809972          355.81         97.2963 
       0.816124         355.317         95.6596 
       0.822261         349.886         94.0652 
       0.828378         347.867         92.5123 
       0.834502         345.109         90.9934 
       0.840667         341.628          89.499 
       0.846816         340.141         88.0426 
       0.852925         337.468          86.628 
       0.859047         335.871         85.2418 
       0.865192         332.097         83.8816 
       0.871341         329.606         82.5503 
       0.877463         328.172         81.2542 
       0.883569         326.108         79.9894 
       0.889708         323.189         78.7452 
       0.895864         320.282         77.5244 
       0.902008         318.588         76.3323 
       0.908149         316.402         75.1661 
       0.914301         312.985         74.0226 
       0.920448         311.054         72.9041 
       0.926574          307.64         71.8127 
       0.932687          308.08         70.7462 
       0.938823         304.431         69.6976 
       0.944975         303.799          68.668 
       0.951105         300.961          67.663 
       0.957225         298.814           66.68 
       0.963368         295.363         65.7134 
       0.969511         294.093          64.766 
       0.975621         291.723         63.8425 
       0.981748         291.499         62.9348 
       0.987916         289.097         62.0392 
        0.99406         284.704         61.1645 
        1.00019         284.621         60.3085 
        1.00632         282.854         59.4698 
        1.01246         280.434         58.6459 
        1.01859         280.866          57.839 
        1.02471         276.588         57.0485 
        1.03085         274.642         56.2701 
        1.03698         273.814          55.508 
        1.04314         271.048         54.7568 
        1.04929         269.158         54.0214 
        1.05541         269.502         53.3026 
        1.06154         265.308         52.5951 
        1.06769         264.753         51.8995 
        1.07382         263.069         51.2188 
        1.07993         261.061         50.5519 
        1.08607         260.282         49.8942 
        1.09222          258.21         49.2476 
        1.09836         256.295         48.6133 
        1.10449         253.698          47.991 
        1.11063         251.598         47.3789 
        1.11677         251.378         46.7778 
         1.1229         249.564         46.1882 
        1.12903         247.919         45.6083 
        1.13518         246.229         45.0379 
        1.14131         244.421         44.4775 
        1.14745         244.037         43.9271 
        1.15359         241.794          43.386 
        1.15973         240.425         42.8537 
        1.16584         238.436         42.3328 
        1.17197         238.276         41.8199 
        1.17811         235.653         41.3139 
        1.18424         234.256         40.8179 
        1.19038         233.449         40.3285 
        1.19652         231.629         39.8474 
        1.20267         231.117         39.3743 
        1.20881         228.961         38.9089 
        1.21495          227.56         38.4518 
        1.22108         226.332         38.0022 
         1.2272         224.657         37.5609 
        1.23334         223.555         37.1256 
        1.23949         222.254         36.6962 
        1.24562         221.172         36.2748 
        1.25174         219.103         35.8607 
        1.25789         217.621         35.4518 
        1.26402         216.294         35.0501 
        1.27014          214.97         34.6556 
        1.27628         213.908         34.2661 
        1.28244         213.659         33.8818 
        1.28858         211.244         33.5039 
        1.29471         209.588         33.1327 
        1.30084         208.871         32.7675 
        1.30697         207.358         32.4072 
        1.31312         205.689         32.0519 
        1.31925          205.34          31.703 
        1.32537         204.181         31.3597 
        1.33151         202.165         31.0202 
        1.33765         200.992          30.686 
        1.34378         200.235         30.3574 
        1.34992         199.237         30.0334 
        1.35606         199.057         29.7135 
         1.3622         197.083         29.3988 
        1.36833         195.088         29.0894 
        1.37445         194.317         28.7846 
        1.38059         192.877         28.4833 
        1.38675          192.16         28.1856 
        1.39288         190.881         27.8934 
        1.39901         190.663         27.6054 
        1.40515           188.7         27.3209 
         1.4113         187.555         27.0405 
        1.41742          186.44         26.7651 
        1.42355         185.234          26.493 
         1.4297         184.092         26.2239 
        1.43585         183.083         25.9587 
        1.44198         182.077         25.6981 
        1.44809         181.348         25.4417 
        1.45423         180.066         25.1878 
        1.46036         179.147         24.9378 
        1.46649         177.778         24.6912 
        1.47263         176.584         24.4477 
        1.47877         175.843         24.2076 
        1.48491         174.259         23.9704 
        1.49104         173.972         23.7368 
        1.49718         172.085         23.5062 
        1.50333         171.571         23.2784 
        1.50947         170.845          23.054 
         1.5156         169.358         22.8329 
        1.52172         168.572         22.6147 
        1.52787         167.186         22.3989 
          1.534         166.831         22.1863 
        1.54013         165.488         21.9766 
        1.54627         164.716         21.7693 
        1.55241         163.537         21.5646 
        1.55855         162.621         21.3628 
        1.56467         161.566         21.1642 
         1.5708         160.925         20.9676 
        1.57695         159.849         20.7732 
        1.58308         159.182         20.5817 
        1.58922         158.076         20.3924 
        1.59535         156.854         20.2057 
         1.6015         156.544          20.021 
        1.60764         155.369         19.8387 
        1.61376         154.328         19.6592 
        1.61989         153.502         19.4818 
        1.62604         152.615         19.3061 
        1.63218         151.925         19.1328 
        1.63831         150.822          18.962 
        1.64444         150.278         18.7932 
        1.65059         149.249          18.626 
        1.65673         148.035         18.4611 
        1.66285         147.748         18.2986 
        1.66898         146.598         18.1381 
        1.67512         146.344         17.9791 
        1.68127         144.777          17.822 
         1.6874         143.771          17.667 
        1.69353         143.538          17.514 
        1.69967          142.44         17.3625 
        1.70581         141.691         17.2128 
        1.71193         140.734         17.0655 
        1.71806         140.288         16.9195 
        1.72421         139.284          16.775 
        1.73035         139.018         16.6324 
        1.73649          138.05         16.4914 
        1.74262         136.959         16.3522 
        1.74876         136.478         16.2145 
        1.75489         135.337         16.0787 
        1.76101         134.627         15.9445 
        1.76715         134.041         15.8116 
        1.77329         133.701         15.6801 
        1.77943         132.431           15.55 
        1.78557         131.847         15.4216 
        1.79171         131.116         15.2947 
        1.79785         130.232         15.1691 
        1.80399         129.538          15.045 
        1.81012         128.822         14.9224 
        1.81625         128.172         14.8013 
        1.82239         127.658         14.6813 
        1.82853         126.923         14.5627 
        1.83466         126.036         14.4456 
        1.84078         125.588         14.3298 
        1.84692          124.42         14.2152 
        1.85306         124.237         14.1016 
         1.8592         123.256         13.9895 
        1.86533         122.335         13.8787 
        1.87147         121.737         13.7689 
        1.87761         121.271         13.6603 
        1.88375         120.155          13.553 
        1.88988          119.74         13.4469 
        1.89601         118.958          13.342 
        1.90215         118.429          13.238 
        1.90829         117.829         13.1352 
        1.91442         117.175         13.0335 
        1.92056         116.465          12.933 
         1.9267         116.039         12.8334 
        1.93284         115.396         12.7349 
        1.93897         114.522         12.6375 
        1.94509         114.142         12.5414 
        1.95123         113.467          12.446 
        1.95737         112.941         12.3516 
        1.96349         112.257         12.2584 
        1.96964         111.297         12.1658 
        1.97578         110.717         12.0742 
        1.98192         110.492         11.9838 
        1.98805         109.471         11.8942 
        1.99419         109.176         11.8056 
        2.00033         108.445         11.7178 
        2.00647         108.008         11.6309 
         2.0126         107.157         11.5451 
        2.01874         106.654           11.46 
        2.02488         106.184         11.3757 
        2.03101         105.395         11.2924 
        2.03714         104.838           11.21 
        2.04328         104.426         11.1283 
        2.04941         103.776         11.0475 
        2.05554         103.065         10.9676 
        2.06167         102.769         10.8883 
        2.06781          102.13         10.8099 
        2.07396         101.424         10.7321 
        2.08009         101.027         10.6552 
        2.08622         100.535         10.5791 
        2.09237         99.7236         10.5036 
        2.09851         99.3799         10.4289 
        2.10464         98.8157          10.355 
        2.11077         98.4425         10.2819 
        2.11691         97.9402         10.2094 
        2.12305         97.0404         10.1375 
        2.12918         96.5697         10.0666 
        2.13531          96.226         9.99627 
        2.14145         95.4574         9.92648 
         2.1476         94.8902         9.85727 
        2.15372         94.6049         9.78907 
        2.15985         94.1896         9.72145 
        2.16599         93.6294         9.65428 
        2.17213         92.9618         9.58781 
        2.17827         92.6781         9.52198 
         2.1844         91.9431         9.45683 
        2.19054         91.6933         9.39227 
        2.19666         91.1983          9.3284 
         2.2028         90.6931         9.26507 
        2.20893         90.1491          9.2023 
        2.21508         89.5807         9.14004 
        2.22122         89.1389         9.07833 
        2.22736         88.7824         9.01733 
        2.23349         88.3907          8.9569 
        2.23962          87.722         8.89699 
        2.24577         87.4204         8.83758 
         2.2519         87.0352         8.77879 
        2.25802         86.2654         8.72064 
        2.26417         85.9609         8.66285 
        2.27031         85.5268         8.60552 
        2.27644         85.0074         8.54889 
        2.28257         84.5274         8.49277 
        2.28872         84.0978         8.43705 
        2.29486         83.6041         8.38184 
        2.30099         83.2374         8.32723 
        2.30712         82.8297         8.27309 
        2.31326         82.3947         8.21934 
         2.3194         81.8614          8.1661 
        2.32553         81.5164         8.11342 
        2.33166          81.048         8.06123 
         2.3378         80.5834         8.00942 
        2.34394         80.2205         7.95806 
        2.35007         79.7397         7.90721 
        2.35619         79.3786         7.85688 
        2.36233         78.9429         7.80686 
        2.36848         78.4581         7.75717 
        2.37462         78.0281         7.70803 
        2.38075         77.7798         7.65935 
        2.38689          77.246         7.61106 
        2.39303          76.803         7.56319 
        2.39916         76.4104         7.51579 
        2.40529         76.1996         7.46879 
        2.41143         75.6441         7.42216 
        2.41757         75.3487         7.37591 
         2.4237          75.003         7.33014 
        2.42983         74.5012         7.28477 
        2.43598         74.1677         7.23965 
        2.44211         73.8616           7.195 
        2.44823         73.4455         7.15082 
        2.45437         72.9068         7.10689 
        2.46052         72.5419          7.0633 
        2.46665         72.2974         7.02014 
        2.47279          71.889         6.97737 
        2.47892         71.5497         6.93492 
        2.48507         71.0491         6.89278 
         2.4912         70.7793         6.85108 
