#  k  (h/Mpc)          P(k)  (Mpc/h)^3     P_linear(k) (Mpc/h)^3
     0.00783031         8186.28         8287.21 
       0.013688         11063.3         11000.9 
       0.019231         11826.8         11828.2 
      0.0249154         11362.8           11571 
      0.0312784         10475.7         10594.6 
      0.0375637         9384.92         9424.15 
      0.0433917         8268.11         8432.56 
      0.0492413         7552.68         7637.68 
      0.0555754          6792.9         7007.25 
      0.0619321         6511.98         6547.47 
       0.067871         6002.98         6190.08 
      0.0738098         5643.67         5832.57 
      0.0800417         5174.23         5415.35 
      0.0862327         4779.65         4955.67 
      0.0921407         4393.79         4502.16 
      0.0982031         3947.18         4061.44 
       0.104506         3662.16         3666.58 
       0.110769          3359.4         3357.71 
       0.116806         3123.97         3137.49 
       0.122832         2980.37         2977.15 
       0.129052         2795.18         2848.23 
       0.135211         2680.53         2730.48 
       0.141259         2586.68         2604.83 
       0.147318         2460.29         2460.38 
       0.153489         2275.91         2296.82 
       0.159709         2149.81         2126.67 
       0.165845         2051.24         1967.72 
       0.171974         1914.82         1829.36 
       0.178125         1812.65         1716.87 
       0.184229         1737.65         1630.89 
        0.19034         1633.82         1564.95 
       0.196428         1612.65         1510.98 
       0.202534         1566.38         1459.99 
       0.208729         1501.69         1404.66 
       0.214876         1434.37         1342.95 
       0.220989         1394.54          1275.5 
       0.227147         1321.85         1204.99 
        0.23329         1267.96         1136.82 
       0.239377         1242.33         1075.63 
       0.245482         1161.66         1023.09 
       0.251667         1152.46         979.291 
       0.257832         1111.42         943.616 
       0.263955         1077.75         913.387 
       0.270079         1044.46         885.284 
        0.27624         1035.64         856.665 
       0.282372         992.181         826.334 
        0.28843          977.07         794.404 
       0.294538         930.787         761.123 
       0.300721         927.132         727.816 
        0.30691         886.253         696.445 
       0.313033         869.566         668.435 
       0.319153         848.279         643.925 
       0.325316         822.315         622.456 
        0.33145         802.304         603.569 
       0.337538         793.427         586.228 
       0.343633         770.862         569.356 
       0.349808         747.036         552.079 
       0.355968         742.679         534.383 
       0.362074         730.423         516.539 
       0.368217         710.622         498.668 
       0.374374         683.268         481.386 
       0.380519         679.283         465.179 
       0.386598         664.238         450.453 
       0.392688         661.648         437.027 
        0.39888         642.486         424.534 
       0.405048         632.195         412.976 
       0.411186          621.46         401.978 
       0.417313         610.383         391.211 
       0.423458         600.992         380.485 
       0.429607         589.403         369.757 
       0.435692         576.937         359.237 
       0.441815          573.76         348.908 
       0.447964         562.221         338.933 
       0.454126         548.056         329.454 
       0.460267          540.78         320.602 
       0.466387         535.013         312.325 
        0.47254         525.025         304.465 
       0.478662         523.761         297.008 
       0.484765         509.355         289.828 
       0.490885         504.508          282.78 
       0.497035         495.556         275.808 
       0.503198          488.19         268.952 
       0.509342         484.373         262.267 
       0.515458         480.039         255.795 
       0.521598          471.09         249.529 
       0.527764          461.74         243.512 
       0.533884         459.824         237.814 
           0.54         453.886         232.366 
       0.546137         452.416         227.114 
       0.552299         443.795         222.029 
       0.558452         440.792         217.106 
       0.564573         433.681         212.332 
       0.570708         427.552         207.645 
       0.576825         419.974         203.078 
       0.582926         418.079         198.643 
       0.589034         413.785         194.334 
       0.595184         410.176         190.137 
       0.601379         406.086          186.05 
       0.607522         399.471         182.135 
       0.613639         398.344         178.368 
       0.619772         388.302         174.717 
       0.625918         387.372          171.17 
       0.632068         382.217         167.718 
       0.638161         380.807         164.382 
         0.6443         373.798         161.099 
       0.650464         371.473         157.884 
       0.656582         370.431         154.775 
       0.662703         366.946         151.751 
       0.668861         360.763         148.797 
       0.675024         357.655         145.927 
       0.681124          356.24         143.168 
       0.687237         352.041         140.478 
       0.693381         347.329         137.847 
       0.699536         344.394         135.279 
       0.705665         342.627         132.788 
       0.711789         338.738         130.362 
       0.717957         336.397          127.98 
        0.72409         333.114         125.671 
       0.730186          329.78         123.432 
       0.736317         326.885         121.236 
       0.742472         325.636         119.085 
       0.748622         322.793         116.989 
        0.75476         319.996         114.948 
       0.760888         315.893         112.961 
       0.767043         315.647         111.014 
       0.773185         311.512         109.118 
       0.779291         306.806         107.278 
       0.785407         305.996          105.48 
       0.791564         303.097         103.711 
       0.797719         300.526         101.985 
       0.803834         298.661          100.31 
       0.809972         296.341         98.6661 
       0.816124         296.814         97.0559 
       0.822261         291.631         95.4861 
       0.828378         290.187         93.9562 
       0.834502          289.41         92.4587 
       0.840667         284.775         90.9846 
       0.846816         283.961         89.5472 
       0.852925         281.686         88.1503 
       0.859047         280.042         86.7807 
       0.865192         277.911         85.4361 
       0.871341         275.142         84.1195 
       0.877463         273.541         82.8371 
       0.883569         271.513         81.5849 
       0.889708           269.5         80.3526 
       0.895864         266.232          79.143 
       0.902008         265.874         77.9611 
       0.908149         264.379         76.8043 
       0.914301         261.369         75.6694 
       0.920448         259.265         74.5588 
       0.926574         258.012         73.4746 
       0.932687         257.446         72.4146 
       0.938823         254.449          71.372 
       0.944975         252.965         70.3477 
       0.951105         251.663         69.3474 
       0.957225         249.038         68.3685 
       0.963368         246.461         67.4054 
       0.969511         245.293         66.4611 
       0.975621         243.473         65.5401 
       0.981748         243.696         64.6344 
       0.987916         240.574         63.7403 
        0.99406         238.761         62.8667 
        1.00019         238.583         62.0114 
        1.00632         236.294         61.1729 
        1.01246         234.648         60.3489 
        1.01859         233.712         59.5415 
        1.02471         231.831         58.7501 
        1.03085         229.327         57.9704 
        1.03698         228.274         57.2067 
        1.04314          226.97         56.4537 
        1.04929         224.976         55.7161 
        1.05541         224.388         54.9949 
        1.06154         222.604         54.2847 
        1.06769         222.192         53.5861 
        1.07382         220.499         52.9023 
        1.07993         218.738         52.2321 
        1.08607         217.622         51.5708 
        1.09222         216.268         50.9204 
        1.09836         214.319         50.2822 
        1.10449         212.523         49.6557 
        1.11063          211.18         49.0393 
        1.11677         210.748         48.4336 
         1.1229         208.773         47.8394 
        1.12903         207.799         47.2547 
        1.13518         207.002         46.6794 
        1.14131          205.15         46.1141 
        1.14745         204.637         45.5586 
        1.15359         202.797         45.0122 
        1.15973          202.48         44.4747 
        1.16584         200.202         43.9484 
        1.17197         199.583         43.4299 
        1.17811           198.3         42.9184 
        1.18424         197.102         42.4166 
        1.19038         196.489         41.9215 
        1.19652         195.082         41.4345 
        1.20267         193.995         40.9554 
        1.20881         192.569          40.484 
        1.21495         191.448         40.0209 
        1.22108           190.8         39.5651 
         1.2272         189.146         39.1176 
        1.23334         188.088          38.676 
        1.23949          186.35         38.2403 
        1.24562         185.877         37.8125 
        1.25174         183.567          37.392 
        1.25789         183.047         36.9767 
        1.26402         182.281         36.5684 
        1.27014         181.046         36.1674 
        1.27628         180.247         35.7712 
        1.28244         179.488         35.3803 
        1.28858         178.294         34.9957 
        1.29471         176.416         34.6178 
        1.30084         175.708         34.2459 
        1.30697         174.788         33.8789 
        1.31312         174.227         33.5168 
        1.31925         172.882         33.1612 
        1.32537         172.226         32.8112 
        1.33151         170.489          32.465 
        1.33765         170.053          32.124 
        1.34378         168.838         31.7887 
        1.34992         168.216         31.4579 
        1.35606         167.175         31.1312 
         1.3622         166.265         30.8097 
        1.36833         165.097         30.4936 
        1.37445         163.849         30.1821 
        1.38059          163.61         29.8741 
        1.38675          162.22         29.5696 
        1.39288         161.725         29.2706 
        1.39901         161.104          28.976 
        1.40515         160.025         28.6847 
         1.4113         158.217         28.3976 
        1.41742         158.017         28.1156 
        1.42355         156.741         27.8369 
         1.4297         155.872         27.5612 
        1.43585         154.636         27.2893 
        1.44198         154.506         27.0222 
        1.44809         153.268         26.7592 
        1.45423         152.036         26.4987 
        1.46036         151.678         26.2423 
        1.46649         150.843         25.9891 
        1.47263         150.248         25.7391 
        1.47877         149.212         25.4925 
        1.48491         148.023         25.2488 
        1.49104         147.362         25.0088 
        1.49718         146.058         24.7718 
        1.50333         145.516         24.5375 
        1.50947         144.746         24.3067 
         1.5156         144.117         24.0793 
        1.52172         143.104         23.8548 
        1.52787         142.536         23.6328 
          1.534         141.807         23.4138 
        1.54013          140.53         23.1979 
        1.54627         140.052         22.9843 
        1.55241         139.163         22.7734 
        1.55855          138.58         22.5654 
        1.56467         137.808         22.3607 
         1.5708         136.845         22.1579 
        1.57695         136.297         21.9574 
        1.58308         135.345         21.7598 
        1.58922         135.113         21.5645 
        1.59535         134.045         21.3717 
         1.6015         133.495          21.181 
        1.60764         132.525         20.9927 
        1.61376         132.028         20.8073 
        1.61989         131.288          20.624 
        1.62604         130.444         20.4425 
        1.63218         129.878         20.2633 
        1.63831         128.971         20.0866 
        1.64444         128.364         19.9121 
        1.65059         127.671         19.7392 
        1.65673         126.683         19.5685 
        1.66285         126.575         19.4004 
        1.66898         125.545         19.2342 
        1.67512         124.948         19.0696 
        1.68127         124.092         18.9069 
         1.6874         123.192         18.7464 
        1.69353         122.688         18.5878 
        1.69967         122.216         18.4308 
        1.70581         121.517         18.2756 
        1.71193         120.955         18.1229 
        1.71806         119.985         17.9715 
        1.72421         119.659         17.8216 
        1.73035         118.734         17.6736 
        1.73649         118.098         17.5273 
        1.74262          117.65         17.3828 
        1.74876         116.983         17.2399 
        1.75489         116.024         17.0988 
        1.76101         115.761         16.9594 
        1.76715         114.711         16.8214 
        1.77329         114.452         16.6847 
        1.77943         113.786         16.5495 
        1.78557         113.243         16.4161 
        1.79171         112.511          16.284 
        1.79785         111.965         16.1534 
        1.80399         111.421         16.0243 
        1.81012         110.852         15.8968 
        1.81625         110.102         15.7707 
        1.82239         109.805         15.6458 
        1.82853         109.332         15.5223 
        1.83466         108.405         15.4003 
        1.84078         108.224         15.2798 
        1.84692         107.245         15.1603 
        1.85306         106.569          15.042 
         1.8592         105.988         14.9251 
        1.86533         105.572         14.8096 
        1.87147         104.663         14.6951 
        1.87761         104.412         14.5818 
        1.88375         103.867         14.4699 
        1.88988         103.221         14.3592 
        1.89601         102.708         14.2497 
        1.90215         102.299         14.1412 
        1.90829         101.622         14.0339 
        1.91442         101.277         13.9277 
        1.92056         100.597         13.8227 
         1.9267         100.102         13.7187 
        1.93284         99.2853         13.6157 
        1.93897         98.9251          13.514 
        1.94509         98.4504         13.4136 
        1.95123         97.8919         13.3139 
        1.95737         97.6908         13.2151 
        1.96349         96.8906         13.1176 
        1.96964         96.0749         13.0209 
        1.97578         96.0593          12.925 
        1.98192         95.3179         12.8304 
        1.98805         94.6929         12.7366 
        1.99419         94.1284         12.6438 
        2.00033         93.8417         12.5519 
        2.00647         93.3687          12.461 
         2.0126          92.789         12.3711 
        2.01874         92.1983         12.2819 
        2.02488         91.8429         12.1936 
        2.03101         91.4594         12.1063 
        2.03714         90.7616         12.0199 
        2.04328         90.3432         11.9343 
        2.04941         89.7277         11.8496 
        2.05554         89.4584         11.7658 
        2.06167         88.9853         11.6827 
        2.06781         88.3849         11.6004 
        2.07396         88.0148         11.5187 
        2.08009         87.5213          11.438 
        2.08622         87.1686         11.3582 
        2.09237         86.6614         11.2789 
        2.09851         86.2704         11.2005 
        2.10464         85.8034         11.1229 
        2.11077         85.1687         11.0461 
        2.11691         84.9527         10.9699 
        2.12305         84.4207         10.8944 
        2.12918         83.9724         10.8198 
        2.13531         83.5939         10.7459 
        2.14145         82.9246         10.6725 
         2.1476         82.6992         10.5997 
        2.15372         82.2726          10.528 
        2.15985         81.8215         10.4569 
        2.16599         81.4078         10.3862 
        2.17213         80.9914         10.3163 
        2.17827         80.5558          10.247 
         2.1844         80.0644         10.1784 
        2.19054         79.7768         10.1105 
        2.19666         79.2757         10.0432 
         2.2028         79.0248         9.97653 
        2.20893         78.5074         9.91042 
        2.21508         78.0257         9.84483 
        2.22122         77.8814         9.77982 
        2.22736          77.265         9.71554 
        2.23349         76.9583         9.65184 
        2.23962         76.4292         9.58869 
        2.24577         75.9821         9.52606 
         2.2519         75.7794         9.46407 
        2.25802         75.3115         9.40273 
        2.26417         74.8607         9.34177 
        2.27031          74.648          9.2813 
        2.27644         74.1576         9.22154 
        2.28257         73.7377         9.16232 
        2.28872         73.4545          9.1035 
        2.29486         73.1336         9.04522 
        2.30099         72.6395         8.98756 
        2.30712         72.3329         8.93039 
        2.31326         71.8471         8.87362 
         2.3194         71.6471         8.81738 
        2.32553         71.1343         8.76173 
        2.33166         70.7372         8.70658 
         2.3378          70.391         8.65183 
        2.34394         69.9423         8.59754 
        2.35007         69.6199          8.5438 
        2.35619         69.2265         8.49058 
        2.36233         68.9419         8.43769 
        2.36848          68.639         8.38514 
        2.37462         68.3323         8.33316 
        2.38075         68.0355         8.28167 
        2.38689         67.6266         8.23057 
        2.39303         67.3282         8.17992 
        2.39916         67.1288         8.12974 
        2.40529         66.5961         8.07999 
        2.41143         66.2607         8.03063 
        2.41757           66.01         7.98165 
         2.4237         65.6221         7.93318 
        2.42983         65.2248         7.88512 
        2.43598         64.8841         7.83733 
        2.44211         64.6029         7.79001 
        2.44823         64.3305          7.7432 
        2.45437         63.8378         7.69664 
        2.46052         63.5286         7.65043 
        2.46665         63.2647         7.60468 
        2.47279         62.9904         7.55932 
        2.47892         62.7225         7.51431 
        2.48507         62.2928         7.46962 
         2.4912          62.118         7.42538 
