# k  (h/Mpc)    Pcb(k)  (Mpc/h)^3    Pcb_linear(k)  (Mpc/h)^3
     0.00783031         6767.42         6804.64 
       0.013688         8396.39          8558.9 
       0.019231         8648.77         8737.55 
      0.0249154         8097.22         8082.65 
      0.0312784         6917.57         6952.32 
      0.0375637         5800.61         5858.27 
      0.0433917         5050.24         5053.81 
      0.0492413         4455.73         4485.03 
      0.0555754         4087.18         4085.82 
      0.0619321         3728.31         3814.61 
       0.067871          3550.5         3590.89 
      0.0738098         3315.82         3338.92 
      0.0800417         3015.63         3025.08 
      0.0862327         2666.91         2682.77 
      0.0921407         2361.89            2365 
      0.0982031         2109.07         2083.65 
       0.104506         1865.08         1860.73 
       0.110769         1723.05         1710.52 
       0.116806          1653.2         1618.39 
       0.122832         1568.47         1555.49 
       0.129052         1508.73          1496.5 
       0.135211         1454.81         1425.36 
       0.141259         1350.66         1335.84 
       0.147318         1236.67         1230.56 
       0.153489         1141.72         1118.87 
       0.159709         1063.47          1015.3 
       0.165845         962.721         931.625 
       0.171974         930.128         869.945 
       0.178125          890.34         827.728 
       0.184229          837.91         799.025 
        0.19034         823.765         775.497 
       0.196428         798.853         750.095 
       0.202534          747.75         718.263 
       0.208729         727.821         678.783 
       0.214876         691.845         635.137 
       0.220989         640.201         591.686 
       0.227147         618.984         552.138 
        0.23329         591.245         519.653 
       0.239377         576.944         495.014 
       0.245482           548.7         476.645 
       0.251667         528.384         462.081 
       0.257832         523.554         448.818 
       0.263955         496.091         434.555 
       0.270079          478.27         417.995 
        0.27624         457.129         399.097 
       0.282372         444.041         379.095 
        0.28843         438.272         359.697 
       0.294538         415.028         341.852 
       0.300721         399.707         326.452 
        0.30691         392.952          313.84 
       0.313033         375.778         303.666 
       0.319153         369.704         294.899 
       0.325316         360.659         286.533 
        0.33145         351.556         277.881 
       0.337538         339.235         268.628 
       0.343633         328.509         258.704 
       0.349808         319.135         248.398 
       0.355968          311.79         238.349 
       0.362074         302.948         229.123 
       0.368217         298.622         220.851 
       0.374374         291.524         213.625 
       0.380519         279.643         207.317 
       0.386598         275.307         201.637 
       0.392688         268.183         196.208 
        0.39888         262.155         190.669 
       0.405048         256.844         184.987 
       0.411186         254.159         179.207 
       0.417313         248.784         173.404 
       0.423458         242.115         167.731 
       0.429607         236.335         162.382 
       0.435692         232.131         157.492 
       0.441815         227.231          152.99 
       0.447964         220.927         148.864 
       0.454126         217.423             145 
       0.460267         214.881         141.296 
       0.466387         210.292         137.671 
        0.47254         207.765         134.044 
       0.478662          201.34         130.426 
       0.484765         198.803         126.855 
       0.490885          195.58         123.374 
       0.497035         193.228         120.027 
       0.503198         190.459         116.848 
       0.509342         185.387         113.866 
       0.515458         183.094         111.079 
       0.521598         178.794         108.425 
       0.527764         176.944         105.854 
       0.533884          176.12          103.36 
           0.54         171.738         100.914 
       0.546137         167.878         98.5053 
       0.552299         166.176         96.1325 
       0.558452         163.229         93.8199 
       0.564573         162.344         91.5918 
       0.570708         158.249         89.4483 
       0.576825         156.263         87.4115 
       0.582926         154.595         85.4694 
       0.589034         152.205         83.5986 
       0.595184         150.793         81.7739 
       0.601379         147.524         79.9845 
       0.607522         144.926         78.2548 
       0.613639         143.786         76.5755 
       0.619772         141.873         74.9339 
       0.625918         140.782         73.3306 
       0.632068         137.662         71.7699 
       0.638161         136.103         70.2688 
         0.6443         135.359         68.8043 
       0.650464         132.672         67.3844 
       0.656582         132.021         66.0232 
       0.662703         130.478         64.7052 
       0.668861         127.798         63.4178 
       0.675024          127.83         62.1632 
       0.681124         125.679          60.951 
       0.687237         123.759         59.7633 
       0.693381         122.826         58.5982 
       0.699536         121.332         57.4604 
       0.705665         119.787         56.3579 
       0.711789         118.287         55.2875 
       0.717957         116.894         54.2407 
        0.72409         115.963         53.2299 
       0.730186          115.49          52.253 
       0.736317         113.511         51.2965 
       0.742472             112         50.3606 
       0.748622         110.299         49.4483 
        0.75476         110.362         48.5594 
       0.760888         109.375         47.6926 
       0.767043         107.323         46.8427 
       0.773185         106.107         46.0148 
       0.779291         104.942         45.2116 
       0.785407         103.923         44.4267 
       0.791564         103.479         43.6561 
       0.797719         102.107         42.9049 
       0.803834         101.569         42.1768 
       0.809972         100.806         41.4636 
       0.816124         99.4272         40.7658 
       0.822261         98.3043         40.0863 
       0.828378          98.095         39.4245 
       0.834502         96.6433         38.7772 
       0.840667          96.093         38.1403 
       0.846816         95.2248         37.5194 
       0.852925         94.0922         36.9162 
       0.859047         93.6526          36.325 
       0.865192         92.5383         35.7449 
       0.871341         91.5456         35.1771 
       0.877463         90.9103         34.6243 
       0.883569         90.7392         34.0848 
       0.889708         89.8624         33.5542 
       0.895864         89.0839         33.0337 
       0.902008         88.1785         32.5254 
       0.908149         87.0855         32.0282 
       0.914301         86.9351         31.5407 
       0.920448         86.6176         31.0639 
       0.926574         84.8507         30.5987 
       0.932687         84.6907         30.1441 
       0.938823         84.0336         29.6972 
       0.944975         83.0411         29.2584 
       0.951105         82.3661         28.8301 
       0.957225         82.2273         28.4112 
       0.963368         81.3347         27.9992 
       0.969511         80.7346         27.5954 
       0.975621         80.0228         27.2018 
       0.981748         79.3429          26.815 
       0.987916         78.7723         26.4332 
        0.99406         78.4757         26.0604 
        1.00019         77.4782         25.6956 
        1.00632         76.9626         25.3381 
        1.01246         76.4961          24.987 
        1.01859         76.1901         24.6431 
        1.02471         75.4243         24.3061 
        1.03085         74.7959         23.9744 
        1.03698         74.3472         23.6496 
        1.04314         73.7708         23.3294 
        1.04929         73.3285          23.016 
        1.05541         72.8491         22.7096 
        1.06154         72.4046         22.4081 
        1.06769         71.6965         22.1117 
        1.07382         71.0785         21.8216 
        1.07993         70.8906         21.5375 
        1.08607         70.3053         21.2572 
        1.09222         70.0474         20.9817 
        1.09836         69.3752         20.7114 
        1.10449         69.0062         20.4463 
        1.11063         68.4724         20.1855 
        1.11677         68.1468         19.9294 
         1.1229         67.5196         19.6782 
        1.12903          67.303         19.4312 
        1.13518         67.0382         19.1882 
        1.14131         66.3622         18.9496 
        1.14745         65.9346         18.7151 
        1.15359         65.1823         18.4846 
        1.15973         65.1795         18.2579 
        1.16584         64.6901         18.0361 
        1.17197         64.0994         17.8176 
        1.17811         63.7848         17.6021 
        1.18424         63.0646         17.3909 
        1.19038         63.0176         17.1824 
        1.19652          62.662         16.9775 
        1.20267         62.1859          16.776 
        1.20881         61.7999         16.5778 
        1.21495          61.496         16.3831 
        1.22108          61.304         16.1916 
         1.2272         60.6462         16.0037 
        1.23334         60.4166         15.8183 
        1.23949           60.02         15.6354 
        1.24562         59.6035         15.4559 
        1.25174         59.2492         15.2795 
        1.25789         59.1896         15.1053 
        1.26402         58.6803         14.9342 
        1.27014         58.4559         14.7662 
        1.27628         57.8629         14.6002 
        1.28244         57.7832         14.4365 
        1.28858         57.3597         14.2756 
        1.29471         56.9931         14.1175 
        1.30084         56.4788         13.9619 
        1.30697         56.5625         13.8084 
        1.31312         56.0371         13.6571 
        1.31925         55.6212         13.5085 
        1.32537         55.3724         13.3622 
        1.33151         55.0688         13.2177 
        1.33765         54.7808         13.0753 
        1.34378         54.5303         12.9354 
        1.34992         54.2036         12.7974 
        1.35606         53.7983         12.6611 
         1.3622         53.5909         12.5271 
        1.36833         53.2921         12.3953 
        1.37445         52.7929         12.2656 
        1.38059         52.7361         12.1372 
        1.38675         52.1764         12.0105 
        1.39288         52.1777          11.886 
        1.39901         51.7217         11.7634 
        1.40515         51.5432         11.6422 
         1.4113         51.4287         11.5228 
        1.41742         51.0394         11.4056 
        1.42355         50.7387         11.2897 
         1.4297         50.4878         11.1751 
        1.43585         50.1524         11.0622 
        1.44198         49.8373         10.9513 
        1.44809          49.552         10.8421 
        1.45423         49.3881         10.7339 
        1.46036         49.1289         10.6275 
        1.46649         48.9164         10.5225 
        1.47263         48.6161         10.4188 
        1.47877         48.4365         10.3165 
        1.48491          48.184         10.2155 
        1.49104         47.7783          10.116 
        1.49718         47.6373         10.0178 
        1.50333         47.4278          9.9208 
        1.50947         47.1475         9.82523 
         1.5156         46.9562         9.73108 
        1.52172          46.603         9.63816 
        1.52787         46.3918         9.54628 
          1.534         46.1573         9.45571 
        1.54013         46.1012         9.36641 
        1.54627         45.6475         9.27811 
        1.55241         45.4258         9.19094 
        1.55855         45.3363         9.10502 
        1.56467         44.9708         9.02043 
         1.5708         44.8953         8.93669 
        1.57695         44.6258         8.85389 
        1.58308            44.3         8.77233 
        1.58922         44.1307         8.69174 
        1.59535         43.9963          8.6122 
         1.6015         43.9093         8.53356 
        1.60764         43.5591         8.45593 
        1.61376         43.3178         8.37949 
        1.61989         43.0372         8.30393 
        1.62604         42.8815         8.22914 
        1.63218         42.6143         8.15532 
        1.63831         42.5285         8.08258 
        1.64444         42.2909         8.01071 
        1.65059         42.0624         7.93954 
        1.65673         41.8266         7.86931 
        1.66285         41.7509         7.80013 
        1.66898         41.3791         7.73176 
        1.67512         41.2784         7.66408 
        1.68127         41.0652         7.59715 
         1.6874         40.8575         7.53117 
        1.69353         40.7567         7.46602 
        1.69967          40.578         7.40148 
        1.70581         40.2473         7.33774 
        1.71193         40.0893         7.27499 
        1.71806         39.9346         7.21284 
        1.72421         39.7541          7.1513 
        1.73035         39.5423         7.09055 
        1.73649         39.2691         7.03051 
        1.74262         39.0216         6.97123 
        1.74876         39.0456         6.91259 
        1.75489         38.7508         6.85475 
        1.76101         38.6008         6.79759 
        1.76715         38.5057           6.741 
        1.77329         38.1374         6.68499 
        1.77943         38.1389          6.6296 
        1.78557         37.9655         6.57492 
        1.79171         37.7667         6.52084 
        1.79785          37.577         6.46737 
        1.80399         37.3943          6.4145 
        1.81012         37.2775         6.36231 
        1.81625         36.9663         6.31071 
        1.82239         36.8302         6.25961 
        1.82853         36.7123         6.20911 
        1.83466         36.5028         6.15921 
        1.84078         36.3573         6.10992 
        1.84692         36.1628         6.06109 
        1.85306         35.9542         6.01273 
         1.8592         35.8826         5.96498 
        1.86533         35.7125         5.91777 
        1.87147         35.5332         5.87102 
        1.87761         35.3119         5.82476 
        1.88375         35.2317         5.77906 
        1.88988         35.0898         5.73389 
        1.89601         34.8479         5.68918 
        1.90215         34.7266         5.64492 
        1.90829         34.5755         5.60115 
        1.91442         34.3928         5.55784 
        1.92056         34.2557         5.51503 
         1.9267         34.1933         5.47262 
        1.93284         33.9629         5.43064 
        1.93897         33.8843         5.38918 
        1.94509          33.647         5.34824 
        1.95123         33.5578         5.30762 
        1.95737         33.3409          5.2674 
        1.96349         33.2775         5.22769 
        1.96964         33.1231         5.18829 
        1.97578         32.9004         5.14927 
        1.98192         32.7722         5.11073 
        1.98805         32.6007         5.07259 
        1.99419         32.4993         5.03483 
        2.00033         32.3317         4.99744 
        2.00647         32.2724         4.96044 
         2.0126         32.0624         4.92388 
        2.01874          31.924         4.88763 
        2.02488         31.7529         4.85172 
        2.03101         31.6036         4.81623 
        2.03714         31.5052         4.78114 
        2.04328         31.3891         4.74635 
        2.04941         31.2108         4.71194 
        2.05554         31.0921          4.6779 
        2.06167         30.9427         4.64414 
        2.06781         30.8387         4.61072 
        2.07396         30.6986         4.57758 
        2.08009          30.552         4.54482 
        2.08622         30.4151         4.51242 
        2.09237         30.3234         4.48027 
        2.09851         30.1485         4.44843 
        2.10464         29.9877         4.41696 
        2.11077         29.9522         4.38582 
        2.11691         29.7338         4.35492 
        2.12305         29.6071         4.32432 
        2.12918          29.504         4.29408 
        2.13531         29.3904         4.26413 
        2.14145         29.2741          4.2344 
         2.1476         29.1006         4.20492 
        2.15372         29.0401         4.17586 
        2.15985         28.8559         4.14706 
        2.16599         28.6876         4.11844 
        2.17213         28.6252         4.09013 
        2.17827         28.5012         4.06208 
         2.1844         28.3902         4.03433 
        2.19054          28.295         4.00683 
        2.19666         28.1203         3.97962 
         2.2028         28.0568         3.95264 
        2.20893         27.9423          3.9259 
        2.21508         27.8179         3.89938 
        2.22122         27.6733         3.87309 
        2.22736         27.5456          3.8471 
        2.23349         27.4216         3.82136 
        2.23962         27.3311         3.79584 
        2.24577         27.2166         3.77053 
         2.2519         27.0837         3.74548 
        2.25802         26.9522          3.7207 
        2.26417         26.8198         3.69608 
        2.27031         26.7687         3.67166 
        2.27644          26.692         3.64753 
        2.28257         26.5447         3.62362 
        2.28872         26.4698         3.59988 
        2.29486         26.3093         3.57636 
        2.30099         26.1597          3.5531 
        2.30712         26.1004         3.53003 
        2.31326         25.9655         3.50713 
         2.3194          25.883         3.48445 
        2.32553         25.7805           3.462 
        2.33166         25.6636         3.43977 
         2.3378         25.5742         3.41769 
        2.34394         25.4515         3.39581 
        2.35007         25.3957         3.37415 
        2.35619         25.2938          3.3527 
        2.36233         25.1188         3.33139 
        2.36848         25.0184         3.31022 
        2.37462         24.9785         3.28928 
        2.38075         24.8285         3.26855 
        2.38689          24.682         3.24797 
        2.39303         24.6779         3.22757 
        2.39916          24.497         3.20737 
        2.40529         24.4212         3.18735 
        2.41143         24.3141         3.16748 
        2.41757         24.1894         3.14777 
         2.4237         24.1262         3.12827 
        2.42983         24.0048         3.10894 
        2.43598          23.893         3.08971 
        2.44211         23.8246         3.07068 
        2.44823         23.6903         3.05186 
        2.45437         23.6854         3.03314 
        2.46052         23.5323         3.01456 
        2.46665         23.4447         2.99617 
        2.47279         23.3063         2.97794 
        2.47892         23.2392         2.95985 
        2.48507         23.1566          2.9419 
         2.4912         23.0856         2.92413 
