# k  (h/Mpc)    Pcb(k)  (Mpc/h)^3    Pcb_linear(k)  (Mpc/h)^3
     0.00783031         1640.55         1658.75 
       0.013688         1888.35         1891.16 
       0.019231         1758.19          1757.1 
      0.0249154         1469.49         1476.12 
      0.0312784          1154.8         1152.65 
      0.0375637         913.685         908.668 
      0.0433917         764.889         764.142 
      0.0492413         683.004         681.118 
      0.0555754         627.527         630.684 
      0.0619321         592.839         590.073 
       0.067871         540.244         542.352 
      0.0738098         479.302          480.82 
      0.0800417         407.337          409.08 
      0.0862327         343.883         343.159 
      0.0921407         295.844         294.078 
      0.0982031         261.348         260.609 
       0.104506         244.156         241.319 
       0.110769         233.585         231.671 
       0.116806         224.963         224.649 
       0.122832         215.768         214.666 
       0.129052         198.841         198.941 
       0.135211         179.456         179.124 
       0.141259         160.543         158.812 
       0.147318         143.483         140.925 
       0.153489         129.299         127.273 
       0.159709         120.622         118.469 
       0.165845         116.307         113.522 
       0.171974         111.908         110.412 
       0.178125         108.861         107.206 
       0.184229          104.42         102.644 
        0.19034         97.2315         96.3868 
       0.196428          90.848         89.0597 
       0.202534         84.3722         81.6603 
       0.208729         77.4754         75.0961 
       0.214876         72.1473         70.0725 
       0.220989         69.0788         66.5707 
       0.227147         66.0551         64.1576 
        0.23329          64.024         62.2609 
       0.239377         62.2627         60.3155 
       0.245482         59.2231         57.9454 
       0.251667          57.019         55.0518 
       0.257832         53.8713         51.8716 
       0.263955         50.8662         48.7488 
       0.270079         48.1127         45.9488 
        0.27624         46.1753         43.6263 
       0.282372         44.3801          41.812 
        0.28843         42.6281         40.3814 
       0.294538         41.2182         39.1253 
       0.300721         40.2346         37.8597 
        0.30691         38.5089          36.491 
       0.313033         37.0656         35.0096 
       0.319153         35.1599         33.4649 
       0.325316         34.2007         31.9339 
        0.33145         32.6744         30.5304 
       0.337538         31.5345         29.3029 
       0.343633         30.3122         28.2476 
       0.349808         29.4676         27.3171 
       0.355968         28.6152         26.4703 
       0.362074         27.7093         25.6577 
       0.368217         26.8456         24.8263 
       0.374374         25.9142         23.9737 
       0.380519          25.159         23.1134 
       0.386598         24.3797         22.2808 
       0.392688         23.7096         21.4937 
        0.39888         22.8895         20.7559 
       0.405048         22.2451         20.0883 
       0.411186         21.6584         19.4824 
       0.417313         20.9713         18.9155 
       0.423458         20.4173         18.3688 
       0.429607         19.8376         17.8327 
       0.435692         19.2212          17.305 
       0.441815         18.7573         16.7802 
       0.447964         18.3621         16.2679 
       0.454126         17.6624         15.7761 
       0.460267         17.2886         15.3115 
       0.466387         16.7332         14.8772 
        0.47254          16.407         14.4673 
       0.478662         16.0907         14.0798 
       0.484765          15.572         13.7077 
       0.490885         15.2068         13.3455 
       0.497035         14.9942         12.9909 
       0.503198         14.5546         12.6439 
       0.509342         14.1815         12.3069 
       0.515458         13.8378         11.9829 
       0.521598         13.5524         11.6714 
       0.527764          13.204         11.3729 
       0.533884         12.9862         11.0895 
           0.54         12.6633         10.8173 
       0.546137          12.423         10.5539 
       0.552299         12.1831         10.2981 
       0.558452         11.8124         10.0505 
       0.564573         11.6239         9.81121 
       0.570708         11.3844         9.57798 
       0.576825         11.0928         9.35235 
       0.582926         10.8737         9.13464 
       0.589034         10.5832         8.92436 
       0.595184         10.4208         8.72039 
       0.601379         10.1815         8.52227 
       0.607522         10.0202         8.33229 
       0.613639         9.87561         8.14883 
       0.619772         9.60057         7.97012 
       0.625918         9.51592         7.79602 
       0.632068         9.35724         7.62683 
       0.638161          9.1203         7.46412 
         0.6443         8.93331         7.30511 
       0.650464         8.74572          7.1504 
       0.656582         8.66897          7.0015 
       0.662703         8.49838         6.85695 
       0.668861         8.33902         6.71575 
       0.675024         8.16965         6.57845 
       0.681124         8.02337         6.44636 
       0.687237         7.89575         6.31759 
       0.693381          7.7805         6.19173 
       0.699536         7.56678         6.06908 
       0.705665         7.48576         5.95032 
       0.711789         7.34902         5.83489 
       0.717957         7.21835         5.72181 
        0.72409         7.09434         5.61241 
       0.730186         6.99183         5.50659 
       0.736317         6.91358         5.40297 
       0.742472         6.79779         5.30167 
       0.748622         6.68332         5.20308 
        0.75476         6.55062         5.10722 
       0.760888         6.45292         5.01392 
       0.767043         6.36896         4.92259 
       0.773185         6.24175         4.83373 
       0.779291         6.18553         4.74759 
       0.785407         6.08469         4.66343 
       0.791564         5.99265          4.5808 
       0.797719           5.878         4.50024 
       0.803834         5.83769         4.42215 
       0.809972         5.76317         4.34565 
       0.816124         5.64421         4.27081 
       0.822261         5.54558         4.19797 
       0.828378         5.47794         4.12705 
       0.834502         5.43321         4.05774 
       0.840667         5.32262         3.98958 
       0.846816         5.23205          3.9232 
       0.852925          5.1868         3.85877 
       0.859047         5.11298         3.79565 
       0.865192         5.06048         3.73376 
       0.871341         5.00208         3.67321 
       0.877463         4.92198          3.6143 
       0.883569         4.83706         3.55684 
       0.889708         4.76129         3.50034 
       0.895864         4.70287         3.44494 
       0.902008          4.6515         3.39087 
       0.908149         4.60373         3.33799 
       0.914301         4.53001         3.28617 
       0.920448         4.46641         3.23551 
       0.926574         4.40492          3.1861 
       0.932687         4.35379         3.13784 
       0.938823         4.30044         3.09041 
       0.944975          4.2453         3.04386 
       0.951105         4.19689         2.99844 
       0.957225         4.17543         2.95404 
       0.963368         4.11517         2.91039 
       0.969511         4.05673         2.86762 
       0.975621         4.00287         2.82596 
       0.981748         3.96012         2.78501 
       0.987916         3.91742         2.74463 
        0.99406         3.84875         2.70521 
        1.00019         3.80305         2.66664 
        1.00632         3.77718         2.62886 
        1.01246          3.7311         2.59177 
        1.01859         3.67924         2.55546 
        1.02471         3.64239         2.51989 
        1.03085          3.5978         2.48488 
        1.03698         3.55036         2.45061 
        1.04314          3.5203         2.41685 
        1.04929         3.47887         2.38381 
        1.05541         3.43608         2.35153 
        1.06154         3.40295         2.31976 
        1.06769         3.38369         2.28854 
        1.07382         3.32515           2.258 
        1.07993         3.28539         2.22809 
        1.08607         3.26838         2.19861 
        1.09222          3.2256         2.16963 
        1.09836         3.19221         2.14121 
        1.10449         3.16204         2.11334 
        1.11063         3.12016         2.08594 
        1.11677         3.09622         2.05903 
         1.1229         3.06619         2.03266 
        1.12903         3.02633         2.00672 
        1.13518         2.99647         1.98122 
        1.14131         2.95884         1.95618 
        1.14745         2.91968         1.93159 
        1.15359         2.90326         1.90742 
        1.15973         2.86464         1.88365 
        1.16584         2.84099          1.8604 
        1.17197         2.81258         1.83751 
        1.17811         2.79529         1.81494 
        1.18424         2.76376         1.79282 
        1.19038         2.74302           1.771 
        1.19652         2.71124         1.74956 
        1.20267         2.68475         1.72847 
        1.20881         2.66303         1.70774 
        1.21495         2.63642         1.68738 
        1.22108         2.61082         1.66736 
         1.2272         2.59192         1.64771 
        1.23334         2.55866         1.62833 
        1.23949         2.53189         1.60923 
        1.24562         2.51676         1.59048 
        1.25174         2.48759         1.57206 
        1.25789          2.4688         1.55388 
        1.26402         2.44425         1.53602 
        1.27014          2.4217         1.51849 
        1.27628         2.40537         1.50117 
        1.28244         2.37429          1.4841 
        1.28858         2.36194         1.46732 
        1.29471         2.33222         1.45083 
        1.30084         2.30922         1.43462 
        1.30697         2.30452         1.41863 
        1.31312         2.26488         1.40286 
        1.31925         2.25113         1.38738 
        1.32537         2.23011         1.37216 
        1.33151         2.21921          1.3571 
        1.33765         2.18954         1.34229 
        1.34378         2.17728         1.32772 
        1.34992         2.16227         1.31337 
        1.35606         2.13005         1.29919 
         1.3622          2.1235         1.28525 
        1.36833         2.10192         1.27155 
        1.37445         2.08254         1.25806 
        1.38059         2.07476         1.24473 
        1.38675         2.05928         1.23155 
        1.39288         2.03834         1.21862 
        1.39901         2.01471         1.20588 
        1.40515         2.00036          1.1933 
         1.4113         1.98742          1.1809 
        1.41742         1.97088         1.16873 
        1.42355         1.95669          1.1567 
         1.4297         1.93799         1.14481 
        1.43585         1.92664          1.1331 
        1.44198         1.91412         1.12159 
        1.44809         1.89378         1.11026 
        1.45423         1.87817         1.09905 
        1.46036         1.86099         1.08802 
        1.46649          1.8494         1.07713 
        1.47263         1.83263         1.06638 
        1.47877         1.81725         1.05579 
        1.48491         1.80404         1.04533 
        1.49104         1.79212         1.03502 
        1.49718         1.77973         1.02485 
        1.50333         1.76521         1.01481 
        1.50947         1.75235         1.00491 
         1.5156         1.73806        0.995166 
        1.52172          1.7252        0.985549 
        1.52787         1.71173        0.976042 
          1.534         1.69744        0.966671 
        1.54013         1.68635        0.957434 
        1.54627         1.67299        0.948301 
        1.55241         1.65852        0.939287 
        1.55855         1.64942        0.930402 
        1.56467         1.63952        0.921658 
         1.5708         1.62352        0.913002 
        1.57695         1.61328        0.904445 
        1.58308         1.60012        0.896018 
        1.58922         1.59165        0.887692 
        1.59535         1.57966        0.879476 
         1.6015         1.56698        0.871353 
        1.60764          1.5585        0.863337 
        1.61376         1.54848        0.855444 
        1.61989          1.5347        0.847644 
        1.62604         1.52282        0.839924 
        1.63218         1.51858        0.832305 
        1.63831         1.50231        0.824799 
        1.64444         1.49293        0.817383 
        1.65059         1.48385        0.810041 
        1.65673         1.47297        0.802798 
        1.66285         1.46216        0.795664 
        1.66898         1.45555        0.788614 
        1.67512         1.44078        0.781637 
        1.68127         1.43149        0.774738 
         1.6874         1.42789        0.767938 
        1.69353          1.4099        0.761224 
        1.69967         1.40164        0.754575 
        1.70581         1.39776        0.748008 
        1.71193         1.38459        0.741545 
        1.71806         1.37948        0.735144 
        1.72421         1.36889        0.728806 
        1.73035         1.35926        0.722551 
        1.73649         1.35082         0.71637 
        1.74262          1.3413        0.710267 
        1.74876         1.33461        0.704232 
        1.75489         1.32103        0.698279 
        1.76101         1.31397        0.692397 
        1.76715         1.30828        0.686574 
        1.77329         1.30041        0.680812 
        1.77943         1.28814        0.675114 
        1.78557         1.28027        0.669489 
        1.79171         1.27704        0.663928 
        1.79785         1.26469         0.65843 
        1.80399          1.2584        0.652994 
        1.81012         1.25147        0.647628 
        1.81625         1.24381        0.642325 
        1.82239         1.23461        0.637073 
        1.82853         1.22355        0.631883 
        1.83466         1.21927        0.626756 
        1.84078         1.21259        0.621691 
        1.84692         1.20627        0.616674 
        1.85306         1.19703        0.611707 
         1.8592         1.18917        0.606802 
        1.86533         1.18202        0.601954 
        1.87147         1.17671        0.597154 
        1.87761         1.16855        0.592404 
        1.88375         1.16051        0.587711 
        1.88988         1.15627        0.583075 
        1.89601         1.14773        0.578486 
        1.90215         1.13757        0.573943 
        1.90829         1.13064        0.569451 
        1.91442         1.12804        0.565007 
        1.92056         1.11957        0.560615 
         1.9267         1.11247        0.556265 
        1.93284         1.11031        0.551958 
        1.93897         1.10094        0.547706 
        1.94509         1.09465        0.543508 
        1.95123         1.08664        0.539343 
        1.95737         1.08107        0.535219 
        1.96349         1.07568        0.531149 
        1.96964         1.07042         0.52711 
        1.97578         1.06203        0.523111 
        1.98192          1.0571        0.519161 
        1.98805         1.05097        0.515252 
        1.99419         1.04785        0.511384 
        2.00033         1.04281        0.507553 
        2.00647         1.03289        0.503763 
         2.0126         1.02926        0.500017 
        2.01874         1.02139        0.496305 
        2.02488         1.01828        0.492626 
        2.03101         1.00908        0.488992 
        2.03714         1.00428        0.485399 
        2.04328         1.00077        0.481837 
        2.04941        0.992892        0.478314 
        2.05554        0.988577        0.474829 
        2.06167        0.982403        0.471374 
        2.06781        0.978987        0.467953 
        2.07396        0.972945        0.464562 
        2.08009         0.96768         0.46121 
        2.08622        0.962142        0.457894 
        2.09237        0.956631        0.454606 
        2.09851        0.951831        0.451349 
        2.10464        0.949185        0.448129 
        2.11077        0.942303        0.444945 
        2.11691        0.936782        0.441784 
        2.12305        0.932909        0.438654 
        2.12918        0.927861        0.435563 
        2.13531        0.921866        0.432501 
        2.14145        0.917766        0.429461 
         2.1476        0.910897        0.426447 
        2.15372        0.908036        0.423477 
        2.15985         0.90201        0.420532 
        2.16599        0.898233        0.417607 
        2.17213        0.891477        0.414714 
        2.17827        0.889881        0.411848 
         2.1844        0.885452        0.409012 
        2.19054        0.881855        0.406202 
        2.19666        0.876113        0.403422 
         2.2028        0.871345        0.400666 
        2.20893        0.868092        0.397935 
        2.21508        0.863407        0.395225 
        2.22122        0.856084        0.392541 
        2.22736        0.853457        0.389887 
        2.23349         0.85142        0.387258 
        2.23962        0.844694        0.384652 
        2.24577        0.841867        0.382068 
         2.2519        0.836548        0.379511 
        2.25802        0.832768        0.376982 
        2.26417         0.82874        0.374469 
        2.27031        0.825298        0.371976 
        2.27644         0.82023        0.369513 
        2.28257         0.81606        0.367073 
        2.28872         0.81279        0.364651 
        2.29486          0.8079        0.362251 
        2.30099        0.803725        0.359877 
        2.30712        0.799928        0.357524 
        2.31326        0.797689        0.355188 
         2.3194        0.794497        0.352874 
        2.32553        0.790991        0.350584 
        2.33166        0.785068        0.348316 
         2.3378        0.781185        0.346065 
        2.34394        0.776767        0.343834 
        2.35007        0.774051        0.341625 
        2.35619        0.771698        0.339438 
        2.36233        0.765761        0.337265 
        2.36848        0.762998        0.335107 
        2.37462        0.759854        0.332972 
        2.38075        0.756817        0.330858 
        2.38689        0.753123        0.328761 
        2.39303        0.748549        0.326682 
        2.39916        0.745713        0.324624 
        2.40529         0.74239        0.322583 
        2.41143        0.738547        0.320559 
        2.41757        0.735902        0.318551 
         2.4237        0.733575        0.316564 
        2.42983          0.7287        0.314594 
        2.43598        0.726363        0.312636 
        2.44211        0.723525        0.310697 
        2.44823        0.719265         0.30878 
        2.45437         0.71641        0.306873 
        2.46052        0.714313        0.304981 
        2.46665        0.709838        0.303109 
        2.47279        0.706518        0.301252 
        2.47892        0.702363        0.299411 
        2.48507        0.701019        0.297582 
         2.4912        0.696713        0.295773 
