# k  (h/Mpc)    Pcb(k)  (Mpc/h)^3    Pcb_linear(k)  (Mpc/h)^3
     0.00783031         918.774         926.946 
       0.013688         1221.83          1223.3 
       0.019231          1311.6         1312.02 
      0.0249154         1278.46         1286.15 
      0.0312784          1185.6         1187.93 
      0.0375637         1073.55         1072.28 
      0.0433917         972.157         975.287 
      0.0492413         896.568         896.833 
      0.0555754         826.546         831.386 
      0.0619321         780.257         777.905 
       0.067871         727.367         730.819 
      0.0738098         677.579         681.387 
      0.0800417         620.306          625.79 
      0.0862327         566.358         569.331 
      0.0921407         516.885         518.341 
      0.0982031          470.13         472.594 
       0.104506         435.296         434.107 
       0.110769           405.5         404.725 
       0.116806         381.121         382.745 
       0.122832         364.359         364.241 
       0.129052         344.096         346.015 
       0.135211         325.006         327.038 
       0.141259         306.781         307.056 
       0.147318         287.505         286.387 
       0.153489          266.11         265.986 
       0.159709         248.239         247.437 
       0.165845         234.992         231.931 
       0.171974         220.528         219.329 
       0.178125         210.553         209.073 
       0.184229         202.555         200.406 
        0.19034         192.354         192.328 
       0.196428         185.789         184.188 
       0.202534         178.713         175.622 
       0.208729         168.981         166.598 
       0.214876         159.188         157.673 
       0.220989         152.864         149.266 
       0.227147         143.522          141.63 
        0.23329         137.185         135.008 
       0.239377         132.224         129.378 
       0.245482         126.139          124.45 
       0.251667         122.982         119.903 
       0.257832         118.495         115.543 
       0.263955         114.162         111.203 
       0.270079         109.973           106.8 
        0.27624         106.592         102.361 
       0.282372         102.192         98.0542 
        0.28843         97.7821          94.034 
       0.294538         94.1012         90.3052 
       0.300721         91.5412         86.8963 
        0.30691         87.7317         83.8159 
       0.313033         85.0884          81.024 
       0.319153         81.3993         78.3956 
       0.325316         80.1001         75.8372 
        0.33145         77.2984         73.3287 
       0.337538         75.1393         70.8685 
       0.343633          72.554          68.451 
       0.349808         70.4197         66.0847 
       0.355968         68.2639         63.8409 
       0.362074         66.1286         61.7542 
       0.368217         64.2897         59.7984 
       0.374374          62.252         57.9669 
       0.380519          60.744         56.2458 
       0.386598          59.173         54.6195 
       0.392688         57.8659         53.0444 
        0.39888         56.2019         51.4855 
       0.405048         54.8719         49.9701 
       0.411186         53.5942          48.505 
       0.417313         51.7794          47.094 
       0.423458         50.5554         45.7379 
       0.429607         49.1593         44.4455 
       0.435692          47.749         43.2309 
       0.441815         46.8862         42.0665 
       0.447964         46.1163         40.9488 
       0.454126         44.4623         39.8725 
       0.460267         43.5843         38.8356 
       0.466387         42.3452         37.8327 
        0.47254         41.7004         36.8544 
       0.478662         40.9049         35.9111 
       0.484765         39.8041         35.0015 
       0.490885         38.8689         34.1222 
       0.497035         38.3731         33.2728 
       0.503198         37.4109          32.455 
       0.509342         36.5095         31.6705 
       0.515458         35.7411         30.9179 
       0.521598         35.1375         30.1882 
       0.527764          34.375         29.4788 
       0.533884         33.7882         28.7957 
           0.54         33.1219         28.1333 
       0.546137         32.5452         27.4885 
       0.552299         32.0051         26.8614 
       0.558452         31.0325         26.2554 
       0.564573         30.6567          25.672 
       0.570708         30.1402          25.106 
       0.576825         29.3758           24.56 
       0.582926         28.9132         24.0327 
       0.589034         28.1294         23.5209 
       0.595184         27.7612         23.0206 
       0.601379         27.2549         22.5312 
       0.607522         26.8382         22.0596 
       0.613639          26.555         21.6034 
       0.619772         25.8745          21.159 
       0.625918         25.7065         20.7267 
       0.632068         25.2827         20.3066 
       0.638161         24.7396         19.9022 
         0.6443         24.2517         19.5062 
       0.650464         23.8196         19.1198 
       0.656582         23.6553         18.7469 
       0.662703         23.2381          18.384 
       0.668861         22.8354         18.0288 
       0.675024         22.4223         17.6829 
       0.681124         22.0538         17.3495 
       0.687237         21.7304         17.0242 
       0.693381         21.4968         16.7057 
       0.699536          20.934          16.395 
       0.705665          20.774         16.0936 
       0.711789         20.4265         15.8002 
       0.717957         20.1336         15.5123 
        0.72409         19.8213         15.2333 
       0.730186         19.5744          14.963 
       0.736317          19.378         14.6979 
       0.742472         19.0749         14.4384 
       0.748622         18.8112         14.1854 
        0.75476         18.4358         13.9392 
       0.760888         18.2574         13.6991 
       0.767043         18.0412         13.4639 
       0.773185         17.6961         13.2347 
       0.779291         17.5769         13.0123 
       0.785407         17.3196         12.7947 
       0.791564         17.0358         12.5808 
       0.797719         16.7712         12.3719 
       0.803834         16.6654         12.1692 
       0.809972         16.5222         11.9704 
       0.816124         16.1638         11.7757 
       0.822261         15.9956         11.5859 
       0.828378         15.8048         11.4009 
       0.834502         15.6592         11.2198 
       0.840667         15.4229         11.0415 
       0.846816         15.1772         10.8677 
       0.852925         15.0463         10.6988 
       0.859047         14.8722         10.5331 
       0.865192          14.754         10.3705 
       0.871341         14.6064         10.2112 
       0.877463          14.385          10.056 
       0.883569         14.1664         9.90454 
       0.889708         13.9533         9.75543 
       0.895864         13.8832         9.60904 
       0.902008         13.7339           9.466 
       0.908149         13.5866           9.326 
       0.914301         13.4197         9.18864 
       0.920448         13.2141         9.05421 
       0.926574         13.0808         8.92298 
       0.932687          12.981         8.79466 
       0.938823         12.8072         8.66843 
       0.944975         12.6471         8.54443 
       0.951105         12.5517         8.42332 
       0.957225         12.4736          8.3048 
       0.963368         12.3151         8.18818 
       0.969511          12.199         8.07383 
       0.975621         12.0541         7.96231 
       0.981748         11.9344         7.85263 
       0.987916         11.8354         7.74435 
        0.99406         11.6593         7.63854 
        1.00019         11.4943         7.53494 
        1.00632         11.4851         7.43338 
        1.01246         11.3582         7.33357 
        1.01859         11.2034         7.23576 
        1.02471         11.1163         7.13988 
        1.03085         11.0193         7.04543 
        1.03698         10.8681          6.9529 
        1.04314         10.7981         6.86166 
        1.04929         10.6566         6.77229 
        1.05541          10.553         6.68489 
        1.06154         10.4672         6.59883 
        1.06769         10.4241         6.51418 
        1.07382         10.2635          6.4313 
        1.07993         10.1783         6.35007 
        1.08607         10.1094         6.26993 
        1.09222         10.0162          6.1911 
        1.09836          9.9208         6.11373 
        1.10449         9.82612         6.03779 
        1.11063         9.75176         5.96307 
        1.11677         9.67635         5.88965 
         1.1229         9.59448         5.81761 
        1.12903          9.5024         5.74673 
        1.13518         9.40191         5.67698 
        1.14131         9.30375         5.60844 
        1.14745         9.21022         5.54109 
        1.15359         9.16572         5.47484 
        1.15973         9.08646         5.40966 
        1.16584         8.97878         5.34584 
        1.17197         8.91578         5.28297 
        1.17811         8.86124         5.22093 
        1.18424          8.8033         5.16008 
        1.19038          8.7432         5.10004 
        1.19652         8.66002         5.04098 
        1.20267         8.55912         4.98287 
        1.20881         8.52691         4.92569 
        1.21495         8.45537         4.86951 
        1.22108         8.36636         4.81423 
         1.2272         8.33391         4.75994 
        1.23334         8.22561         4.70637 
        1.23949         8.16644         4.65351 
        1.24562         8.13392         4.60161 
        1.25174         8.04172         4.55059 
        1.25789         7.99194         4.50019 
        1.26402         7.93489         4.45065 
        1.27014         7.86529         4.40199 
        1.27628         7.81223         4.35391 
        1.28244         7.72375         4.30647 
        1.28858         7.70558         4.25981 
        1.29471         7.63092         4.21394 
        1.30084         7.56113          4.1688 
        1.30697         7.56452         4.12426 
        1.31312         7.42493         4.08032 
        1.31925         7.40568         4.03715 
        1.32537          7.3485         3.99466 
        1.33151         7.31858         3.95264 
        1.33765         7.22842         3.91125 
        1.34378         7.17753         3.87054 
        1.34992         7.14994         3.83039 
        1.35606         7.07985         3.79072 
         1.3622          7.0487         3.75169 
        1.36833          6.9988         3.71331 
        1.37445         6.95302         3.67549 
        1.38059         6.92056         3.63809 
        1.38675         6.86721         3.60112 
        1.39288         6.81074         3.56482 
        1.39901         6.74918         3.52904 
        1.40515         6.71773         3.49368 
         1.4113         6.67649         3.45882 
        1.41742         6.63331         3.42457 
        1.42355         6.58157         3.39072 
         1.4297         6.52523         3.35724 
        1.43585         6.50856         3.32422 
        1.44198         6.48149         3.29178 
        1.44809         6.40652         3.25983 
        1.45423         6.36409          3.2282 
        1.46036         6.32487         3.19704 
        1.46649         6.27331         3.16629 
        1.47263         6.23399         3.13592 
        1.47877         6.18902         3.10597 
        1.48491         6.15474         3.07636 
        1.49104         6.12779         3.04721 
        1.49718         6.08587         3.01841 
        1.50333         6.05064         2.98995 
        1.50947         6.01164         2.96191 
         1.5156         5.97504         2.93428 
        1.52172         5.94439           2.907 
        1.52787         5.90745         2.88002 
          1.534         5.86365         2.85341 
        1.54013         5.83914         2.82717 
        1.54627         5.78272         2.80122 
        1.55241         5.75272         2.77559 
        1.55855         5.73261         2.75032 
        1.56467         5.69293         2.72543 
         1.5708         5.65503         2.70079 
        1.57695         5.61418         2.67641 
        1.58308         5.57989          2.6524 
        1.58922         5.56533         2.62866 
        1.59535         5.52999         2.60523 
         1.6015         5.49482         2.58205 
        1.60764         5.46209         2.55917 
        1.61376         5.42997         2.53663 
        1.61989         5.40257         2.51434 
        1.62604         5.36412         2.49228 
        1.63218         5.35041         2.47049 
        1.63831         5.31295         2.44902 
        1.64444         5.28148          2.4278 
        1.65059         5.24078         2.40678 
        1.65673           5.223         2.38604 
        1.66285         5.18114         2.36559 
        1.66898         5.16541         2.34539 
        1.67512          5.1267         2.32538 
        1.68127         5.10238         2.30559 
         1.6874         5.08237         2.28607 
        1.69353          5.0366          2.2668 
        1.69967         5.02045          2.2477 
        1.70581         4.99779         2.22883 
        1.71193         4.97164         2.21025 
        1.71806         4.94699         2.19185 
        1.72421         4.91649         2.17362 
        1.73035         4.89664         2.15562 
        1.73649         4.86297         2.13783 
        1.74262         4.83121         2.12026 
        1.74876         4.82708         2.10287 
        1.75489         4.79624         2.08572 
        1.76101         4.75924         2.06876 
        1.76715         4.74098         2.05197 
        1.77329         4.71936         2.03535 
        1.77943         4.67944          2.0189 
        1.78557         4.67179         2.00266 
        1.79171         4.64132          1.9866 
        1.79785         4.61695         1.97072 
        1.80399         4.59692         1.95501 
        1.81012          4.5813         1.93949 
        1.81625         4.54672         1.92415 
        1.82239         4.52456         1.90896 
        1.82853         4.50228         1.89394 
        1.83466         4.49203         1.87909 
        1.84078         4.46469         1.86442 
        1.84692         4.44766         1.84989 
        1.85306         4.41329         1.83549 
         1.8592         4.39186         1.82127 
        1.86533         4.37467         1.80721 
        1.87147         4.35914         1.79328 
        1.87761         4.33589          1.7795 
        1.88375         4.30774         1.76588 
        1.88988         4.28773         1.75241 
        1.89601         4.27319         1.73908 
        1.90215         4.24842         1.72588 
        1.90829         4.22685         1.71282 
        1.91442         4.21247          1.6999 
        1.92056         4.18419         1.68712 
         1.9267         4.17462         1.67446 
        1.93284         4.15359         1.66193 
        1.93897         4.13144         1.64955 
        1.94509         4.10178         1.63732 
        1.95123         4.08588         1.62518 
        1.95737         4.06594         1.61316 
        1.96349         4.05354          1.6013 
        1.96964          4.0436         1.58952 
        1.97578          4.0168         1.57785 
        1.98192         4.00245         1.56633 
        1.98805         3.98347         1.55492 
        1.99419         3.96459         1.54362 
        2.00033         3.95622         1.53243 
        2.00647         3.93047         1.52136 
         2.0126         3.91709         1.51041 
        2.01874         3.88707         1.49956 
        2.02488         3.87771         1.48881 
        2.03101          3.8529         1.47818 
        2.03714         3.83751         1.46766 
        2.04328         3.82447         1.45724 
        2.04941          3.7967         1.44692 
        2.05554          3.7922         1.43672 
        2.06167         3.77339          1.4266 
        2.06781         3.76185         1.41657 
        2.07396         3.74798         1.40663 
        2.08009         3.72653          1.3968 
        2.08622         3.70447         1.38708 
        2.09237         3.70234         1.37743 
        2.09851         3.68091         1.36788 
        2.10464         3.66554         1.35843 
        2.11077         3.64877         1.34908 
        2.11691         3.63432         1.33979 
        2.12305         3.62246          1.3306 
        2.12918         3.61154         1.32152 
        2.13531         3.59254         1.31251 
        2.14145          3.5764         1.30358 
         2.1476         3.55844         1.29471 
        2.15372         3.54553         1.28598 
        2.15985         3.52993         1.27731 
        2.16599         3.51597         1.26871 
        2.17213         3.50003         1.26019 
        2.17827          3.4879         1.25175 
         2.1844         3.47409          1.2434 
        2.19054         3.46427         1.23512 
        2.19666         3.44551         1.22692 
         2.2028         3.43045          1.2188 
        2.20893         3.41804         1.21075 
        2.21508         3.40217         1.20275 
        2.22122         3.38817         1.19483 
        2.22736         3.37282           1.187 
        2.23349         3.36697         1.17924 
        2.23962         3.34754         1.17155 
        2.24577         3.33527         1.16392 
         2.2519         3.32393         1.15636 
        2.25802         3.31479         1.14889 
        2.26417         3.29954         1.14146 
        2.27031         3.28569         1.13409 
        2.27644         3.27552         1.12681 
        2.28257          3.2588          1.1196 
        2.28872         3.24809         1.11243 
        2.29486          3.2383         1.10533 
        2.30099         3.22303          1.0983 
        2.30712         3.20713         1.09133 
        2.31326         3.20057         1.08442 
         2.3194         3.18514         1.07756 
        2.32553         3.17316         1.07078 
        2.33166         3.16298         1.06406 
         2.3378         3.15054         1.05739 
        2.34394          3.1393         1.05077 
        2.35007         3.12548         1.04422 
        2.35619         3.12145         1.03773 
        2.36233         3.10643         1.03129 
        2.36848         3.09276         1.02488 
        2.37462         3.08322         1.01855 
        2.38075         3.07053         1.01227 
        2.38689         3.05957         1.00604 
        2.39303         3.05089        0.999868 
        2.39916         3.03728        0.993752 
        2.40529         3.02587        0.987688 
        2.41143         3.01548         0.98167 
        2.41757          3.0033          0.9757 
         2.4237         2.99383        0.969791 
        2.42983         2.97492        0.963932 
        2.43598         2.97824        0.958106 
        2.44211         2.95959        0.952338 
        2.44823         2.95366         0.94663 
        2.45437         2.93997        0.940954 
        2.46052         2.92864        0.935321 
        2.46665         2.92292        0.929743 
        2.47279         2.91038        0.924213 
        2.47892         2.90071        0.918725 
        2.48507         2.89332        0.913277 
         2.4912         2.87666        0.907883 
