# k  (h/Mpc)    Pcb(k)  (Mpc/h)^3    Pcb_linear(k)  (Mpc/h)^3
     0.00783031         840.425         848.467 
       0.013688         1058.56          1060.4 
       0.019231         1083.18         1083.33 
      0.0249154         1005.42         1010.59 
      0.0312784             885         885.643 
      0.0375637         767.439          765.61 
      0.0433917         676.238          677.08 
      0.0492413         613.208         612.695 
      0.0555754          561.13         563.402 
      0.0619321         525.827         524.012 
       0.067871         486.027         487.577 
      0.0738098         445.631         447.345 
      0.0800417         399.227         401.605 
      0.0862327         355.717         356.563 
      0.0921407         318.313         318.244 
      0.0982031         285.923         286.515 
       0.104506         263.602         262.284 
       0.110769          246.31         245.423 
       0.116806         232.784         233.221 
       0.122832         222.576         222.171 
       0.129052         209.126         209.782 
       0.135211         195.058         195.709 
       0.141259         181.013         180.674 
       0.147318         166.791         165.712 
       0.153489         152.639         151.988 
       0.159709         141.518         140.646 
       0.165845         133.931         132.088 
       0.171974         126.467         125.678 
       0.178125         121.434         120.527 
       0.184229         116.915         115.771 
        0.19034         110.793          110.69 
       0.196428         105.915         105.042 
       0.202534         100.624         98.9297 
       0.208729         94.0196         92.6887 
       0.214876         87.8728         86.9284 
       0.220989          83.787         81.9635 
       0.227147         78.8907         77.8476 
        0.23329         75.6025         74.5194 
       0.239377         73.0248         71.7377 
       0.245482         69.9274         69.1722 
       0.251667         67.9008         66.5555 
       0.257832         65.0684         63.8016 
       0.263955         62.2578         60.9341 
       0.270079         59.4679         58.0386 
        0.27624         57.1447         55.2467 
       0.282372         54.6074         52.7125 
        0.28843         52.1617          50.507 
       0.294538         50.1889         48.5776 
       0.300721         48.7983         46.8561 
        0.30691           46.86         45.2747 
       0.313033         45.3659         43.7593 
       0.319153         43.3475         42.2411 
       0.325316         42.4541         40.6898 
        0.33145         40.7765         39.1476 
       0.337538          39.391         37.6557 
       0.343633         37.8691         36.2447 
       0.349808         36.6698         34.9259 
       0.355968         35.5023         33.7286 
       0.362074         34.3539          32.645 
       0.368217         33.3479         31.6312 
       0.374374         32.2458          30.664 
       0.380519         31.4263         29.7221 
       0.386598         30.5406          28.803 
       0.392688         29.7567         27.8951 
        0.39888         28.7861         26.9925 
       0.405048         28.0007         26.1286 
       0.411186         27.2389         25.3135 
       0.417313         26.3126         24.5481 
       0.423458         25.6373         23.8293 
       0.429607         24.8909         23.1513 
       0.435692         24.1868         22.5115 
       0.441815          23.644         21.8912 
       0.447964         23.1844         21.2859 
       0.454126         22.3538         20.6933 
       0.460267         21.8464         20.1182 
       0.466387         21.1744         19.5636 
        0.47254         20.7651         19.0271 
       0.478662         20.3244         18.5159 
       0.484765         19.7303         18.0301 
       0.490885         19.2527         17.5655 
       0.497035         18.9673         17.1178 
       0.503198         18.4544         16.6856 
       0.509342         18.0109         16.2689 
       0.515458         17.5666         15.8666 
       0.521598         17.2179         15.4743 
       0.527764         16.7941         15.0915 
       0.533884          16.492         14.7237 
           0.54         16.1136         14.3692 
       0.546137         15.7979         14.0265 
       0.552299         15.4886         13.6951 
       0.558452         15.0234         13.3759 
       0.564573         14.8056          13.069 
       0.570708         14.5085         12.7714 
       0.576825         14.1349         12.4839 
       0.582926         13.8885         12.2057 
       0.589034         13.4926          11.935 
       0.595184         13.2827         11.6703 
       0.601379         12.9976         11.4116 
       0.607522         12.8001          11.163 
       0.613639          12.622         10.9234 
       0.619772         12.2814         10.6908 
       0.625918         12.1516         10.4649 
       0.632068         11.9516         10.2455 
       0.638161         11.6604         10.0345 
         0.6443         11.4216         9.82768 
       0.650464         11.1859         9.62588 
       0.656582           11.08         9.43115 
       0.662703         10.8712         9.24177 
       0.668861         10.6766          9.0566 
       0.675024          10.457         8.87648 
       0.681124         10.2689         8.70319 
       0.687237         10.1136         8.53426 
       0.693381         9.96463         8.36909 
       0.699536         9.69528         8.20806 
       0.705665         9.57977         8.05198 
       0.711789         9.42186         7.90013 
       0.717957         9.25747         7.75118 
        0.72409         9.10021         7.60693 
       0.730186         8.97213         7.46726 
       0.736317         8.87318         7.33037 
       0.742472         8.72731         7.19646 
       0.748622         8.57525         7.06605 
        0.75476         8.39059         6.93918 
       0.760888         8.28758         6.81566 
       0.767043          8.1867         6.69468 
       0.773185         8.01624         6.57692 
       0.779291         7.94067         6.46268 
       0.785407         7.81042         6.35101 
       0.791564          7.6872          6.2413 
       0.797719         7.56329         6.13425 
       0.803834         7.49223         6.03041 
       0.809972         7.40143         5.92862 
       0.816124         7.24728         5.82898 
       0.822261         7.13237         5.73193 
       0.828378         7.04799          5.6374 
       0.834502         6.98047         5.54494 
       0.840667         6.84403         5.45398 
       0.846816         6.73221         5.36533 
       0.852925         6.67282         5.27924 
       0.859047         6.58084         5.19487 
       0.865192         6.51099         5.11208 
       0.871341         6.43273         5.03107 
       0.877463         6.33769         4.95219 
       0.883569         6.22801         4.87522 
       0.889708         6.12854          4.7995 
       0.895864         6.07049         4.72521 
       0.902008         5.99125         4.65267 
       0.908149         5.92453          4.5817 
       0.914301         5.82547         4.51211 
       0.920448           5.747         4.44404 
       0.926574         5.67037         4.37763 
       0.932687         5.61644         4.31272 
       0.938823         5.54555         4.24891 
       0.944975          5.4699         4.18625 
       0.951105         5.41359         4.12508 
       0.957225         5.38275         4.06525 
       0.963368         5.30153         4.00642 
       0.969511         5.23166         3.94875 
       0.975621         5.15796         3.89254 
       0.981748         5.10795         3.83729 
       0.987916         5.04955         3.78276 
        0.99406         4.96682         3.72951 
        1.00019          4.9064          3.6774 
        1.00632         4.86972         3.62633 
        1.01246          4.8142         3.57616 
        1.01859          4.7532         3.52703 
        1.02471         4.69964         3.47889 
        1.03085         4.64763         3.43149 
        1.03698          4.5857         3.38507 
        1.04314          4.5457         3.33933 
        1.04929         4.48713         3.29454 
        1.05541         4.43667         3.25076 
        1.06154         4.39464         3.20767 
        1.06769         4.36341         3.16531 
        1.07382         4.29587         3.12385 
        1.07993         4.24282         3.08324 
        1.08607         4.21876         3.04318 
        1.09222         4.16797         3.00381 
        1.09836         4.13107         2.96518 
        1.10449         4.08436         2.92727 
        1.11063         4.03755            2.89 
        1.11677         4.00052         2.85339 
         1.1229          3.9584         2.81748 
        1.12903          3.9124         2.78217 
        1.13518         3.87782         2.74743 
        1.14131         3.82422         2.71331 
        1.14745         3.77311         2.67979 
        1.15359         3.75585         2.64684 
        1.15973         3.70604         2.61443 
        1.16584         3.67947         2.58271 
        1.17197         3.64179         2.55147 
        1.17811         3.61123         2.52066 
        1.18424         3.58305         2.49044 
        1.19038         3.54733         2.46064 
        1.19652         3.51123         2.43134 
        1.20267         3.47727         2.40252 
        1.20881         3.44133         2.37418 
        1.21495         3.41447         2.34634 
        1.22108         3.37985         2.31895 
         1.2272         3.35937         2.29207 
        1.23334         3.31437         2.26555 
        1.23949          3.2814         2.23939 
        1.24562         3.26368         2.21372 
        1.25174         3.22239         2.18849 
        1.25789         3.19902         2.16358 
        1.26402         3.16362          2.1391 
        1.27014         3.13406         2.11507 
        1.27628         3.11853         2.09133 
        1.28244         3.07688         2.06791 
        1.28858         3.05999         2.04489 
        1.29471         3.02621         2.02226 
        1.30084         2.99708         2.00001 
        1.30697         2.98666         1.97805 
        1.31312         2.93432          1.9564 
        1.31925         2.92319         1.93514 
        1.32537         2.89676         1.91422 
        1.33151           2.879         1.89353 
        1.33765         2.84172         1.87317 
        1.34378         2.81962         1.85314 
        1.34992         2.80877          1.8334 
        1.35606         2.76813          1.8139 
         1.3622         2.75703         1.79472 
        1.36833         2.73176         1.77587 
        1.37445          2.7063          1.7573 
        1.38059         2.69068         1.73894 
        1.38675         2.67573          1.7208 
        1.39288         2.64354         1.70299 
        1.39901         2.61849         1.68544 
        1.40515          2.6004          1.6681 
         1.4113         2.58119         1.65101 
        1.41742         2.56218         1.63423 
        1.42355         2.54702         1.61765 
         1.4297         2.51732         1.60125 
        1.43585         2.50566         1.58508 
        1.44198         2.48976         1.56921 
        1.44809         2.45896         1.55357 
        1.45423         2.44142          1.5381 
        1.46036         2.42239         1.52286 
        1.46649         2.40258         1.50783 
        1.47263         2.38304         1.49299 
        1.47877         2.36085         1.47835 
        1.48491         2.34532         1.46389 
        1.49104         2.33253         1.44965 
        1.49718         2.31575         1.43559 
        1.50333         2.29624          1.4217 
        1.50947         2.28153         1.40802 
         1.5156         2.26328         1.39454 
        1.52172         2.24711         1.38124 
        1.52787         2.22935         1.36809 
          1.534         2.21454         1.35512 
        1.54013         2.19669         1.34234 
        1.54627         2.17671          1.3297 
        1.55241         2.16095         1.31722 
        1.55855          2.1503         1.30491 
        1.56467         2.13543          1.2928 
         1.5708          2.1132         1.28081 
        1.57695         2.10331         1.26896 
        1.58308         2.08689         1.25728 
        1.58922         2.07523         1.24574 
        1.59535         2.05976         1.23435 
         1.6015         2.04564         1.22309 
        1.60764         2.03358         1.21198 
        1.61376         2.01926         1.20103 
        1.61989         2.00303         1.19021 
        1.62604         1.98803          1.1795 
        1.63218         1.98148         1.16893 
        1.63831         1.96031         1.15852 
        1.64444         1.94715         1.14822 
        1.65059         1.93798         1.13803 
        1.65673         1.92387         1.12797 
        1.66285         1.90827         1.11807 
        1.66898         1.89961         1.10828 
        1.67512         1.88161         1.09858 
        1.68127         1.87088           1.089 
         1.6874         1.86339         1.07955 
        1.69353         1.84234         1.07022 
        1.69967         1.83212         1.06097 
        1.70581         1.82732         1.05185 
        1.71193         1.81113         1.04286 
        1.71806         1.80346         1.03396 
        1.72421         1.79003         1.02514 
        1.73035         1.77693         1.01644 
        1.73649         1.76618         1.00784 
        1.74262         1.75505        0.999353 
        1.74876          1.7464        0.990954 
        1.75489         1.73012        0.982669 
        1.76101         1.72014        0.974482 
        1.76715         1.71094        0.966377 
        1.77329         1.70109        0.958354 
        1.77943         1.68714        0.950419 
        1.78557          1.6779        0.942587 
        1.79171         1.67193        0.934841 
        1.79785         1.65723        0.927181 
        1.80399         1.64905        0.919609 
        1.81012          1.6418        0.912131 
        1.81625         1.62783        0.904741 
        1.82239         1.61786        0.897421 
        1.82853         1.60334        0.890186 
        1.83466         1.59928        0.883038 
        1.84078          1.5887        0.875977 
        1.84692         1.58153        0.868981 
        1.85306         1.56911        0.862054 
         1.8592          1.5614        0.855213 
        1.86533         1.55046         0.84845 
        1.87147         1.54431        0.841753 
        1.87761         1.53447        0.835126 
        1.88375         1.52112        0.828578 
        1.88988         1.51712        0.822107 
        1.89601         1.50604        0.815702 
        1.90215         1.49511         0.80936 
        1.90829         1.48604        0.803089 
        1.91442         1.47966        0.796883 
        1.92056         1.47111         0.79075 
         1.9267         1.46308        0.784674 
        1.93284         1.45776        0.778659 
        1.93897         1.44737        0.772718 
        1.94509          1.4379        0.766852 
        1.95123         1.42833        0.761032 
        1.95737         1.42147        0.755269 
        1.96349         1.41296         0.74958 
        1.96964         1.40724        0.743934 
        1.97578         1.39851        0.738343 
        1.98192         1.39207        0.732821 
        1.98805         1.38134        0.727356 
        1.99419         1.37724        0.721946 
        2.00033         1.37278        0.716588 
        2.00647         1.35967        0.711286 
         2.0126         1.35494        0.706047 
        2.01874         1.34578        0.700853 
        2.02488         1.34023        0.695707 
        2.03101         1.32958        0.690622 
        2.03714         1.32112        0.685593 
        2.04328         1.31876        0.680608 
        2.04941         1.30848        0.675677 
        2.05554         1.30351        0.670798 
        2.06167         1.29486        0.665961 
        2.06781          1.2898        0.661172 
        2.07396         1.28141        0.656422 
        2.08009         1.27589        0.651727 
        2.08622         1.26673        0.647084 
        2.09237         1.26467        0.642477 
        2.09851         1.25699        0.637915 
        2.10464         1.25223        0.633404 
        2.11077         1.24323        0.628942 
        2.11691         1.23538        0.624513 
        2.12305         1.23159        0.620127 
        2.12918         1.22434        0.615794 
        2.13531          1.2188        0.611502 
        2.14145         1.21089        0.607241 
         2.1476         1.20435        0.603016 
        2.15372         1.19926        0.598852 
        2.15985         1.19234        0.594724 
        2.16599         1.18647        0.590622 
        2.17213         1.18018        0.586564 
        2.17827         1.17666        0.582545 
         2.1844         1.17081        0.578567 
        2.19054         1.16642        0.574626 
        2.19666          1.1587        0.570726 
         2.2028         1.15327        0.566859 
        2.20893         1.14615        0.563027 
        2.21508         1.14377        0.559225 
        2.22122         1.13352        0.555457 
        2.22736         1.12846        0.551732 
        2.23349         1.12795        0.548042 
        2.23962         1.11864        0.544384 
        2.24577          1.1134        0.540756 
         2.2519          1.1072        0.537166 
        2.25802         1.10459        0.533615 
        2.26417         1.09652        0.530086 
        2.27031          1.0932        0.526585 
        2.27644         1.08772        0.523127 
        2.28257         1.08309          0.5197 
        2.28872         1.07693        0.516297 
        2.29486         1.07299        0.512925 
        2.30099         1.06627         0.50959 
        2.30712         1.06213        0.506284 
        2.31326         1.05915        0.503001 
         2.3194         1.05376         0.49975 
        2.32553         1.04917        0.496533 
        2.33166         1.04238        0.493345 
         2.3378          1.0372        0.490181 
        2.34394         1.03188        0.487044 
        2.35007         1.02748        0.483939 
        2.35619          1.0253        0.480864 
        2.36233         1.01768         0.47781 
        2.36848         1.01461        0.474775 
        2.37462         1.00964        0.471773 
        2.38075         1.00607          0.4688 
        2.38689         1.00068         0.46585 
        2.39303        0.997265        0.462927 
        2.39916        0.990456        0.460031 
        2.40529        0.988839         0.45716 
        2.41143        0.983225        0.454312 
        2.41757         0.97882        0.451487 
         2.4237        0.975983        0.448691 
        2.42983        0.970543        0.445919 
        2.43598         0.96695        0.443163 
        2.44211        0.962666        0.440435 
        2.44823        0.957719        0.437736 
        2.45437        0.954246        0.435053 
        2.46052        0.951739        0.432389 
        2.46665          0.9467        0.429753 
        2.47279        0.942269         0.42714 
        2.47892        0.936935        0.424546 
        2.48507        0.934008        0.421972 
         2.4912        0.929549        0.419424 
