# k  (h/Mpc)    Pcb(k)  (Mpc/h)^3    Pcb_linear(k)  (Mpc/h)^3
     0.00783031         115.077         115.905 
       0.013688         149.432         150.481 
       0.019231         158.859         159.282 
      0.0249154         153.541         153.779 
      0.0312784         138.846         138.969 
      0.0375637         122.035         122.102 
      0.0433917           108.2         108.048 
      0.0492413         96.8965         96.8528 
      0.0555754         88.2116         88.0279 
      0.0619321         81.5396          81.709 
       0.067871         76.9615         76.9815 
      0.0738098         72.4141         72.4374 
      0.0800417         67.2647         67.2401 
      0.0862327         61.4755         61.5077 
      0.0921407         55.7489         55.7818 
      0.0982031         50.1746         50.1213 
       0.104506         44.9067         44.9501 
       0.110769         40.8059         40.8272 
       0.116806         37.9136         37.8508 
       0.122832         35.6783         35.6963 
       0.129052         34.0592         34.0363 
       0.135211         32.6629         32.6251 
       0.141259         31.1733         31.1941 
       0.147318         29.4853         29.5612 
       0.153489         27.6442         27.6735 
       0.159709         25.6436         25.6434 
       0.165845         23.6039         23.6764 
       0.171974         21.9381         21.9017 
       0.178125         20.4421         20.4121 
       0.184229         19.2459         19.2501 
        0.19034         18.4139         18.3644 
       0.196428         17.6982         17.6748 
       0.202534         17.0328         17.0756 
       0.208729         16.4698         16.4677 
       0.214876         15.8395          15.803 
       0.220989         15.0266          15.063 
       0.227147         14.3032         14.2603 
        0.23329         13.5022           13.45 
       0.239377         12.7492           12.69 
       0.245482         12.0699         12.0118 
       0.251667          11.461         11.4318 
       0.257832         11.0208         10.9582 
       0.263955          10.607           10.57 
       0.270079         10.2659         10.2323 
        0.27624          9.9164         9.91055 
       0.282372         9.59321         9.58267 
        0.28843         9.28504         9.23856 
       0.294538         8.91082         8.87133 
       0.300721         8.50879         8.49065 
        0.30691         8.16716         8.11669 
       0.313033          7.8142         7.77029 
       0.319153         7.54085         7.45793 
       0.325316         7.21218         7.18202 
        0.33145         6.97347         6.94206 
       0.337538         6.77146         6.73034 
       0.343633         6.58379         6.53381 
       0.349808         6.38128          6.3409 
       0.355968         6.18205         6.14713 
       0.362074         5.99969         5.95119 
       0.368217         5.79745         5.75127 
       0.374374         5.62112           5.552 
       0.380519         5.40666         5.35972 
       0.386598         5.22086         5.18016 
       0.392688         5.05005         5.01402 
        0.39888         4.90561         4.85962 
       0.405048         4.76725         4.71868 
       0.411186         4.63252         4.58848 
       0.417313         4.51241          4.4648 
       0.423458          4.3789         4.34401 
       0.429607         4.27507         4.22471 
       0.435692         4.16096         4.10719 
       0.441815         4.03525         3.99002 
       0.447964         3.90921         3.87494 
       0.454126         3.81221         3.76352 
       0.460267         3.71771         3.65765 
       0.466387         3.61209         3.55821 
        0.47254         3.52218         3.46418 
       0.478662         3.42978         3.37581 
       0.484765         3.34799         3.29208 
       0.490885         3.26125          3.2114 
       0.497035         3.17319         3.13253 
       0.503198         3.10442         3.05509 
       0.509342         3.02088         2.97946 
       0.515458         2.95521         2.90578 
       0.521598          2.8836         2.83366 
       0.527764         2.82199         2.76354 
       0.533884         2.74062         2.69668 
           0.54         2.68083         2.63275 
       0.546137           2.613          2.5713 
       0.552299         2.55804         2.51209 
       0.558452         2.50196         2.45524 
       0.564573         2.44876         2.40058 
       0.570708          2.3948         2.34735 
       0.576825         2.34323         2.29557 
       0.582926          2.2882         2.24511 
       0.589034         2.24716         2.19586 
       0.595184         2.20108         2.14767 
       0.601379         2.14831         2.10059 
       0.607522         2.10143         2.05539 
       0.613639         2.05198         2.01182 
       0.619772         2.01763         1.96961 
       0.625918          1.9757         1.92873 
       0.632068         1.93643         1.88913 
       0.638161         1.89713         1.85106 
         0.6443         1.85858         1.81371 
       0.650464         1.82261         1.77716 
       0.656582         1.79128         1.74177 
       0.662703         1.75524         1.70727 
       0.668861         1.71424          1.6735 
       0.675024         1.68445         1.64063 
       0.681124         1.66385         1.60901 
       0.687237         1.62562         1.57821 
       0.693381         1.58939         1.54811 
       0.699536         1.56819         1.51877 
       0.705665         1.53842         1.49035 
       0.711789         1.50535          1.4627 
       0.717957         1.47983         1.43558 
        0.72409         1.45294          1.4093 
       0.730186         1.43184         1.38384 
       0.736317         1.40235         1.35886 
       0.742472         1.38088          1.3344 
       0.748622         1.35758         1.31055 
        0.75476         1.33077         1.28733 
       0.760888         1.31217         1.26472 
       0.767043         1.27937         1.24256 
       0.773185         1.26268           1.221 
       0.779291         1.24669         1.20009 
       0.785407         1.22339         1.17966 
       0.791564         1.20283         1.15959 
       0.797719         1.18232            1.14 
       0.803834         1.16264           1.121 
       0.809972         1.14451         1.10236 
       0.816124         1.12573         1.08411 
       0.822261         1.10916         1.06632 
       0.828378         1.08949         1.04898 
       0.834502         1.07275         1.03201 
       0.840667         1.05777         1.01532 
       0.846816           1.041        0.999037 
       0.852925         1.02231        0.983221 
       0.859047         1.00732        0.967718 
       0.865192        0.992699        0.952504 
       0.871341        0.978825        0.937611 
       0.877463         0.96105        0.923109 
       0.883569        0.947465        0.908953 
       0.889708        0.935107        0.895026 
       0.895864        0.921322        0.881358 
       0.902008        0.905765        0.868006 
       0.908149         0.89438        0.854942 
       0.914301        0.883238        0.842127 
       0.920448        0.870022         0.82959 
       0.926574        0.859072        0.817353 
       0.932687        0.846198        0.805391 
       0.938823        0.831461        0.793628 
       0.944975        0.821858        0.782075 
       0.951105        0.807663        0.770795 
       0.957225        0.796318        0.759759 
       0.963368        0.787379        0.748903 
       0.969511        0.777693        0.738262 
       0.975621        0.765347        0.727886 
       0.981748        0.752526        0.717685 
       0.987916        0.743483        0.707616 
        0.99406        0.735103        0.697781 
        1.00019        0.724613        0.688154 
        1.00632        0.717435        0.678719 
        1.01246        0.707129        0.669448 
        1.01859        0.697807        0.660367 
        1.02471        0.686801        0.651468 
        1.03085        0.677396        0.642703 
        1.03698        0.670228        0.634119 
        1.04314        0.661717        0.625657 
        1.04929        0.654647        0.617371 
        1.05541        0.643593        0.609269 
        1.06154        0.636975        0.601294 
        1.06769        0.629448        0.593451 
        1.07382        0.621324        0.585775 
        1.07993        0.614249        0.578253 
        1.08607        0.605878        0.570833 
        1.09222        0.597985        0.563537 
        1.09836        0.591268        0.556378 
        1.10449        0.583271        0.549352 
        1.11063        0.575998        0.542441 
        1.11677        0.570587        0.535652 
         1.1229        0.561603        0.528991 
        1.12903        0.556407        0.522439 
        1.13518        0.549271        0.515993 
        1.14131        0.543439        0.509661 
        1.14745        0.538686        0.503439 
        1.15359        0.530821         0.49732 
        1.15973        0.525578        0.491301 
        1.16584        0.518473         0.48541 
        1.17197        0.512028        0.479607 
        1.17811        0.505952        0.473882 
        1.18424        0.500474        0.468268 
        1.19038         0.49405        0.462729 
        1.19652        0.490591        0.457282 
        1.20267        0.484831        0.451924 
        1.20881        0.477232        0.446653 
        1.21495        0.472977        0.441476 
        1.22108         0.46824        0.436381 
         1.2272        0.461998         0.43138 
        1.23334        0.457334        0.426446 
        1.23949        0.453509        0.421579 
        1.24562        0.448213        0.416801 
        1.25174        0.443321        0.412105 
        1.25789        0.437128        0.407468 
        1.26402        0.433755         0.40291 
        1.27014         0.42784        0.398434 
        1.27628        0.424472        0.394013 
        1.28244         0.42004        0.389652 
        1.28858        0.414747        0.385362 
        1.29471        0.410675        0.381147 
        1.30084        0.406285           0.377 
        1.30697        0.403092        0.372908 
        1.31312        0.398798        0.368872 
        1.31925        0.394427        0.364908 
        1.32537        0.390468        0.361007 
        1.33151        0.386311        0.357149 
        1.33765        0.382065        0.353351 
        1.34378        0.377633        0.349615 
        1.34992        0.375504        0.345931 
        1.35606        0.370835        0.342293 
         1.3622        0.367371        0.338713 
        1.36833        0.364417        0.335194 
        1.37445         0.36101        0.331726 
        1.38059        0.356931        0.328297 
        1.38675         0.35287        0.324909 
        1.39288        0.348843        0.321582 
        1.39901        0.346848        0.318304 
        1.40515        0.342933        0.315064 
         1.4113        0.340436        0.311871 
        1.41742        0.337008        0.308734 
        1.42355        0.332351        0.305635 
         1.4297        0.330895         0.30257 
        1.43585         0.32682        0.299548 
        1.44198        0.324221        0.296579 
        1.44809        0.320672        0.293656 
        1.45423        0.317979        0.290761 
        1.46036        0.314881        0.287912 
        1.46649        0.312039        0.285099 
        1.47263        0.308189        0.282323 
        1.47877        0.307241        0.279584 
        1.48491        0.302782        0.276878 
        1.49104        0.301664        0.274214 
        1.49718        0.298155        0.271583 
        1.50333        0.295801        0.268982 
        1.50947        0.293338        0.266421 
         1.5156        0.290137        0.263897 
        1.52172        0.288027        0.261407 
        1.52787        0.284454        0.258943 
          1.534        0.282791        0.256514 
        1.54013        0.280112         0.25412 
        1.54627        0.277929        0.251751 
        1.55241        0.275228        0.249413 
        1.55855         0.27297        0.247108 
        1.56467        0.270752        0.244838 
         1.5708        0.268127        0.242591 
        1.57695         0.26587        0.240368 
        1.58308        0.262659        0.238179 
        1.58922        0.261423        0.236015 
        1.59535        0.258732        0.233879 
         1.6015        0.257008        0.231767 
        1.60764        0.254415        0.229682 
        1.61376        0.252468        0.227629 
        1.61989         0.25008        0.225599 
        1.62604        0.248261        0.223589 
        1.63218        0.246421        0.221605 
        1.63831        0.244076         0.21965 
        1.64444        0.242217        0.217718 
        1.65059        0.239688        0.215805 
        1.65673        0.238058        0.213917 
        1.66285        0.236478        0.212057 
        1.66898        0.233998        0.210218 
        1.67512        0.232168        0.208398 
        1.68127        0.230208        0.206598 
         1.6874        0.228671        0.204823 
        1.69353        0.226732         0.20307 
        1.69967        0.224438        0.201334 
        1.70581        0.223375        0.199619 
        1.71193        0.221785         0.19793 
        1.71806        0.219576        0.196257 
        1.72421        0.217813        0.194601 
        1.73035         0.21614        0.192965 
        1.73649        0.214617        0.191349 
        1.74262        0.212689        0.189752 
        1.74876        0.211504        0.188173 
        1.75489        0.209602        0.186615 
        1.76101        0.207952        0.185076 
        1.76715        0.206545        0.183552 
        1.77329        0.204626        0.182043 
        1.77943        0.202992         0.18055 
        1.78557        0.202112        0.179076 
        1.79171        0.200441        0.177619 
        1.79785        0.198496        0.176178 
        1.80399        0.196747        0.174753 
        1.81012        0.195839        0.173346 
        1.81625        0.194409        0.171955 
        1.82239        0.193251        0.170577 
        1.82853        0.191349        0.169215 
        1.83466        0.189926        0.167869 
        1.84078        0.188614        0.166539 
        1.84692        0.187178        0.165222 
        1.85306        0.185909        0.163917 
         1.8592        0.184657        0.162629 
        1.86533        0.183399        0.161355 
        1.87147         0.18187        0.160093 
        1.87761        0.180458        0.158845 
        1.88375        0.179033        0.157611 
        1.88988         0.17794        0.156392 
        1.89601         0.17629        0.155185 
        1.90215        0.175182         0.15399 
        1.90829        0.173751        0.152808 
        1.91442        0.172969        0.151638 
        1.92056        0.171831        0.150482 
         1.9267        0.170391        0.149336 
        1.93284        0.168954        0.148202 
        1.93897         0.16795        0.147082 
        1.94509        0.166731        0.145976 
        1.95123        0.165601        0.144879 
        1.95737        0.164638        0.143792 
        1.96349        0.163502        0.142719 
        1.96964        0.162129        0.141654 
        1.97578        0.161167        0.140599 
        1.98192        0.160217        0.139557 
        1.98805        0.159138        0.138526 
        1.99419        0.158208        0.137505 
        2.00033        0.156781        0.136494 
        2.00647        0.155809        0.135494 
         2.0126        0.154992        0.134505 
        2.01874        0.153876        0.133524 
        2.02488        0.152832        0.132553 
        2.03101        0.151666        0.131593 
        2.03714        0.151269        0.130644 
        2.04328        0.149483        0.129702 
        2.04941        0.148955        0.128771 
        2.05554        0.148055         0.12785 
        2.06167        0.146931        0.126937 
        2.06781        0.145649        0.126032 
        2.07396        0.144848        0.125135 
        2.08009        0.144098        0.124248 
        2.08622        0.143287        0.123371 
        2.09237        0.142165        0.122501 
        2.09851        0.141194        0.121638 
        2.10464         0.14038        0.120786 
        2.11077        0.139418        0.119943 
        2.11691         0.13875        0.119106 
        2.12305        0.137394        0.118277 
        2.12918        0.136637        0.117458 
        2.13531        0.135907        0.116647 
        2.14145        0.135025        0.115841 
         2.1476        0.134371        0.115042 
        2.15372        0.133417        0.114255 
        2.15985        0.132568        0.113474 
        2.16599        0.131494        0.112699 
        2.17213        0.131051        0.111931 
        2.17827        0.130174        0.111171 
         2.1844        0.129265        0.110419 
        2.19054        0.128635        0.109673 
        2.19666        0.127859        0.108935 
         2.2028        0.126697        0.108204 
        2.20893        0.126304        0.107479 
        2.21508        0.125386        0.106759 
        2.22122         0.12464        0.106046 
        2.22736        0.123877        0.105342 
        2.23349        0.123156        0.104643 
        2.23962        0.122512        0.103951 
        2.24577        0.121831        0.103264 
         2.2519        0.120939        0.102585 
        2.25802        0.120341        0.101912 
        2.26417        0.119728        0.101244 
        2.27031        0.118798        0.100582 
        2.27644        0.118457       0.0999268 
        2.28257        0.117519       0.0992778 
        2.28872        0.116824       0.0986334 
        2.29486        0.116244       0.0979949 
        2.30099        0.115453       0.0973634 
        2.30712        0.114919       0.0967371 
        2.31326        0.114002       0.0961153 
         2.3194        0.113531       0.0954994 
        2.32553        0.112988       0.0948899 
        2.33166        0.112137        0.094286 
         2.3378        0.111523       0.0936866 
        2.34394        0.110984       0.0930922 
        2.35007        0.110356       0.0925038 
        2.35619        0.110021       0.0919212 
        2.36233        0.109016       0.0913423 
        2.36848        0.108538       0.0907672 
        2.37462        0.108066       0.0901982 
        2.38075        0.107366       0.0896347 
        2.38689        0.106867       0.0890756 
        2.39303        0.106358       0.0885213 
        2.39916        0.105509       0.0879723 
        2.40529        0.104961       0.0874281 
        2.41143        0.104243       0.0868881 
        2.41757        0.103818       0.0863524 
         2.4237        0.103266       0.0858222 
        2.42983        0.102792       0.0852965 
        2.43598        0.102059       0.0847738 
        2.44211        0.101388       0.0842564 
        2.44823        0.101083       0.0837445 
        2.45437        0.100528       0.0832354 
        2.46052       0.0999788       0.0827302 
        2.46665       0.0994055       0.0822301 
        2.47279        0.098956       0.0817342 
        2.47892       0.0986491       0.0812422 
        2.48507       0.0978147       0.0807537 
         2.4912       0.0974461       0.0802702 
