# k  (h/Mpc)    P(k)  (Mpc/h)^3    P_linear(k)  (Mpc/h)^3
     0.00783031         4262.95         4293.39 
       0.013688         5468.31         5563.46 
       0.019231         5830.42         5884.09 
      0.0249154         5677.75          5678.2 
      0.0312784         5100.23         5129.81 
      0.0375637         4461.66         4506.37 
      0.0433917         3978.57          3987.2 
      0.0492413         3546.11         3573.78 
      0.0555754         3243.43         3247.93 
      0.0619321         2950.64         3014.63 
       0.067871            2809         2840.11 
      0.0738098          2650.5         2672.38 
      0.0800417         2466.17         2480.58 
      0.0862327         2245.72         2269.06 
      0.0921407         2039.01         2057.79 
      0.0982031         1848.56         1848.94 
       0.104506         1643.23         1658.16 
       0.110769         1499.37         1506.06 
       0.116806         1411.86         1396.25 
       0.122832         1318.82         1316.77 
       0.129052         1261.85         1255.52 
       0.135211         1220.47         1203.46 
       0.141259         1154.55         1150.67 
       0.147318         1081.38         1090.43 
       0.153489         1020.97         1020.79 
       0.159709         961.928         945.908 
       0.165845         874.908         873.345 
       0.171974         836.572          807.88 
       0.178125         787.951          752.93 
       0.184229         732.433         710.069 
        0.19034         711.443         677.395 
       0.196428         687.226          651.96 
       0.202534         649.449         629.854 
       0.208729         637.995         607.434 
       0.214876         616.458         582.914 
       0.220989         576.945         555.615 
       0.227147         561.905         526.006 
        0.23329         537.094         496.115 
       0.239377         518.556         468.083 
       0.245482          489.72         443.065 
       0.251667         467.593         421.671 
       0.257832          460.44         404.204 
       0.263955         436.367         389.884 
       0.270079         422.607         377.428 
        0.27624         405.977         365.558 
       0.282372         396.273         353.464 
        0.28843         393.165         340.772 
       0.294538         374.412         327.225 
       0.300721         359.454         313.183 
        0.30691         352.693         299.389 
       0.313033         337.175         286.612 
       0.319153         330.455          275.09 
       0.325316         320.198         264.914 
        0.33145         311.714         256.062 
       0.337538         301.804         248.252 
       0.343633         292.963         241.004 
       0.349808          285.06         233.888 
       0.355968         278.561          226.74 
       0.362074         272.324         219.513 
       0.368217         267.402         212.138 
       0.374374         261.193         204.788 
       0.380519         250.222         197.696 
       0.386598         245.519         191.072 
       0.392688         239.347         184.945 
        0.39888         234.216         179.249 
       0.405048         229.676          174.05 
       0.411186         226.478         169.248 
       0.417313           221.4         164.686 
       0.423458         215.878         160.231 
       0.429607         211.663         155.831 
       0.435692         207.786         151.495 
       0.441815         202.805         147.173 
       0.447964         197.143         142.929 
       0.454126         193.667         138.819 
       0.460267         191.921         134.913 
       0.466387         187.855         131.246 
        0.47254         185.719         127.778 
       0.478662         179.743         124.518 
       0.484765         177.381          121.43 
       0.490885         174.124         118.454 
       0.497035         172.719         115.544 
       0.503198         169.253         112.688 
       0.509342         164.931         109.898 
       0.515458         163.243         107.181 
       0.521598         159.369          104.52 
       0.527764         157.652         101.934 
       0.533884         156.846         99.4676 
           0.54         152.788         97.1098 
       0.546137         149.331         94.8431 
       0.552299         147.675         92.6592 
       0.558452         145.028         90.5622 
       0.564573         144.442          88.546 
       0.570708         140.525         86.5829 
       0.576825         138.991         84.6725 
       0.582926         137.504         82.8113 
       0.589034         135.428          80.995 
       0.595184         133.993         79.2172 
       0.601379         130.738         77.4809 
       0.607522           128.9         75.8134 
       0.613639         127.804         74.2067 
       0.619772          125.92         72.6495 
       0.625918         124.744         71.1417 
       0.632068         122.517         69.6812 
       0.638161         120.639         68.2766 
         0.6443          120.04         66.8993 
       0.650464         117.782         65.5509 
       0.656582         117.272         64.2455 
       0.662703         115.854         62.9731 
       0.668861         113.409         61.7272 
       0.675024         113.372         60.5148 
       0.681124         111.562         59.3488 
       0.687237         109.463         58.2126 
       0.693381         108.977         57.1022 
       0.699536          107.67         56.0201 
       0.705665         106.047         54.9717 
       0.711789         104.734         53.9519 
       0.717957         103.559         52.9515 
        0.72409         102.871         51.9824 
       0.730186         102.136         51.0433 
       0.736317         100.293          50.122 
       0.742472          99.265         49.2196 
       0.748622         97.8112         48.3399 
        0.75476         97.1947         47.4835 
       0.760888         96.7207         46.6493 
       0.767043         94.9805         45.8322 
       0.773185         93.9671         45.0369 
       0.779291         92.9324         44.2657 
       0.785407          91.713          43.512 
       0.791564         91.7223         42.7716 
       0.797719         90.6299         42.0491 
       0.803834         89.7212         41.3482 
       0.809972         89.0951         40.6608 
       0.816124         88.1096         39.9876 
       0.822261         86.9709         39.3313 
       0.828378         86.7255         38.6918 
       0.834502         85.4303          38.066 
       0.840667         84.9829         37.4501 
       0.846816         84.0624         36.8496 
       0.852925         83.3351         36.2663 
       0.859047         82.9982         35.6945 
       0.865192         81.7257         35.1333 
       0.871341         80.8716          34.584 
       0.877463         80.4263          34.049 
       0.883569         80.1543         33.5269 
       0.889708         79.4109         33.0132 
       0.895864         78.6572          32.509 
       0.902008         77.9535         32.0166 
       0.908149         77.1663         31.5347 
       0.914301         76.8016          31.062 
       0.920448         76.3907         30.5995 
       0.926574         74.9865         30.1482 
       0.932687         74.6962          29.707 
       0.938823         74.0687         29.2731 
       0.944975          73.288          28.847 
       0.951105         72.7104         28.4309 
       0.957225         72.5839         28.0238 
       0.963368         71.8329         27.6234 
       0.969511         71.2012         27.2309 
       0.975621         70.7296         26.8482 
       0.981748         70.0093         26.4719 
       0.987916         69.5284         26.1005 
        0.99406         69.1071         25.7378 
        1.00019         68.4369         25.3827 
        1.00632         67.9915         25.0346 
        1.01246         67.4994         24.6927 
        1.01859         67.1651         24.3577 
        1.02471         66.3762         24.0295 
        1.03085         66.0699         23.7062 
        1.03698         65.6277         23.3896 
        1.04314         65.2149         23.0775 
        1.04929         64.6132         22.7718 
        1.05541         64.2616          22.473 
        1.06154         63.9519         22.1788 
        1.06769         63.0976         21.8895 
        1.07382          62.866         21.6064 
        1.07993         62.4838         21.3289 
        1.08607         62.0032         21.0553 
        1.09222         61.7536         20.7861 
        1.09836         61.2164         20.5221 
        1.10449          60.877         20.2629 
        1.11063         60.3548          20.008 
        1.11677         60.2874         19.7576 
         1.1229         59.6181         19.5119 
        1.12903         59.4555         19.2702 
        1.13518         59.2623         19.0325 
        1.14131         58.6056         18.7989 
        1.14745         58.0544         18.5694 
        1.15359         57.5844         18.3437 
        1.15973         57.4563         18.1217 
        1.16584         57.0812         17.9044 
        1.17197         56.4256         17.6904 
        1.17811         56.2491         17.4792 
        1.18424         55.5842         17.2721 
        1.19038         55.4978         17.0678 
        1.19652         55.2653         16.8669 
        1.20267          54.898         16.6693 
        1.20881         54.5115         16.4749 
        1.21495         54.2923         16.2839 
        1.22108         54.0622          16.096 
         1.2272         53.6364         15.9115 
        1.23334         53.3127         15.7295 
        1.23949         52.9986           15.55 
        1.24562         52.5656         15.3738 
        1.25174         52.2738         15.2005 
        1.25789         52.2783         15.0295 
        1.26402         51.8248         14.8614 
        1.27014         51.5161         14.6963 
        1.27628         51.0637         14.5332 
        1.28244         50.9584         14.3723 
        1.28858         50.5763         14.2141 
        1.29471         50.3843         14.0587 
        1.30084         49.9542         13.9057 
        1.30697         49.8319         13.7548 
        1.31312          49.391         13.6059 
        1.31925         49.0553         13.4597 
        1.32537         48.8625         13.3158 
        1.33151         48.5505         13.1735 
        1.33765         48.3761         13.0334 
        1.34378         48.1736         12.8956 
        1.34992         47.8275         12.7597 
        1.35606         47.5606         12.6255 
         1.3622         47.2322         12.4935 
        1.36833         47.0005         12.3636 
        1.37445         46.6757         12.2358 
        1.38059         46.5384         12.1093 
        1.38675         46.0715         11.9843 
        1.39288         46.0638         11.8616 
        1.39901         45.7189         11.7407 
        1.40515         45.5152         11.6212 
         1.4113         45.4914         11.5034 
        1.41742          45.181         11.3877 
        1.42355          44.752         11.2734 
         1.4297         44.5324         11.1603 
        1.43585         44.2386         11.0488 
        1.44198         44.0606         10.9393 
        1.44809         43.8419         10.8315 
        1.45423         43.6939         10.7248 
        1.46036         43.4671         10.6196 
        1.46649         43.2509         10.5159 
        1.47263         42.9444         10.4135 
        1.47877         42.8183         10.3125 
        1.48491         42.6583         10.2127 
        1.49104         42.3134         10.1144 
        1.49718         42.1648         10.0173 
        1.50333         42.0445         9.92143 
        1.50947         41.7097         9.82696 
         1.5156         41.5472         9.73388 
        1.52172         41.2161           9.642 
        1.52787         41.0716         9.55114 
          1.534         40.8822         9.46156 
        1.54013          40.752         9.37323 
        1.54627         40.3979         9.28587 
        1.55241         40.2643         9.19962 
        1.55855         40.1332         9.11459 
        1.56467         39.9807         9.03087 
         1.5708          39.764         8.94797 
        1.57695         39.5411         8.86599 
        1.58308         39.2181         8.78524 
        1.58922         39.0458         8.70543 
        1.59535         38.9387         8.62665 
         1.6015         38.8089         8.54874 
        1.60764         38.6295         8.47184 
        1.61376         38.3781          8.3961 
        1.61989         38.1414         8.32122 
        1.62604         38.0059          8.2471 
        1.63218         37.8143         8.17393 
        1.63831         37.7203         8.10182 
        1.64444          37.494         8.03055 
        1.65059         37.3067         7.95998 
        1.65673         37.1253         7.89034 
        1.66285         37.0362         7.82173 
        1.66898         36.7485         7.75392 
        1.67512         36.6809         7.68678 
        1.68127          36.475         7.62038 
         1.6874         36.2962         7.55491 
        1.69353         36.1829         7.49026 
        1.69967         36.0128         7.42621 
        1.70581         35.6949         7.36294 
        1.71193         35.5326         7.30065 
        1.71806          35.473         7.23896 
        1.72421         35.3523         7.17785 
        1.73035         35.1207         7.11753 
        1.73649         34.8989         7.05791 
        1.74262          34.711         6.99903 
        1.74876         34.5733         6.94078 
        1.75489         34.4566         6.88332 
        1.76101         34.3499         6.82653 
        1.76715         34.1917         6.77031 
        1.77329         33.9642         6.71465 
        1.77943         33.9174          6.6596 
        1.78557          33.717         6.60525 
        1.79171          33.578         6.55149 
        1.79785         33.4116         6.49833 
        1.80399         33.2841         6.44577 
        1.81012         33.1698         6.39387 
        1.81625           32.91         6.34256 
        1.82239          32.813         6.29174 
        1.82853         32.6751          6.2415 
        1.83466         32.5192         6.19186 
        1.84078          32.346         6.14281 
        1.84692         32.2629         6.09422 
        1.85306         32.0461          6.0461 
         1.8592         31.9796         5.99858 
        1.86533         31.7813         5.95159 
        1.87147         31.6474         5.90505 
        1.87761         31.5138           5.859 
        1.88375         31.4664         5.81349 
        1.88988         31.2167         5.76852 
        1.89601         31.0842           5.724 
        1.90215         30.9754         5.67991 
        1.90829         30.8859         5.63632 
        1.91442         30.6441         5.59317 
        1.92056         30.5866         5.55053 
         1.9267         30.4656         5.50828 
        1.93284         30.3549         5.46645 
        1.93897         30.2046         5.42513 
        1.94509         30.0851         5.38433 
        1.95123         29.9327         5.34385 
        1.95737         29.8249         5.30376 
        1.96349         29.6615         5.26419 
        1.96964         29.6671          5.2249 
        1.97578         29.4052           5.186 
        1.98192         29.2963         5.14758 
        1.98805         29.0804         5.10954 
        1.99419         29.0931         5.07188 
        2.00033         28.9183         5.03459 
        2.00647         28.8239         4.99769 
         2.0126           28.66         4.96122 
        2.01874         28.5264         4.92505 
        2.02488         28.4116         4.88922 
        2.03101         28.2647         4.85382 
        2.03714         28.1627         4.81879 
        2.04328         28.0675         4.78408 
        2.04941         27.9306         4.74973 
        2.05554         27.8846         4.71575 
        2.06167         27.7152         4.68206 
        2.06781         27.6125         4.64869 
        2.07396         27.5472          4.6156 
        2.08009         27.3843          4.5829 
        2.08622         27.2587         4.55054 
        2.09237         27.1932         4.51844 
        2.09851         26.9671         4.48664 
        2.10464         26.8922          4.4552 
        2.11077         26.8785          4.4241 
        2.11691         26.6959         4.39323 
        2.12305         26.6036         4.36265 
        2.12918         26.4911         4.33244 
        2.13531          26.397         4.30251 
        2.14145         26.2354          4.2728 
         2.1476         26.1045         4.24333 
        2.15372          26.017         4.21429 
        2.15985         25.9502          4.1855 
        2.16599           25.82         4.15689 
        2.17213         25.7613         4.12858 
        2.17827           25.57         4.10055 
         2.1844         25.5081         4.07279 
        2.19054         25.4494         4.04529 
        2.19666         25.3051         4.01808 
         2.2028         25.2457          3.9911 
        2.20893         25.0476         3.96435 
        2.21508         24.9861         3.93782 
        2.22122         24.8654         3.91152 
        2.22736         24.8196         3.88552 
        2.23349         24.6792         3.85977 
        2.23962         24.6429         3.83423 
        2.24577          24.492          3.8089 
         2.2519         24.4181         3.78384 
        2.25802          24.234         3.75904 
        2.26417         24.1774          3.7344 
        2.27031         24.1154         3.70995 
        2.27644         24.0726          3.6858 
        2.28257         23.9157         3.66186 
        2.28872         23.8587         3.63809 
        2.29486         23.7427         3.61454 
        2.30099         23.6012         3.59125 
        2.30712         23.5398         3.56815 
        2.31326         23.4265         3.54521 
         2.3194         23.3515          3.5225 
        2.32553         23.2679         3.50001 
        2.33166         23.1264         3.47774 
         2.3378         23.1062         3.45563 
        2.34394         22.9737          3.4337 
        2.35007         22.8882           3.412 
        2.35619         22.8031         3.39051 
        2.36233         22.7058         3.36916 
        2.36848         22.6031         3.34795 
        2.37462         22.5144         3.32696 
        2.38075         22.4153         3.30618 
        2.38689         22.3293         3.28555 
        2.39303         22.2631         3.26511 
        2.39916         22.1529         3.24486 
        2.40529         22.0587         3.22478 
        2.41143         21.9904         3.20487 
        2.41757         21.8665         3.18511 
         2.4237         21.7969         3.16555 
        2.42983         21.7381         3.14616 
        2.43598         21.6375         3.12688 
        2.44211         21.5467          3.1078 
        2.44823         21.4994         3.08891 
        2.45437         21.4164         3.07014 
        2.46052         21.2892          3.0515 
        2.46665         21.2576         3.03305 
        2.47279         21.1077         3.01477 
        2.47892         21.0558         2.99662 
        2.48507         20.9782          2.9786 
         2.4912         20.8995         2.96076 
