# k  (h/Mpc)    Pcb(k)  (Mpc/h)^3    Pcb_linear(k)  (Mpc/h)^3
     0.00783031         14167.1         14364.7 
       0.013688         18183.4         18026.6 
       0.019231         18632.8           18616 
      0.0249154         17201.3         17584.8 
      0.0312784         15348.2         15554.6 
      0.0375637         13382.7         13427.8 
      0.0433917         11484.7         11734.3 
      0.0492413           10320         10427.7 
      0.0555754         9100.09          9422.3 
      0.0619321         8691.04         8709.87 
       0.067871         7906.45         8171.53 
      0.0738098         7390.24         7645.14 
      0.0800417         6714.35         7040.19 
      0.0862327         6164.59         6380.54 
      0.0921407          5644.1         5735.35 
      0.0982031         5019.51         5113.82 
       0.104506         4644.37         4562.46 
       0.110769         4231.37         4136.24 
       0.116806         3931.01         3836.87 
       0.122832         3726.05         3623.33 
       0.129052         3471.52         3456.05 
       0.135211          3324.7         3306.28 
       0.141259         3211.69         3147.07 
       0.147318         3051.55         2962.98 
       0.153489         2811.14         2753.11 
       0.159709         2655.17         2533.71 
       0.165845         2535.51         2328.32 
       0.171974         2372.13         2149.61 
       0.178125         2242.44         2004.85 
       0.184229         2135.79         1895.16 
        0.19034         2017.89         1812.41 
       0.196428         1984.23         1746.31 
       0.202534         1917.09         1685.23 
       0.208729         1838.92         1619.55 
       0.214876         1766.97          1546.1 
       0.220989         1710.28          1465.2 
       0.227147         1634.24         1379.91 
        0.23329         1566.49         1296.84 
       0.239377         1538.09         1221.83 
       0.245482         1439.83         1157.23 
       0.251667          1430.6         1103.43 
       0.257832         1374.68         1059.93 
       0.263955         1331.19         1023.64 
       0.270079         1287.16         990.567 
        0.27624         1274.91         957.428 
       0.282372            1222         922.567 
        0.28843         1213.71         885.847 
       0.294538         1153.94         847.379 
       0.300721          1147.6         808.602 
        0.30691         1101.51         771.798 
       0.313033         1080.05         738.719 
       0.319153         1060.41         709.656 
       0.325316         1025.88         684.212 
        0.33145         1003.24          661.98 
       0.337538         987.009         641.818 
       0.343633         963.854         622.483 
       0.349808         932.227         602.912 
       0.355968         926.337         582.993 
       0.362074         916.382         562.921 
       0.368217         888.397         542.757 
       0.374374         854.823         523.148 
       0.380519         855.242         504.642 
       0.386598         832.385         487.737 
       0.392688         829.914         472.277 
        0.39888          805.39         457.911 
       0.405048         795.011         444.693 
       0.411186         783.576         432.225 
       0.417313         767.243         420.141 
       0.423458         754.892         408.195 
       0.429607         744.121           396.3 
       0.435692          728.79         384.652 
       0.441815          723.16         373.191 
       0.447964         708.066          362.08 
       0.454126         699.875         351.483 
       0.460267         684.147         341.549 
       0.466387         676.408         332.247 
        0.47254         669.823         323.428 
       0.478662         664.769         315.097 
       0.484765         645.298         307.118 
       0.490885         641.278         299.334 
       0.497035         627.936         291.676 
       0.503198          623.62         284.169 
       0.509342         617.439         276.852 
       0.515458         613.394         269.763 
       0.521598         598.666         262.891 
       0.527764         587.503         256.277 
       0.533884         586.232         250.001 
           0.54         579.418         243.997 
       0.546137         575.843         238.221 
       0.552299         566.843         232.645 
       0.558452         563.273         227.265 
       0.564573         555.598         222.061 
       0.570708         549.283         216.971 
       0.576825         534.622         212.024 
       0.582926         536.342         207.225 
       0.589034         531.461         202.561 
       0.595184         526.685          198.01 
       0.601379         519.379         193.577 
       0.607522         512.073         189.331 
       0.613639         512.033          185.25 
       0.619772         500.258         181.297 
       0.625918         498.141         177.463 
       0.632068         491.305         173.736 
       0.638161         489.633         170.142 
         0.6443         480.791         166.614 
       0.650464         478.533         163.164 
       0.656582         475.547         159.834 
       0.662703         473.327         156.595 
       0.668861         465.126          153.43 
       0.675024         461.613         150.353 
       0.681124          458.42         147.394 
       0.687237         454.462         144.512 
       0.693381         448.497         141.696 
       0.699536         442.177         138.954 
       0.705665          441.23         136.298 
       0.711789         438.491         133.714 
       0.717957         434.729          131.18 
        0.72409         431.819         128.724 
       0.730186         426.304         126.344 
       0.736317         423.021          124.01 
       0.742472          421.15         121.726 
       0.748622         416.503         119.501 
        0.75476         411.258         117.338 
       0.760888         407.147         115.233 
       0.767043         407.842         113.172 
       0.773185         402.953         111.168 
       0.779291         398.269         109.225 
       0.785407         396.272         107.327 
       0.791564         391.572         105.462 
       0.797719         389.293         103.642 
       0.803834         385.715         101.876 
       0.809972         384.533         100.145 
       0.816124         383.887         98.4506 
       0.822261          378.21         96.7997 
       0.828378         376.211         95.1916 
       0.834502         372.505         93.6189 
       0.840667         369.354         92.0718 
       0.846816         367.846         90.5644 
       0.852925         365.011         89.1007 
       0.859047         363.276         87.6665 
       0.865192         359.052         86.2596 
       0.871341         356.297         84.8828 
       0.877463         355.294         83.5426 
       0.883569         352.657         82.2349 
       0.889708         349.809         80.9486 
       0.895864          347.31         79.6866 
       0.902008          344.84         78.4543 
       0.908149         342.044         77.2489 
       0.914301         338.989         76.0669 
       0.920448         337.038         74.9109 
       0.926574         332.885         73.7831 
       0.932687         333.184         72.6809 
       0.938823         329.466         71.5975 
       0.944975         329.101         70.5337 
       0.951105         325.703         69.4955 
       0.957225         323.556           68.48 
       0.963368         319.988         67.4815 
       0.969511         318.626         66.5029 
       0.975621         316.307         65.5492 
       0.981748         315.607         64.6118 
       0.987916         313.388         63.6869 
        0.99406          308.35         62.7837 
        1.00019         308.014         61.8999 
        1.00632         306.378          61.034 
        1.01246         303.727         60.1834 
        1.01859          304.33         59.3506 
        1.02471         299.491         58.5345 
        1.03085         297.896         57.7311 
        1.03698          296.91         56.9446 
        1.04314          293.92         56.1694 
        1.04929         291.638         55.4106 
        1.05541         292.322         54.6689 
        1.06154         287.434          53.939 
        1.06769         286.929         53.2214 
        1.07382         285.006         52.5192 
        1.07993         283.102         51.8313 
        1.08607         282.211          51.153 
        1.09222         279.734         50.4862 
        1.09836         277.824          49.832 
        1.10449         275.204         49.1903 
        1.11063         272.763         48.5592 
        1.11677         272.663         47.9394 
         1.1229         270.707         47.3316 
        1.12903         268.883         46.7338 
        1.13518         266.842         46.1458 
        1.14131         265.124         45.5683 
        1.14745         264.422         45.0011 
        1.15359         262.175         44.4434 
        1.15973         260.582          43.895 
        1.16584          258.64         43.3583 
        1.17197          258.65         42.8299 
        1.17811         255.514         42.3086 
        1.18424         253.985         41.7976 
        1.19038         253.179         41.2935 
        1.19652         251.105          40.798 
        1.20267         250.474         40.3106 
        1.20881         248.498         39.8314 
        1.21495         246.743         39.3607 
        1.22108         245.409         38.8977 
         1.2272         243.754         38.4433 
        1.23334         242.517         37.9951 
        1.23949         240.965          37.553 
        1.24562         239.933         37.1192 
        1.25174         237.981         36.6929 
        1.25789         236.291          36.272 
        1.26402         234.583         35.8586 
        1.27014         233.259         35.4526 
        1.27628         232.117         35.0516 
        1.28244         231.865         34.6562 
        1.28858         229.286         34.2674 
        1.29471         227.594         33.8854 
        1.30084         226.653         33.5096 
        1.30697         225.168          33.139 
        1.31312         223.076         32.7734 
        1.31925         222.698         32.4146 
        1.32537         221.681         32.0614 
        1.33151           219.5         31.7123 
        1.33765         218.089         31.3686 
        1.34378         217.408         31.0306 
        1.34992         216.225         30.6974 
        1.35606         216.048         30.3684 
         1.3622          213.86         30.0448 
        1.36833         211.867         29.7267 
        1.37445         211.165         29.4134 
        1.38059         209.364         29.1036 
        1.38675         208.631         28.7976 
        1.39288         207.334         28.4972 
        1.39901          206.88         28.2012 
        1.40515         204.904         27.9088 
         1.4113         203.862         27.6206 
        1.41742         202.398         27.3376 
        1.42355         201.337          27.058 
         1.4297         199.787         26.7815 
        1.43585         198.922          26.509 
        1.44198         197.866         26.2414 
        1.44809          196.94         25.9779 
        1.45423         195.728         25.7171 
        1.46036         194.632         25.4603 
        1.46649         193.134          25.207 
        1.47263         191.896         24.9569 
        1.47877         190.915         24.7103 
        1.48491         189.363         24.4667 
        1.49104         188.847         24.2269 
        1.49718         187.051         23.9901 
        1.50333         186.446         23.7561 
        1.50947          185.53         23.5258 
         1.5156          183.92         23.2988 
        1.52172         183.262         23.0748 
        1.52787         181.638         22.8533 
          1.534         181.345          22.635 
        1.54013         179.853         22.4198 
        1.54627         178.953          22.207 
        1.55241         177.675         21.9969 
        1.55855         176.657         21.7898 
        1.56467         175.498          21.586 
         1.5708         174.911         21.3842 
        1.57695         173.765         21.1847 
        1.58308         172.931         20.9882 
        1.58922         171.662          20.794 
        1.59535         170.385         20.6024 
         1.6015         169.996         20.4129 
        1.60764         168.762         20.2259 
        1.61376         167.688         20.0418 
        1.61989         166.897         19.8598 
        1.62604         165.826         19.6797 
        1.63218         165.072         19.5019 
        1.63831         163.896         19.3267 
        1.64444         163.205         19.1536 
        1.65059         162.019         18.9822 
        1.65673         160.865         18.8131 
        1.66285         160.351         18.6465 
        1.66898         159.133         18.4819 
        1.67512         158.976          18.319 
        1.68127         157.204         18.1579 
         1.6874         156.326          17.999 
        1.69353         155.765         17.8422 
        1.69967         154.639         17.6869 
        1.70581         153.896         17.5335 
        1.71193         152.906         17.3824 
        1.71806         152.339         17.2329 
        1.72421         151.264         17.0848 
        1.73035         150.896         16.9386 
        1.73649         149.899         16.7942 
        1.74262         148.767         16.6515 
        1.74876         148.058         16.5105 
        1.75489         147.084         16.3713 
        1.76101         146.121         16.2338 
        1.76715          145.67         16.0977 
        1.77329          145.04          15.963 
        1.77943         143.924         15.8297 
        1.78557         143.276         15.6982 
        1.79171         142.475         15.5682 
        1.79785         141.528         15.4396 
        1.80399         140.668         15.3124 
        1.81012         139.913         15.1869 
        1.81625         139.353         15.0629 
        1.82239         138.595           14.94 
        1.82853         137.875         14.8186 
        1.83466          136.89         14.6986 
        1.84078         136.416         14.5801 
        1.84692         135.056         14.4628 
        1.85306         135.002         14.3465 
         1.8592         133.957         14.2317 
        1.86533         133.024         14.1183 
        1.87147         132.169         14.0059 
        1.87761         131.687         13.8948 
        1.88375         130.573         13.7849 
        1.88988         130.072         13.6764 
        1.89601         129.383          13.569 
        1.90215         128.599         13.4626 
        1.90829         128.018         13.3574 
        1.91442         127.299         13.2534 
        1.92056         126.562         13.1505 
         1.9267         126.065         13.0487 
        1.93284         125.278         12.9478 
        1.93897         124.423         12.8482 
        1.94509         123.941         12.7499 
        1.95123         123.352         12.6523 
        1.95737         122.716         12.5557 
        1.96349         122.025         12.4604 
        1.96964         120.962         12.3658 
        1.97578         120.274         12.2721 
        1.98192         120.028         12.1795 
        1.98805         119.047         12.0879 
        1.99419         118.624         11.9973 
        2.00033         117.792         11.9075 
        2.00647         117.407         11.8187 
         2.0126         116.328         11.7309 
        2.01874         115.882         11.6439 
        2.02488         115.468         11.5577 
        2.03101         114.485         11.4726 
        2.03714         113.971         11.3883 
        2.04328         113.422         11.3048 
        2.04941         112.786         11.2223 
        2.05554         112.023         11.1406 
        2.06167         111.749         11.0596 
        2.06781         111.014         10.9794 
        2.07396         110.276         10.8998 
        2.08009         109.827         10.8212 
        2.08622          109.19         10.7435 
        2.09237          108.45         10.6664 
        2.09851         108.012           10.59 
        2.10464         107.539         10.5145 
        2.11077         106.952         10.4398 
        2.11691         106.434         10.3657 
        2.12305         105.491         10.2923 
        2.12918             105         10.2198 
        2.13531         104.547          10.148 
        2.14145         103.806         10.0767 
         2.1476         103.144          10.006 
        2.15372         102.864         9.93632 
        2.15985          102.45         9.86725 
        2.16599         101.688         9.79864 
        2.17213         101.109         9.73075 
        2.17827         100.762         9.66352 
         2.1844         99.8966         9.59699 
        2.19054         99.6195         9.53106 
        2.19666         99.1555         9.46584 
         2.2028         98.4541         9.40118 
        2.20893          98.029         9.33708 
        2.21508         97.4059         9.27352 
        2.22122         96.9102         9.21052 
        2.22736          96.494         9.14823 
        2.23349         96.0296         9.08654 
        2.23962         95.3457         9.02538 
        2.24577         95.0132         8.96473 
         2.2519         94.6514         8.90473 
        2.25802         93.7358         8.84536 
        2.26417         93.4259         8.78638 
        2.27031         92.9324         8.72787 
        2.27644         92.4087         8.67007 
        2.28257         91.8618          8.6128 
        2.28872         91.5294         8.55593 
        2.29486         90.8916         8.49959 
        2.30099         90.4793         8.44387 
        2.30712         90.0721         8.38863 
        2.31326         89.4818         8.33378 
         2.3194         88.9771         8.27946 
        2.32553         88.6364         8.22572 
        2.33166         88.1592         8.17247 
         2.3378         87.6306         8.11962 
        2.34394         87.2305         8.06722 
        2.35007         86.7048         8.01536 
        2.35619         86.4058         7.96401 
        2.36233         85.8257         7.91299 
        2.36848         85.3091         7.86232 
        2.37462         84.9183         7.81219 
        2.38075         84.5225         7.76255 
        2.38689         84.0479         7.71329 
        2.39303         83.4398         7.66448 
        2.39916         83.1984         7.61613 
        2.40529         82.8491         7.56821 
        2.41143         82.2422         7.52066 
        2.41757         81.9458          7.4735 
         2.4237         81.5469         7.42683 
        2.42983         81.0012         7.38056 
        2.43598         80.5794         7.33456 
        2.44211         80.3941         7.28903 
        2.44823         79.8684         7.24399 
        2.45437         79.2405         7.19921 
        2.46052         78.8798         7.15477 
        2.46665         78.6228         7.11078 
        2.47279         78.1322         7.06717 
        2.47892         77.8029          7.0239 
        2.48507         77.2959         6.98096 
         2.4912         77.0111         6.93845 
