# k  (h/Mpc)    Pcb(k)  (Mpc/h)^3    Pcb_linear(k)  (Mpc/h)^3
     0.00783031         813.767          820.51 
       0.013688         959.659         968.853 
       0.019231         942.486         946.014 
      0.0249154         844.877          844.22 
      0.0312784         703.354         703.023 
      0.0375637         576.946         577.212 
      0.0433917         489.877         488.319 
      0.0492413         426.907         426.662 
      0.0555754         385.432         383.699 
      0.0619321         352.898          354.72 
       0.067871         331.458         331.425 
      0.0738098         306.189         306.088 
      0.0800417         276.042         275.349 
      0.0862327         242.458         242.329 
      0.0921407          212.22         211.891 
      0.0982031         186.058         184.973 
       0.104506         163.611         163.537 
       0.110769         149.194         148.915 
       0.116806         140.781         139.804 
       0.122832         133.857         133.593 
       0.129052         128.662         128.034 
       0.135211         122.569         121.699 
       0.141259         114.364         113.936 
       0.147318         104.912         104.852 
       0.153489         95.6263         95.1488 
       0.159709         86.8435         86.0162 
       0.165845         78.6893         78.4715 
       0.171974         73.8245         72.7339 
       0.178125         69.6042         68.6546 
       0.184229          66.442           65.81 
        0.19034         64.5271         63.5546 
       0.196428         62.1612         61.3258 
       0.202534         59.0127          58.723 
       0.208729         56.3364         55.5847 
       0.214876         53.1078         52.1122 
       0.220989         49.1985         48.5927 
       0.227147         46.3993         45.2928 
        0.23329         43.6426         42.4699 
       0.239377         41.4751         40.2184 
       0.245482         39.6305         38.4585 
       0.251667         37.9584         37.0408 
       0.257832         37.0337         35.8059 
       0.263955         35.5095         34.5897 
       0.270079         34.1782         33.2773 
        0.27624          32.609         31.8308 
       0.282372         31.1401         30.3092 
        0.28843         29.9386         28.8052 
       0.294538         28.4514          27.376 
       0.300721         27.0001         26.0832 
        0.30691         26.1169         24.9705 
       0.313033         25.0937         24.0357 
       0.319153         24.4839         23.2235 
       0.325316         23.4382         22.4757 
        0.33145         22.6569         21.7514 
       0.337538         21.9699         21.0205 
       0.343633         21.3082          20.267 
       0.349808         20.4632         19.4909 
       0.355968         19.6873         18.7272 
       0.362074         19.1013         18.0042 
       0.368217         18.3855         17.3316 
       0.374374         17.8817         16.7195 
       0.380519         17.1826         16.1686 
       0.386598         16.6262          15.671 
       0.392688         16.1165         15.2039 
        0.39888         15.7316         14.7471 
       0.405048         15.3087          14.299 
       0.411186         14.8372         13.8551 
       0.417313         14.3878         13.4168 
       0.423458         13.8847         12.9863 
       0.429607         13.5809         12.5715 
       0.435692         13.2374         12.1832 
       0.441815         12.7645         11.8162 
       0.447964         12.3611         11.4714 
       0.454126          12.106         11.1474 
       0.460267         11.8797         10.8409 
       0.466387         11.5276         10.5469 
        0.47254         11.2817         10.2597 
       0.478662         10.9519         9.98069 
       0.484765         10.6806         9.70835 
       0.490885         10.3586         9.44232 
       0.497035          10.081          9.1841 
       0.503198         9.88071         8.93586 
       0.509342         9.58235         8.69921 
       0.515458         9.40408         8.47445 
       0.521598         9.18649         8.25927 
       0.527764         9.01312         8.05221 
       0.533884          8.7329         7.85401 
           0.54         8.57357         7.66196 
       0.546137         8.32612         7.47473 
       0.552299         8.15755          7.2921 
       0.558452          7.9649         7.11498 
       0.564573          7.8213         6.94399 
       0.570708         7.64589         6.77819 
       0.576825         7.48536         6.61877 
       0.582926         7.31168         6.46568 
       0.589034         7.17328         6.31796 
       0.595184         7.06021         6.17429 
       0.601379         6.87395         6.03424 
       0.607522         6.72595         5.89958 
       0.613639         6.57625         5.76944 
       0.619772         6.47099         5.64276 
       0.625918         6.33527         5.51943 
       0.632068         6.22777         5.39954 
       0.638161         6.10018         5.28418 
         0.6443         5.97309         5.17137 
       0.650464         5.84144         5.06157 
       0.656582         5.77417         4.95594 
       0.662703         5.66667         4.85351 
       0.668861         5.51891         4.75353 
       0.675024         5.42032         4.65633 
       0.681124         5.39644         4.56282 
       0.687237          5.2633          4.4716 
       0.693381         5.12807         4.38237 
       0.699536         5.08242         4.29537 
       0.705665         4.98557         4.21108 
       0.711789         4.87504         4.12916 
       0.717957         4.78246         4.04891 
        0.72409         4.71675          3.9713 
       0.730186          4.6706         3.89625 
       0.736317         4.55819         3.82276 
       0.742472         4.50062         3.75091 
       0.748622         4.42971         3.68099 
        0.75476         4.31971         3.61299 
       0.760888         4.27675         3.54681 
       0.767043         4.16962         3.48202 
       0.773185         4.11975         3.41898 
       0.779291         4.08859         3.35787 
       0.785407         4.00443         3.29818 
       0.791564         3.94169         3.23957 
       0.797719         3.87318         3.18244 
       0.803834         3.82341         3.12707 
       0.809972         3.75505         3.07283 
       0.816124         3.70467         3.01977 
       0.822261         3.64917         2.96811 
       0.828378         3.59203         2.91783 
       0.834502         3.53868         2.86867 
       0.840667         3.49803         2.82033 
       0.846816          3.4292         2.77325 
       0.852925         3.38302         2.72753 
       0.859047          3.3333         2.68276 
       0.865192         3.28679         2.63884 
       0.871341          3.2421         2.59589 
       0.877463         3.18705         2.55408 
       0.883569         3.15047         2.51331 
       0.889708         3.10889         2.47322 
       0.895864           3.066         2.43391 
       0.902008         3.01382         2.39554 
       0.908149         2.97541         2.35803 
       0.914301         2.93961         2.32125 
       0.920448         2.90546         2.28531 
       0.926574         2.87859         2.25025 
       0.932687         2.83072           2.216 
       0.938823         2.77798         2.18235 
       0.944975         2.75797         2.14932 
       0.951105         2.70176         2.11709 
       0.957225         2.68169         2.08559 
       0.963368          2.6496         2.05462 
       0.969511         2.61786         2.02428 
       0.975621         2.57756         1.99472 
       0.981748         2.53149         1.96568 
       0.987916         2.50778         1.93703 
        0.99406         2.48684         1.90907 
        1.00019         2.45354         1.88171 
        1.00632         2.42943         1.85492 
        1.01246         2.39319         1.82862 
        1.01859         2.36586         1.80287 
        1.02471         2.32663         1.77764 
        1.03085         2.30378         1.75282 
        1.03698         2.28014         1.72852 
        1.04314         2.25373         1.70459 
        1.04929         2.22857         1.68116 
        1.05541          2.1944         1.65828 
        1.06154         2.17782         1.63576 
        1.06769         2.15855         1.61363 
        1.07382          2.1242         1.59198 
        1.07993         2.09684         1.57078 
        1.08607         2.08087         1.54988 
        1.09222         2.05082         1.52934 
        1.09836         2.04006         1.50919 
        1.10449         2.00042         1.48943 
        1.11063         1.98221         1.47001 
        1.11677         1.96491         1.45094 
         1.1229         1.93736         1.43224 
        1.12903         1.92469         1.41386 
        1.13518          1.8965         1.39578 
        1.14131         1.87857         1.37804 
        1.14745         1.85764         1.36061 
        1.15359         1.83754         1.34347 
        1.15973         1.81653         1.32663 
        1.16584         1.79796         1.31015 
        1.17197           1.776         1.29393 
        1.17811         1.75741         1.27793 
        1.18424         1.73908         1.26226 
        1.19038         1.72118         1.24679 
        1.19652          1.7063          1.2316 
        1.20267         1.69265         1.21666 
        1.20881         1.67105         1.20197 
        1.21495         1.65491         1.18754 
        1.22108         1.63999         1.17336 
         1.2272          1.6162         1.15944 
        1.23334          1.6066         1.14572 
        1.23949         1.58893         1.13218 
        1.24562         1.57463         1.11891 
        1.25174         1.56173         1.10586 
        1.25789         1.53969         1.09299 
        1.26402         1.52454         1.08034 
        1.27014         1.50762         1.06793 
        1.27628         1.49689         1.05567 
        1.28244         1.48244         1.04358 
        1.28858         1.46717          1.0317 
        1.29471         1.45036         1.02003 
        1.30084         1.43958         1.00856 
        1.30697         1.42945         0.99724 
        1.31312          1.4143        0.986079 
        1.31925         1.40067        0.975126 
        1.32537         1.38976        0.964349 
        1.33151         1.37359        0.953697 
        1.33765         1.36227        0.943212 
        1.34378         1.35029        0.932906 
        1.34992         1.33946        0.922746 
        1.35606         1.32557        0.912716 
         1.3622         1.31526        0.902853 
        1.36833         1.30101        0.893159 
        1.37445         1.28859        0.883613 
        1.38059         1.27829        0.874177 
        1.38675         1.26625        0.864857 
        1.39288         1.25777         0.85571 
        1.39901         1.24413        0.846699 
        1.40515         1.23339        0.837798 
         1.4113         1.22661        0.829028 
        1.41742         1.21126        0.820417 
        1.42355         1.19988        0.811913 
         1.4297         1.19291        0.803504 
        1.43585         1.18172        0.795217 
        1.44198         1.17224        0.787078 
        1.44809         1.16224        0.779069 
        1.45423         1.15272        0.771142 
        1.46036         1.14325        0.763339 
        1.46649         1.12982        0.755642 
        1.47263         1.12452        0.748045 
        1.47877         1.11883        0.740555 
        1.48491         1.10225        0.733157 
        1.49104         1.09645        0.725875 
        1.49718          1.0859        0.718687 
        1.50333         1.07752        0.711585 
        1.50947         1.07069        0.704594 
         1.5156         1.06093        0.697707 
        1.52172         1.05314        0.690912 
        1.52787         1.04355        0.684194 
          1.534         1.03786        0.677574 
        1.54013         1.02788        0.671048 
        1.54627         1.01985        0.664596 
        1.55241         1.00999        0.658228 
        1.55855         1.00336        0.651953 
        1.56467        0.995421        0.645777 
         1.5708        0.988098        0.639663 
        1.57695        0.979091         0.63362 
        1.58308        0.969823        0.627668 
        1.58922        0.965398        0.621789 
        1.59535        0.955205        0.615987 
         1.6015        0.948093        0.610252 
        1.60764        0.942138        0.604592 
        1.61376        0.933857         0.59902 
        1.61989        0.927898        0.593513 
        1.62604        0.917987        0.588063 
        1.63218         0.91482        0.582685 
        1.63831        0.906565        0.577387 
        1.64444        0.899849        0.572152 
        1.65059        0.894376         0.56697 
        1.65673        0.885067        0.561858 
        1.66285        0.879693        0.556823 
        1.66898         0.87448        0.551847 
        1.67512        0.864757        0.546923 
        1.68127        0.859244        0.542055 
         1.6874        0.855871        0.537256 
        1.69353        0.847213        0.532519 
        1.69967        0.842242        0.527827 
        1.70581        0.838265        0.523194 
        1.71193        0.828563        0.518634 
        1.71806        0.824759        0.514118 
        1.72421        0.819312        0.509648 
        1.73035         0.81021        0.505236 
        1.73649        0.809044        0.500877 
        1.74262        0.800168        0.496572 
        1.74876        0.795187        0.492316 
        1.75489        0.790546        0.488118 
        1.76101        0.782654         0.48397 
        1.76715        0.778729        0.479865 
        1.77329        0.774015        0.475803 
        1.77943        0.768468        0.471786 
        1.78557        0.764657        0.467821 
        1.79171        0.759223        0.463901 
        1.79785        0.753486        0.460025 
        1.80399        0.746481        0.456194 
        1.81012        0.742896        0.452412 
        1.81625        0.737037        0.448674 
        1.82239        0.733324        0.444973 
        1.82853        0.727619        0.441316 
        1.83466          0.7225        0.437703 
        1.84078        0.717504        0.434135 
        1.84692        0.713315        0.430601 
        1.85306         0.71038        0.427101 
         1.8592        0.703092        0.423646 
        1.86533        0.700026        0.420231 
        1.87147        0.693218         0.41685 
        1.87761        0.690228        0.413505 
        1.88375        0.685338          0.4102 
        1.88988        0.680009        0.406935 
        1.89601        0.675739        0.403703 
        1.90215         0.67244        0.400504 
        1.90829        0.667555        0.397341 
        1.91442        0.663458        0.394212 
        1.92056        0.660502        0.391119 
         1.9267        0.655242        0.388057 
        1.93284        0.650123        0.385025 
        1.93897        0.646649        0.382031 
        1.94509        0.643458        0.379076 
        1.95123        0.637706        0.376144 
        1.95737        0.634815        0.373241 
        1.96349        0.630306        0.370377 
        1.96964        0.628025        0.367534 
        1.97578        0.621899        0.364719 
        1.98192        0.618589         0.36194 
        1.98805        0.615121        0.359189 
        1.99419        0.611841        0.356467 
        2.00033        0.608402        0.353772 
        2.00647        0.605022        0.351105 
         2.0126        0.601674         0.34847 
        2.01874        0.597438        0.345859 
        2.02488        0.592549        0.343271 
        2.03101        0.589302        0.340715 
        2.03714        0.587111        0.338187 
        2.04328        0.582683        0.335682 
        2.04941        0.579282        0.333205 
        2.05554        0.575835        0.330754 
        2.06167        0.572666        0.328325 
        2.06781        0.567848        0.325919 
        2.07396        0.566551        0.323534 
        2.08009        0.562316        0.321177 
        2.08622        0.559077        0.318847 
        2.09237        0.556224        0.316535 
        2.09851        0.552342        0.314245 
        2.10464         0.54965        0.311982 
        2.11077        0.544715        0.309744 
        2.11691          0.5425        0.307522 
        2.12305        0.541063        0.305323 
        2.12918        0.536368         0.30315 
        2.13531        0.533422        0.300998 
        2.14145        0.530093        0.298862 
         2.1476        0.527688        0.296745 
        2.15372        0.524822        0.294658 
        2.15985        0.521206        0.292589 
        2.16599        0.519036        0.290535 
        2.17213        0.515835        0.288502 
        2.17827        0.512075        0.286489 
         2.1844         0.51018        0.284497 
        2.19054        0.507394        0.282524 
        2.19666        0.504764        0.280571 
         2.2028        0.501446        0.278636 
        2.20893        0.499443        0.276718 
        2.21508        0.496241        0.274815 
        2.22122        0.493993         0.27293 
        2.22736        0.489475        0.271067 
        2.23349        0.486974        0.269221 
        2.23962        0.485491        0.267391 
        2.24577        0.482798        0.265577 
         2.2519        0.479998        0.263782 
        2.25802        0.478071        0.262007 
        2.26417        0.474372        0.260243 
        2.27031        0.472503        0.258494 
        2.27644        0.470857        0.256765 
        2.28257        0.466869        0.255053 
        2.28872         0.46564        0.253353 
        2.29486        0.462224        0.251669 
        2.30099        0.460015        0.250003 
        2.30712        0.457633        0.248352 
        2.31326         0.45533        0.246713 
         2.3194        0.452902         0.24509 
        2.32553        0.450107        0.243484 
        2.33166        0.448944        0.241893 
         2.3378        0.446051        0.240314 
        2.34394        0.443927        0.238749 
        2.35007        0.440392        0.237199 
        2.35619        0.437986        0.235666 
        2.36233        0.436435        0.234142 
        2.36848        0.435023        0.232629 
        2.37462        0.432411        0.231132 
        2.38075        0.429953         0.22965 
        2.38689        0.428342        0.228179 
        2.39303        0.425741        0.226722 
        2.39916          0.4237        0.225278 
        2.40529        0.422155        0.223848 
        2.41143        0.419032        0.222429 
        2.41757        0.417276        0.221021 
         2.4237        0.415227        0.219628 
        2.42983        0.412798        0.218248 
        2.43598        0.411128        0.216875 
        2.44211        0.408702        0.215517 
        2.44823        0.407177        0.214173 
        2.45437        0.405587        0.212837 
        2.46052        0.403779        0.211511 
        2.46665        0.401135        0.210199 
        2.47279        0.399274        0.208899 
        2.47892        0.397326        0.207608 
        2.48507        0.396128        0.206328 
         2.4912        0.393525         0.20506 
