# k  (h/Mpc)    P(k)  (Mpc/h)^3    P_linear(k)  (Mpc/h)^3
     0.00783031          6528.8          6583.7 
       0.013688         7536.82         7683.25 
       0.019231         7308.02            7379 
      0.0249154         6482.18          6458.2 
      0.0312784         5281.58         5290.75 
      0.0375637         4310.09         4336.64 
      0.0433917         3727.31         3719.22 
      0.0492413         3311.79         3321.64 
      0.0555754         3054.18         3044.86 
      0.0619321         2771.11         2819.98 
       0.067871         2574.58         2589.63 
      0.0738098         2319.36         2319.84 
      0.0800417         2028.41         2015.57 
      0.0862327         1741.75         1732.86 
      0.0921407         1527.99         1513.12 
      0.0982031         1379.39         1351.17 
       0.104506         1252.04         1243.89 
       0.110769         1187.73         1177.68 
       0.116806         1148.71         1127.49 
       0.122832         1079.84         1070.99 
       0.129052         1009.56         996.052 
       0.135211         935.928         907.547 
       0.141259         840.802         817.328 
       0.147318         755.184         735.549 
       0.153489         695.616         669.331 
       0.159709         657.374         622.136 
       0.165845         610.934         591.287 
       0.171974          601.59          569.29 
       0.178125         579.045         548.719 
       0.184229         543.562         524.464 
        0.19034         522.119         494.504 
       0.196428         492.792         460.591 
       0.202534         450.523         426.127 
       0.208729         431.853         394.539 
       0.214876         409.153         368.991 
       0.220989         381.501         349.752 
       0.227147         373.209         335.332 
        0.23329         360.304          323.68 
       0.239377         352.419         312.554 
       0.245482         334.791         300.201 
       0.251667         318.848         285.973 
       0.257832         311.491         270.642 
       0.263955         291.234          255.43 
       0.270079         277.479         241.434 
        0.27624         264.497         229.352 
       0.282372         256.353         219.465 
        0.28843         253.567         211.426 
       0.294538         241.651         204.336 
       0.300721         232.601         197.472 
        0.30691           228.3         190.345 
       0.313033         217.645         182.889 
       0.319153         212.911         175.155 
       0.325316         205.425         167.461 
        0.33145         198.542         160.257 
       0.337538         191.071         153.827 
       0.343633         184.888          148.16 
       0.349808         179.189         143.107 
       0.355968         174.791         138.527 
       0.362074         170.403          134.19 
       0.368217         166.859         129.867 
       0.374374         162.389         125.472 
       0.380519         155.435         121.071 
       0.386598         152.088         116.796 
       0.392688         147.282         112.699 
        0.39888         144.321         108.824 
       0.405048         140.761         105.282 
       0.411186         138.374         102.039 
       0.417313         134.928         99.0256 
       0.423458         131.351         96.1438 
       0.429607         128.197         93.3274 
       0.435692         126.067          90.586 
       0.441815         122.435         87.8691 
       0.447964         118.529         85.1989 
       0.454126         116.327         82.6212 
       0.460267         115.129         80.1846 
       0.466387          112.14         77.8924 
        0.47254         110.725         75.7154 
       0.478662         106.859         73.6648 
       0.484765         105.193         71.7103 
       0.490885         102.819          69.814 
       0.497035         101.802         67.9527 
       0.503198         99.6815         66.1345 
       0.509342         97.0028         64.3744 
       0.515458         95.4876         62.6803 
       0.521598         93.0674         61.0419 
       0.527764         92.0557         59.4635 
       0.533884         91.2345         57.9662 
           0.54          88.681          56.535 
       0.546137         86.5113         55.1533 
       0.552299         85.0524         53.8112 
       0.558452         83.4937         52.5089 
       0.564573         83.0198         51.2495 
       0.570708         80.5976          50.025 
       0.576825         79.7143         48.8427 
       0.582926         78.7481         47.7025 
       0.589034         77.2428         46.5988 
       0.595184         76.2072         45.5247 
       0.601379          74.438         44.4794 
       0.607522         72.9815         43.4777 
       0.613639         72.3573         42.5127 
       0.619772         70.9495         41.5753 
       0.625918         70.2731         40.6641 
       0.632068         68.9353         39.7785 
       0.638161         67.8032         38.9254 
         0.6443         67.3296         38.0902 
       0.650464         65.7404          37.276 
       0.656582         65.4752         36.4916 
       0.662703         64.4983         35.7305 
       0.668861         63.0345          34.988 
       0.675024         62.8521          34.267 
       0.681124          61.857         33.5742 
       0.687237         60.7046         32.8994 
       0.693381         60.0924         32.2401 
       0.699536          59.372         31.5973 
       0.705665         58.5056         30.9744 
       0.711789         57.6069         30.3686 
       0.717957         56.8078         29.7747 
        0.72409          56.215            29.2 
       0.730186         55.8622         28.6439 
       0.736317         54.8657         28.0994 
       0.742472         54.0859         27.5673 
       0.748622         53.2815         27.0497 
        0.75476         52.8009         26.5466 
       0.760888         52.5437         26.0572 
       0.767043         51.4186         25.5783 
       0.773185         50.7389         25.1125 
       0.779291         50.1667         24.6609 
       0.785407         49.5837         24.2198 
       0.791564         49.4686         23.7868 
       0.797719         48.5489         23.3646 
       0.803834         48.2271         22.9553 
       0.809972         47.6763         22.5544 
       0.816124          47.076         22.1623 
       0.822261         46.4045         21.7806 
       0.828378         46.2608          21.409 
       0.834502         45.6271         21.0458 
       0.840667         45.2364         20.6888 
       0.846816         44.6777         20.3411 
       0.852925         44.1864         20.0036 
       0.859047         44.0474          19.673 
       0.865192         43.3026         19.3489 
       0.871341         42.8146          19.032 
       0.877463         42.3978         18.7235 
       0.883569         42.2931         18.4228 
       0.889708         41.7718         18.1271 
       0.895864         41.4017         17.8371 
       0.902008          40.952         17.5541 
       0.908149         40.4625         17.2775 
       0.914301         40.1517         17.0064 
       0.920448         39.9848         16.7413 
       0.926574         39.2627         16.4829 
       0.932687         38.9839         16.2305 
       0.938823         38.5688         15.9824 
       0.944975         38.1468          15.739 
       0.951105         37.8763         15.5015 
       0.957225         37.6156         15.2693 
       0.963368         37.2561         15.0411 
       0.969511         36.9168         14.8176 
       0.975621         36.6219         14.5998 
       0.981748         36.2526         14.3859 
       0.987916         35.9415         14.1749 
        0.99406         35.6506         13.9689 
        1.00019         35.2971         13.7675 
        1.00632         35.0463         13.5702 
        1.01246         34.7429         13.3764 
        1.01859         34.4949         13.1868 
        1.02471         34.1261         13.0011 
        1.03085         33.9111         12.8183 
        1.03698         33.7103         12.6395 
        1.04314         33.3994         12.4633 
        1.04929         32.9951         12.2909 
        1.05541         32.9255         12.1224 
        1.06154         32.6352         11.9567 
        1.06769         32.2087         11.7939 
        1.07382         32.0309         11.6346 
        1.07993         31.8335         11.4786 
        1.08607         31.5416         11.3249 
        1.09222         31.3686         11.1738 
        1.09836         31.0849         11.0257 
        1.10449         30.9287         10.8804 
        1.11063         30.6132         10.7376 
        1.11677         30.5468         10.5974 
         1.1229         30.2108         10.4599 
        1.12903         29.9987         10.3248 
        1.13518         29.9178          10.192 
        1.14131         29.6048         10.0615 
        1.14745         29.3351         9.93346 
        1.15359         29.0287         9.80759 
        1.15973         28.9807         9.68385 
        1.16584         28.7358          9.5628 
        1.17197         28.4011         9.44364 
        1.17811         28.2803         9.32614 
        1.18424          27.898         9.21098 
        1.19038         27.8268         9.09744 
        1.19652         27.6425         8.98585 
        1.20267         27.4915         8.87613 
        1.20881         27.2807         8.76827 
        1.21495         27.1872         8.66237 
        1.22108         27.0647         8.55823 
         1.2272         26.7784         8.45605 
        1.23334         26.6366         8.35531 
        1.23949         26.4441         8.25597 
        1.24562         26.2356         8.15852 
        1.25174         26.0785         8.06279 
        1.25789         25.9658         7.96831 
        1.26402         25.7918         7.87551 
        1.27014         25.6589         7.78441 
        1.27628         25.3933         7.69448 
        1.28244         25.4041          7.6058 
        1.28858         25.1209         7.51864 
        1.29471         24.9276         7.43304 
        1.30084         24.7698         7.34885 
        1.30697         24.6975         7.26584 
        1.31312         24.4872         7.18399 
        1.31925         24.2897         7.10366 
        1.32537         24.1337         7.02464 
        1.33151         23.9642         6.94654 
        1.33765         23.9389         6.86967 
        1.34378         23.8121         6.79411 
        1.34992         23.5899         6.71964 
        1.35606         23.4062         6.64612 
         1.3622          23.324         6.57383 
        1.36833         23.2363         6.50279 
        1.37445         23.0189         6.43284 
        1.38059         22.9002          6.3637 
        1.38675          22.767         6.29541 
        1.39288         22.6228         6.22839 
        1.39901         22.4733         6.16238 
        1.40515         22.3774         6.09717 
         1.4113         22.3107         6.03294 
        1.41742         22.1652         5.96987 
        1.42355         21.9577         5.90758 
         1.4297           21.88           5.846 
        1.43585          21.746         5.78532 
        1.44198         21.6461         5.72573 
        1.44809         21.4925         5.66708 
        1.45423          21.405         5.60905 
        1.46036         21.3235         5.55192 
        1.46649         21.1628         5.49558 
        1.47263          21.029         5.43997 
        1.47877         20.9116         5.38515 
        1.48491         20.8213           5.331 
        1.49104         20.6746         5.27771 
        1.49718         20.6636          5.2251 
        1.50333         20.5303         5.17313 
        1.50947         20.3633         5.12197 
         1.5156         20.3014         5.07158 
        1.52172         20.1614         5.02187 
        1.52787         20.1102         4.97272 
          1.534         19.9565         4.92429 
        1.54013          19.937         4.87655 
        1.54627         19.7496         4.82936 
        1.55241         19.6538         4.78278 
        1.55855         19.5598         4.73689 
        1.56467         19.4635         4.69172 
         1.5708          19.372         4.64701 
        1.57695         19.3043         4.60281 
        1.58308         19.1207          4.5593 
        1.58922         19.0465         4.51631 
        1.59535         18.9608         4.47389 
         1.6015         18.9009         4.43196 
        1.60764         18.7739         4.39059 
        1.61376         18.6956         4.34985 
        1.61989          18.529          4.3096 
        1.62604          18.471         4.26977 
        1.63218         18.3918         4.23047 
        1.63831         18.2973         4.19175 
        1.64444         18.2175          4.1535 
        1.65059         18.1252         4.11563 
        1.65673         18.0438         4.07828 
        1.66285           17.97         4.04149 
        1.66898         17.8656         4.00515 
        1.67512         17.8358         3.96918 
        1.68127         17.7135         3.93362 
         1.6874         17.6374         3.89857 
        1.69353          17.532         3.86397 
        1.69967           17.44          3.8297 
        1.70581         17.3739         3.79587 
        1.71193         17.2803         3.76257 
        1.71806         17.2166          3.7296 
        1.72421         17.1428         3.69696 
        1.73035         17.0465         3.66474 
        1.73649          16.945         3.63292 
        1.74262         16.8835          3.6015 
        1.74876         16.8225         3.57043 
        1.75489         16.7206         3.53979 
        1.76101         16.6357         3.50951 
        1.76715         16.5836         3.47955 
        1.77329         16.4714          3.4499 
        1.77943          16.427         3.42058 
        1.78557         16.3783         3.39165 
        1.79171         16.2767         3.36304 
        1.79785         16.1922         3.33476 
        1.80399         16.0933         3.30681 
        1.81012         16.0719         3.27921 
        1.81625          15.969         3.25194 
        1.82239         15.8914         3.22494 
        1.82853         15.8338         3.19826 
        1.83466         15.7467         3.17191 
        1.84078          15.676         3.14588 
        1.84692         15.6476          3.1201 
        1.85306         15.5609         3.09457 
         1.8592         15.5256         3.06937 
        1.86533          15.419         3.04447 
        1.87147         15.3344         3.01981 
        1.87761          15.279         2.99542 
        1.88375         15.2296         2.97132 
        1.88988         15.1535         2.94751 
        1.89601         15.0943         2.92395 
        1.90215         14.9979         2.90063 
        1.90829         14.9584         2.87757 
        1.91442         14.8554         2.85476 
        1.92056         14.8222         2.83222 
         1.9267         14.7605          2.8099 
        1.93284         14.7521          2.7878 
        1.93897         14.6488         2.76598 
        1.94509         14.5921         2.74445 
        1.95123          14.501         2.72308 
        1.95737         14.4278         2.70193 
        1.96349         14.3938         2.68106 
        1.96964         14.3777         2.66034 
        1.97578         14.2857         2.63984 
        1.98192         14.2246         2.61959 
        1.98805         14.1175         2.59956 
        1.99419         14.1111         2.57973 
        2.00033          14.025         2.56009 
        2.00647         13.9758         2.54067 
         2.0126          13.902         2.52148 
        2.01874         13.8629         2.50246 
        2.02488         13.7747         2.48362 
        2.03101         13.7292           2.465 
        2.03714         13.6731          2.4466 
        2.04328         13.6333         2.42836 
        2.04941         13.5552         2.41032 
        2.05554         13.5271         2.39247 
        2.06167         13.4863         2.37478 
        2.06781         13.4305         2.35727 
        2.07396          13.381         2.33991 
        2.08009         13.2955         2.32275 
        2.08622         13.2577         2.30579 
        2.09237         13.2294         2.28896 
        2.09851         13.1469         2.27229 
        2.10464         13.0797         2.25582 
        2.11077         13.0361         2.23953 
        2.11691         12.9749         2.22337 
        2.12305         12.9403         2.20736 
        2.12918          12.887         2.19155 
        2.13531         12.8394         2.17589 
        2.14145         12.7662         2.16035 
         2.1476         12.6959         2.14494 
        2.15372         12.7049         2.12976 
        2.15985         12.6301         2.11471 
        2.16599         12.5761         2.09976 
        2.17213         12.5346         2.08497 
        2.17827         12.4765         2.07033 
         2.1844         12.4306         2.05584 
        2.19054         12.4151         2.04148 
        2.19666         12.3373         2.02728 
         2.2028         12.3169         2.01321 
        2.20893         12.2268         1.99926 
        2.21508         12.1888         1.98542 
        2.22122         12.1301         1.97171 
        2.22736         12.1234         1.95816 
        2.23349         12.0457         1.94474 
        2.23962         12.0201         1.93144 
        2.24577         11.9815         1.91825 
         2.2519         11.9171          1.9052 
        2.25802          11.851         1.89229 
        2.26417         11.8502         1.87947 
        2.27031         11.7922         1.86675 
        2.27644         11.7646         1.85419 
        2.28257         11.6915         1.84174 
        2.28872         11.6866         1.82939 
        2.29486         11.6376         1.81715 
        2.30099         11.5638         1.80504 
        2.30712         11.5282         1.79304 
        2.31326         11.4762         1.78113 
         2.3194         11.4278         1.76933 
        2.32553         11.3983         1.75766 
        2.33166         11.3296          1.7461 
         2.3378         11.3182         1.73463 
        2.34394         11.2579         1.72326 
        2.35007         11.2397           1.712 
        2.35619         11.2003         1.70086 
        2.36233         11.1373         1.68979 
        2.36848         11.0846          1.6788 
        2.37462         11.0442         1.66793 
        2.38075         11.0066         1.65716 
        2.38689         10.9904         1.64648 
        2.39303         10.9229         1.63589 
        2.39916         10.8927         1.62541 
        2.40529         10.8679         1.61502 
        2.41143         10.8014         1.60472 
        2.41757         10.7628          1.5945 
         2.4237         10.7251         1.58438 
        2.42983          10.705         1.57436 
        2.43598         10.6605         1.56439 
        2.44211         10.6177         1.55453 
        2.44823         10.5723         1.54477 
        2.45437         10.5627         1.53507 
        2.46052         10.5003         1.52545 
        2.46665         10.4868         1.51592 
        2.47279         10.4344         1.50648 
        2.47892          10.388         1.49712 
        2.48507         10.3492         1.48782 
         2.4912         10.3033         1.47862 
