# k  (h/Mpc)    Pcb(k)  (Mpc/h)^3    Pcb_linear(k)  (Mpc/h)^3
     0.00783031         11791.1         11873.5 
       0.013688         12483.4         12751.3 
       0.019231         11313.5         11434.6 
      0.0249154         9435.22         9362.78 
      0.0312784         7160.32         7155.23 
      0.0375637         5520.19         5542.81 
      0.0433917         4619.27         4593.04 
      0.0492413         4039.23         4038.21 
      0.0555754         3719.33          3690.8 
      0.0619321         3358.94         3417.33 
       0.067871         3109.52         3118.26 
      0.0738098         2762.65         2749.63 
      0.0800417         2361.59         2328.31 
      0.0862327         1971.53            1943 
      0.0921407         1696.77         1654.26 
      0.0982031         1512.69         1453.53 
       0.104506         1362.09         1332.93 
       0.110769         1299.84         1268.72 
       0.116806         1263.27         1223.11 
       0.122832         1190.24         1165.14 
       0.129052         1106.96         1078.74 
       0.135211         1021.61          971.24 
       0.141259         904.901         860.465 
       0.147318         804.131         761.378 
       0.153489         733.038         683.716 
       0.159709          691.74         631.418 
       0.165845         640.852         600.181 
       0.171974         633.561         579.993 
       0.178125         610.315         561.092 
       0.184229         571.067          536.76 
        0.19034         548.552         504.571 
       0.196428         517.824         466.918 
       0.202534         469.748         428.308 
       0.208729         451.124         393.151 
       0.214876         424.813         365.242 
       0.220989         395.865         344.865 
       0.227147         386.148         330.223 
        0.23329         371.601         318.823 
       0.239377         365.377         307.969 
       0.245482         345.746         295.645 
       0.251667         329.639         281.114 
       0.257832         321.827         265.208 
       0.263955         300.526         249.336 
       0.270079         285.354         234.742 
        0.27624         272.471         222.202 
       0.282372         264.317         212.051 
        0.28843         260.978         203.884 
       0.294538         247.777          196.78 
       0.300721         239.156         189.948 
        0.30691         234.256         182.885 
       0.313033         222.644         175.481 
       0.319153         217.937         167.798 
       0.325316         211.489         160.133 
        0.33145         204.391          152.95 
       0.337538         195.949         146.516 
       0.343633         189.717         140.851 
       0.349808         183.751          135.79 
       0.355968         179.666         131.226 
       0.362074         173.889         126.932 
       0.368217         170.854         122.678 
       0.374374         166.201         118.396 
       0.380519          159.04         114.117 
       0.386598         156.046         109.972 
       0.392688         150.882         105.996 
        0.39888         147.858         102.217 
       0.405048         143.882         98.7551 
       0.411186         141.984         95.5739 
       0.417313         138.723         92.6142 
       0.423458         134.945         89.7968 
       0.429607         130.976         87.0635 
       0.435692         128.972         84.4153 
       0.441815         125.591         81.8083 
       0.447964         121.741         79.2578 
       0.454126         119.592         76.7939 
       0.460267         118.105         74.4576 
       0.466387         114.714         72.2569 
        0.47254         113.391         70.1621 
       0.478662         109.745         68.1834 
       0.484765         107.815            66.3 
       0.490885         105.579         64.4808 
       0.497035         104.335         62.7059 
       0.503198          102.61         60.9773 
       0.509342         99.9501          59.308 
       0.515458         98.0346         57.7043 
       0.521598         95.4705         56.1545 
       0.527764         94.6401         54.6597 
       0.533884         93.6985         53.2379 
           0.54         91.2147         51.8771 
       0.546137          89.039         50.5644 
       0.552299         87.3839         49.2925 
       0.558452         86.0034         48.0627 
       0.564573         85.5173         46.8762 
       0.570708          83.002         45.7242 
       0.576825         82.0216         44.6132 
       0.582926         81.0694         43.5422 
       0.589034          79.564         42.5061 
       0.595184         78.4212         41.4981 
       0.601379         76.9461         40.5172 
       0.607522         75.0137         39.5771 
       0.613639         74.5291         38.6718 
       0.619772         73.1264         37.7931 
       0.625918         72.6625         36.9399 
       0.632068         70.7895         36.1121 
       0.638161          70.091         35.3161 
         0.6443         69.4907         34.5378 
       0.650464         67.8466         33.7797 
       0.656582         67.4916         33.0499 
       0.662703         66.6276         32.3418 
       0.668861         65.1433         31.6511 
       0.675024         64.9671         30.9805 
       0.681124         63.8316         30.3365 
       0.687237         62.9701         29.7097 
       0.693381         61.9201         29.0976 
       0.699536         61.3819         28.5017 
       0.705665         60.6199         27.9247 
       0.711789          59.622         27.3642 
       0.717957         58.8534         26.8151 
        0.72409         58.1277         26.2841 
       0.730186         57.8195         25.7707 
       0.736317         56.9989         25.2684 
       0.742472         55.9191         24.7777 
       0.748622         55.1522         24.3006 
        0.75476         55.0312         23.8371 
       0.760888         54.4502         23.3865 
       0.767043         53.3312         22.9458 
       0.773185         52.5469         22.5174 
       0.779291         52.0616         22.1024 
       0.785407         51.6726         21.6972 
       0.791564         51.2239         21.2996 
       0.797719         50.2741         20.9122 
       0.803834         50.0944         20.5369 
       0.809972         49.5835         20.1694 
       0.816124         48.7692         19.8102 
       0.822261         48.1714         19.4607 
       0.828378         48.0215         19.1206 
       0.834502         47.4953         18.7884 
       0.840667         47.0279          18.462 
       0.846816         46.4719         18.1442 
       0.852925         45.9376          17.836 
       0.859047         45.6367         17.5342 
       0.865192         45.0773         17.2385 
       0.871341         44.6462         16.9493 
       0.877463         44.0847         16.6682 
       0.883569         44.0702         16.3941 
       0.889708         43.5007         16.1248 
       0.895864         43.1775         15.8608 
       0.902008         42.6337         15.6033 
       0.908149         42.0807         15.3517 
       0.914301         41.8649         15.1053 
       0.920448         41.7932         14.8645 
       0.926574         40.9226         14.6297 
       0.932687         40.7023         14.4006 
       0.938823          40.365         14.1755 
       0.944975         39.8678         13.9548 
       0.951105         39.5243         13.7395 
       0.957225         39.3035         13.5291 
       0.963368         38.9507         13.3225 
       0.969511         38.6435         13.1201 
       0.975621         38.1831         12.9231 
       0.981748         37.9503         12.7296 
       0.987916         37.5175         12.5388 
        0.99406         37.3834         12.3526 
        1.00019          36.913         12.1706 
        1.00632         36.6298         11.9924 
        1.01246         36.4075         11.8176 
        1.01859         36.1181         11.6465 
        1.02471         35.8345         11.4789 
        1.03085          35.482         11.3141 
        1.03698         35.2945         11.1529 
        1.04314         34.9906         10.9941 
        1.04929         34.6622         10.8388 
        1.05541         34.4642         10.6871 
        1.06154         34.1365          10.538 
        1.06769         33.8646         10.3914 
        1.07382         33.5334         10.2482 
        1.07993          33.416         10.1079 
        1.08607         33.0861         9.96968 
        1.09222         32.9304         9.83391 
        1.09836         32.6849         9.70081 
        1.10449         32.4556         9.57034 
        1.11063         32.1698         9.44211 
        1.11677         32.1069         9.31628 
         1.1229         31.7316         9.19296 
        1.12903         31.5364         9.07176 
        1.13518         31.3482         8.95265 
        1.14131         31.1266         8.83574 
        1.14745         30.9344         8.72098 
        1.15359         30.5353         8.60823 
        1.15973         30.5457         8.49743 
        1.16584         30.2703         8.38908 
        1.17197         30.0121         8.28246 
        1.17811         29.8081         8.17736 
        1.18424         29.4504         8.07439 
        1.19038         29.2798          7.9729 
        1.19652         29.2087         7.87318 
        1.20267         28.9192         7.77517 
        1.20881         28.7653         7.67885 
        1.21495         28.6705         7.58431 
        1.22108         28.5739         7.49137 
         1.2272         28.2184          7.4002 
        1.23334         28.1281         7.31034 
        1.23949         27.9034         7.22175 
        1.24562         27.7381         7.13487 
        1.25174         27.5845         7.04955 
        1.25789         27.3794         6.96536 
        1.26402          27.225         6.88269 
        1.27014         27.1065         6.80156 
        1.27628         26.8822         6.72149 
        1.28244         26.8962         6.64255 
        1.28858         26.5723         6.56498 
        1.29471         26.3448         6.48882 
        1.30084         26.1793         6.41394 
        1.30697         26.1488         6.34012 
        1.31312         25.9748         6.26736 
        1.31925         25.7561         6.19596 
        1.32537         25.5624         6.12575 
        1.33151         25.4378         6.05637 
        1.33765         25.3733          5.9881 
        1.34378         25.2268         5.92101 
        1.34992         25.0154         5.85491 
        1.35606         24.7683         5.78966 
         1.3622         24.7518         5.72553 
        1.36833         24.6681         5.66251 
        1.37445         24.4132         5.60048 
        1.38059         24.2598         5.53918 
        1.38675         24.2118         5.47865 
        1.39288         24.0747         5.41927 
        1.39901         23.8739         5.36079 
        1.40515          23.748         5.30304 
         1.4113         23.7027         5.24616 
        1.41742         23.5298         5.19033 
        1.42355          23.324          5.1352 
         1.4297         23.3203         5.08071 
        1.43585         23.1825         5.02703 
        1.44198         22.9895         4.97433 
        1.44809         22.8333         4.92248 
        1.45423         22.7989         4.87117 
        1.46036         22.7097         4.82069 
        1.46649         22.5204          4.7709 
        1.47263         22.4086         4.72177 
        1.47877         22.2686         4.67336 
        1.48491         22.1251         4.62554 
        1.49104         22.0533          4.5785 
        1.49718         21.9806         4.53207 
        1.50333         21.8876         4.48621 
        1.50947         21.6591         4.44107 
         1.5156         21.6619         4.39662 
        1.52172         21.4894         4.35278 
        1.52787         21.4866         4.30945 
          1.534         21.2588         4.26675 
        1.54013         21.2812         4.22468 
        1.54627         21.0862         4.18309 
        1.55241          21.021         4.14206 
        1.55855         20.8836         4.10163 
        1.56467         20.7114         4.06185 
         1.5708          20.726         4.02248 
        1.57695         20.5951         3.98357 
        1.58308         20.4581         3.94527 
        1.58922         20.3728         3.90744 
        1.59535         20.3096         3.87011 
         1.6015         20.2486         3.83323 
        1.60764         20.0699         3.79684 
        1.61376         19.9594         3.76102 
        1.61989          19.887         3.72563 
        1.62604         19.7664         3.69062 
        1.63218         19.5918         3.65607 
        1.63831         19.5925         3.62205 
        1.64444         19.5186         3.58845 
        1.65059          19.383         3.55519 
        1.65673         19.3395         3.52238 
        1.66285         19.2529         3.49009 
        1.66898         19.1744         3.45818 
        1.67512         19.0342         3.42661 
        1.68127          18.995          3.3954 
         1.6874         18.9253         3.36466 
        1.69353         18.7765          3.3343 
        1.69967         18.7053         3.30425 
        1.70581         18.6491         3.27459 
        1.71193         18.5496         3.24539 
        1.71806         18.4861         3.21649 
        1.72421         18.3875         3.18789 
        1.73035         18.3279         3.15966 
        1.73649         18.1943         3.13178 
        1.74262         18.1065         3.10426 
        1.74876         18.1367         3.07705 
        1.75489         17.9533         3.05021 
        1.76101         17.9356         3.02371 
        1.76715         17.7482         2.99748 
        1.77329         17.7071         2.97153 
        1.77943         17.6682         2.94588 
        1.78557          17.628         2.92056 
        1.79171         17.5193         2.89554 
        1.79785         17.4391          2.8708 
        1.80399         17.3269         2.84636 
        1.81012         17.2789         2.82223 
        1.81625         17.1564         2.79839 
        1.82239         17.1126         2.77479 
        1.82853         17.0512         2.75147 
        1.83466         16.9504         2.72844 
        1.84078         16.8976         2.70569 
        1.84692         16.7904         2.68317 
        1.85306         16.7525         2.66088 
         1.8592           16.72         2.63887 
        1.86533         16.6325         2.61713 
        1.87147         16.5444          2.5956 
        1.87761         16.4806         2.57431 
        1.88375         16.4029         2.55327 
        1.88988         16.2954          2.5325 
        1.89601         16.2788         2.51194 
        1.90215         16.2291          2.4916 
        1.90829         16.1298         2.47148 
        1.91442         16.0493         2.45159 
        1.92056         16.0263         2.43193 
         1.9267          15.965         2.41247 
        1.93284         15.8946         2.39321 
        1.93897         15.8152         2.37419 
        1.94509         15.7753         2.35543 
        1.95123          15.672         2.33681 
        1.95737         15.6165         2.31838 
        1.96349         15.5714          2.3002 
        1.96964         15.4812         2.28216 
        1.97578         15.4478          2.2643 
        1.98192         15.3706         2.24667 
        1.98805         15.3143         2.22923 
        1.99419         15.2233         2.21197 
        2.00033         15.1723         2.19488 
        2.00647          15.123         2.17798 
         2.0126         15.0443         2.16128 
        2.01874         14.9935         2.14473 
        2.02488         14.9194         2.12834 
        2.03101         14.8788         2.11215 
        2.03714         14.8207         2.09615 
        2.04328          14.737         2.08029 
        2.04941         14.6823          2.0646 
        2.05554         14.6566         2.04909 
        2.06167         14.6141         2.03372 
        2.06781         14.5192          2.0185 
        2.07396         14.4924         2.00341 
        2.08009         14.4144         1.98851 
        2.08622         14.3636         1.97377 
        2.09237         14.2921         1.95915 
        2.09851         14.2763         1.94468 
        2.10464         14.1932         1.93037 
        2.11077          14.139         1.91623 
        2.11691         14.0683         1.90219 
        2.12305         14.0453          1.8883 
        2.12918          13.984         1.87458 
        2.13531         13.9225         1.86099 
        2.14145         13.8869          1.8475 
         2.1476         13.8145         1.83413 
        2.15372         13.7832         1.82096 
        2.15985         13.7338         1.80791 
        2.16599         13.6531         1.79495 
        2.17213         13.6153         1.78212 
        2.17827         13.5605         1.76943 
         2.1844         13.4837         1.75687 
        2.19054         13.4755         1.74442 
        2.19666          13.406         1.73212 
         2.2028         13.3844         1.71992 
        2.20893         13.3127         1.70783 
        2.21508         13.2577         1.69584 
        2.22122          13.208         1.68396 
        2.22736         13.1758         1.67223 
        2.23349         13.1261          1.6606 
        2.23962          13.081         1.64908 
        2.24577         13.0154         1.63766 
         2.2519         12.9548         1.62636 
        2.25802         12.9018         1.61519 
        2.26417         12.8812         1.60409 
        2.27031         12.8167         1.59308 
        2.27644          12.779         1.58221 
        2.28257         12.7396         1.57143 
        2.28872         12.6932         1.56074 
        2.29486           12.67         1.55015 
        2.30099         12.5961         1.53968 
        2.30712         12.5556          1.5293 
        2.31326         12.5023           1.519 
         2.3194         12.4711          1.5088 
        2.32553         12.4068         1.49871 
        2.33166         12.3737         1.48872 
         2.3378         12.3284          1.4788 
        2.34394          12.286         1.46897 
        2.35007         12.2375         1.45924 
        2.35619         12.2092         1.44961 
        2.36233         12.1361         1.44005 
        2.36848         12.1101         1.43055 
        2.37462         12.0808         1.42116 
        2.38075         12.0121         1.41186 
        2.38689         11.9713         1.40263 
        2.39303         11.9315         1.39349 
        2.39916         11.8793         1.38444 
        2.40529         11.8464         1.37547 
        2.41143         11.8043         1.36657 
        2.41757         11.7356         1.35775 
         2.4237         11.7051         1.34902 
        2.42983         11.6826         1.34036 
        2.43598         11.6534         1.33176 
        2.44211         11.5961         1.32325 
        2.44823          11.538         1.31484 
        2.45437          11.526         1.30647 
        2.46052         11.4816         1.29817 
        2.46665         11.4453         1.28995 
        2.47279         11.3851         1.28181 
        2.47892         11.3662         1.27373 
        2.48507         11.3348         1.26572 
         2.4912         11.2792         1.25778 
