# k  (h/Mpc)    Pcb(k)  (Mpc/h)^3    Pcb_linear(k)  (Mpc/h)^3
     0.00783031         16876.7         17131.5 
       0.013688         21597.5           21396 
       0.019231         21717.9         21691.2 
      0.0249154         19518.5         19981.9 
      0.0312784         16988.1         17217.6 
      0.0375637         14625.1         14652.2 
      0.0433917         12555.1         12827.6 
      0.0492413         11436.1         11560.3 
      0.0555754         10250.5         10644.4 
      0.0619321         9892.33         9938.47 
       0.067871         8940.94         9269.65 
      0.0738098         8203.07         8496.55 
      0.0800417          7251.2         7587.94 
      0.0862327         6500.45         6680.89 
      0.0921407         5894.34         5912.03 
      0.0982031         5259.96         5287.55 
       0.104506         4964.84         4828.87 
       0.110769         4634.03            4529 
       0.116806         4398.45         4325.06 
       0.122832         4203.81         4140.72 
       0.129052         3893.38         3921.21 
       0.135211         3662.42         3656.05 
       0.141259         3475.19         3362.36 
       0.147318         3247.82         3066.13 
       0.153489         2963.41         2795.58 
       0.159709         2803.67         2576.79 
       0.165845         2713.75         2418.37 
       0.171974         2579.18         2306.44 
       0.178125         2464.44         2220.97 
       0.184229          2361.9         2141.85 
        0.19034         2238.24         2052.72 
       0.196428         2185.08         1947.98 
       0.202534         2092.53         1830.47 
       0.208729         1993.02         1708.59 
       0.214876         1911.52          1596.3 
       0.220989         1845.04         1501.17 
       0.227147         1771.72          1424.8 
        0.23329         1706.13         1365.67 
       0.239377         1683.29         1318.04 
       0.245482         1581.87         1274.34 
       0.251667         1573.81         1228.52 
       0.257832         1510.72          1178.3 
       0.263955         1459.84         1124.23 
       0.270079         1409.97          1068.7 
        0.27624         1392.76         1014.98 
       0.282372          1335.6         966.703 
        0.28843         1329.97         925.598 
       0.294538         1265.03         890.573 
       0.300721         1257.76         860.162 
        0.30691         1210.53         832.464 
       0.313033         1186.53         805.722 
       0.319153         1168.62         778.253 
       0.325316          1130.3         749.581 
        0.33145         1105.49         720.538 
       0.337538         1085.17         692.294 
       0.343633         1063.05         665.642 
       0.349808         1027.62         641.019 
       0.355968         1020.34         619.047 
       0.362074          1011.3         599.453 
       0.368217         979.209         581.348 
       0.374374         943.438          564.03 
       0.380519         946.048         547.027 
       0.386598         918.738         530.222 
       0.392688         915.125         513.375 
        0.39888         889.372         496.545 
       0.405048         878.885         480.398 
       0.411186         866.896         465.206 
       0.417313         848.859         451.102 
       0.423458         833.561         437.962 
       0.429607         824.102         425.646 
       0.435692         806.748         414.085 
       0.441815         800.052         402.849 
       0.447964         783.817         391.787 
       0.454126          777.49         380.904 
       0.460267         758.146         370.294 
       0.466387          749.14         360.011 
        0.47254         745.045          350.06 
       0.478662         737.134         340.635 
       0.484765         715.962         331.721 
       0.490885         711.468         323.212 
       0.497035         696.969         315.039 
       0.503198         692.745         307.168 
       0.509342         685.595         299.571 
       0.515458         681.903           292.2 
       0.521598         664.892         284.974 
       0.527764         653.389         277.923 
       0.533884         651.167         271.151 
           0.54          644.61         264.625 
       0.546137         638.873         258.317 
       0.552299          630.49         252.223 
       0.558452         625.845         246.372 
       0.564573         617.987         240.764 
       0.570708         610.996         235.326 
       0.576825         594.908         230.061 
       0.582926         597.577         224.949 
       0.589034         591.413         219.967 
       0.595184         586.024         215.095 
       0.601379         577.643         210.341 
       0.607522         569.637         205.778 
       0.613639         569.609         201.381 
       0.619772         557.874         197.109 
       0.625918         554.642         192.958 
       0.632068         547.258         188.929 
       0.638161         545.091         185.053 
         0.6443         535.997         181.258 
       0.650464         533.982         177.557 
       0.656582         529.277         173.985 
       0.662703         527.563         170.509 
       0.668861         518.812         167.107 
       0.675024         514.564         163.795 
       0.681124         510.997         160.608 
       0.687237         506.894           157.5 
       0.693381         500.228         154.463 
       0.699536         492.416         151.504 
       0.705665         491.731         148.637 
       0.711789         489.267         145.849 
       0.717957          484.71         143.114 
        0.72409         482.396         140.466 
       0.730186         475.002         137.901 
       0.736317         472.263         135.386 
       0.742472         469.577         132.924 
       0.748622         464.396         130.527 
        0.75476         457.789         128.194 
       0.760888         453.857         125.922 
       0.767043         454.035         123.697 
       0.773185         449.534         121.531 
       0.779291         444.456          119.43 
       0.785407         441.612         117.376 
       0.791564         436.665         115.359 
       0.797719         434.809          113.39 
       0.803834         429.822         111.481 
       0.809972         429.016         109.609 
       0.816124         427.522         107.777 
       0.822261         421.687         105.992 
       0.828378         419.161         104.253 
       0.834502         414.715         102.552 
       0.840667         411.697         100.879 
       0.846816         409.854         99.2484 
       0.852925         406.902         97.6644 
       0.859047          405.08         96.1121 
       0.865192         399.967         94.5888 
       0.871341         396.631         93.0979 
       0.877463          396.55         91.6463 
       0.883569         392.601         90.2296 
       0.889708         389.885          88.836 
       0.895864         388.566         87.4685 
       0.902008         385.052         86.1331 
       0.908149         380.322         84.8266 
       0.914301         378.278         83.5454 
       0.920448         376.449         82.2921 
       0.926574         370.682         81.0692 
       0.932687         370.655         79.8739 
       0.938823         366.925         78.6987 
       0.944975          367.09         77.5447 
       0.951105          362.78         76.4182 
       0.957225         360.507         75.3163 
       0.963368         356.218         74.2325 
       0.969511         355.384         73.1703 
       0.975621         353.194         72.1347 
       0.981748         351.144         71.1167 
       0.987916         349.244         70.1121 
        0.99406         343.844         69.1308 
        1.00019         342.435         68.1705 
        1.00632         341.066         67.2294 
        1.01246          338.26         66.3048 
        1.01859         338.522         65.3993 
        1.02471         333.404          64.512 
        1.03085         332.031         63.6382 
        1.03698         330.673         62.7826 
        1.04314         327.776         61.9393 
        1.04929         324.579         61.1136 
        1.05541         325.511         60.3064 
        1.06154         319.901         59.5119 
        1.06769         319.068         58.7307 
        1.07382         316.607         57.9662 
        1.07993         315.038         57.2172 
        1.08607         314.143         56.4785 
        1.09222         310.701         55.7521 
        1.09836         308.849         55.0396 
        1.10449         306.259         54.3404 
        1.11063         303.125         53.6528 
        1.11677         303.405         52.9773 
         1.1229         300.947         52.3148 
        1.12903         299.138         51.6632 
        1.13518         296.312         51.0222 
        1.14131         294.868         50.3925 
        1.14745          293.59          49.774 
        1.15359         291.498         49.1657 
        1.15973         289.537         48.5675 
        1.16584         287.395          47.982 
        1.17197         287.268         47.4054 
        1.17811         283.692         46.8365 
        1.18424         281.697         46.2788 
        1.19038         280.953         45.7286 
        1.19652         278.657         45.1876 
        1.20267          277.92         44.6554 
        1.20881         275.704          44.132 
        1.21495         273.658         43.6178 
        1.22108         272.105         43.1119 
         1.2272         270.487         42.6154 
        1.23334         269.228         42.1255 
        1.23949         266.699         41.6423 
        1.24562         265.883          41.168 
        1.25174         264.144         40.7019 
        1.25789         261.955         40.2416 
        1.26402         259.962         39.7893 
        1.27014         258.495         39.3451 
        1.27628          256.94         38.9065 
        1.28244         256.722         38.4737 
        1.28858         254.183         38.0482 
        1.29471         252.796           37.63 
        1.30084         250.803         37.2186 
        1.30697         249.722         36.8128 
        1.31312         247.185         36.4125 
        1.31925         246.144         36.0195 
        1.32537         245.467         35.6327 
        1.33151         243.115         35.2502 
        1.33765         241.279         34.8736 
        1.34378         240.659         34.5033 
        1.34992         239.228         34.1382 
        1.35606         238.603         33.7776 
         1.3622         236.224         33.4229 
        1.36833         234.533         33.0742 
        1.37445         233.404         32.7307 
        1.38059         231.478          32.391 
        1.38675         230.629         32.0554 
        1.39288         229.353         31.7259 
        1.39901         228.232         31.4012 
        1.40515         226.588         31.0803 
         1.4113         225.395         30.7641 
        1.41742         223.596         30.4535 
        1.42355         222.633         30.1467 
         1.4297         220.711         29.8431 
        1.43585         219.711         29.5439 
        1.44198         218.884           29.25 
        1.44809          217.31         28.9607 
        1.45423         216.195         28.6742 
        1.46036         214.834         28.3921 
        1.46649         213.389         28.1138 
        1.47263         212.252         27.8389 
        1.47877         210.735          27.568 
        1.48491         208.836         27.3002 
        1.49104         208.389         27.0365 
        1.49718         206.626         26.7762 
        1.50333          206.01         26.5189 
        1.50947         204.542         26.2655 
         1.5156         202.868         26.0158 
        1.52172         202.114         25.7694 
        1.52787         200.405         25.5258 
          1.534         199.998         25.2855 
        1.54013         198.319         25.0487 
        1.54627         197.215         24.8144 
        1.55241         196.161         24.5832 
        1.55855         194.603         24.3552 
        1.56467         193.642         24.1308 
         1.5708         192.883         23.9086 
        1.57695         191.744         23.6889 
        1.58308         190.502         23.4724 
        1.58922         189.028         23.2585 
        1.59535         187.578         23.0474 
         1.6015         186.973         22.8386 
        1.60764         185.844         22.6326 
        1.61376         184.892         22.4296 
        1.61989         183.932          22.229 
        1.62604         182.571         22.0304 
        1.63218         181.757         21.8344 
        1.63831         180.316         21.6412 
        1.64444         179.545         21.4503 
        1.65059          178.59         21.2613 
        1.65673         177.365         21.0747 
        1.66285         176.087          20.891 
        1.66898         175.255         20.7093 
        1.67512         174.662         20.5295 
        1.68127         172.926         20.3517 
         1.6874          172.25         20.1764 
        1.69353         171.146         20.0033 
        1.69967          169.85         19.8318 
        1.70581         169.193         19.6624 
        1.71193         167.863         19.4956 
        1.71806         167.322         19.3304 
        1.72421           166.2         19.1668 
        1.73035          165.45         19.0053 
        1.73649         164.467         18.8458 
        1.74262         163.437         18.6881 
        1.74876         162.335         18.5322 
        1.75489         161.607         18.3784 
        1.76101         160.096         18.2264 
        1.76715         159.937          18.076 
        1.77329         158.774          17.927 
        1.77943         158.062         17.7797 
        1.78557         157.073         17.6342 
        1.79171         156.299         17.4904 
        1.79785         155.108         17.3481 
        1.80399         154.322         17.2075 
        1.81012         153.431         17.0686 
        1.81625         152.867         16.9313 
        1.82239         151.645         16.7954 
        1.82853         151.123          16.661 
        1.83466         150.046         16.5282 
        1.84078          149.34          16.397 
        1.84692         148.014          16.267 
        1.85306         147.742         16.1383 
         1.8592         146.696         16.0112 
        1.86533          146.11         15.8855 
        1.87147         144.924         15.7611 
        1.87761         144.006         15.6379 
        1.88375         143.211         15.5162 
        1.88988          142.07         15.3959 
        1.89601          141.85         15.2768 
        1.90215         140.851          15.159 
        1.90829         139.998         15.0424 
        1.91442         139.417          14.927 
        1.92056         138.492          14.813 
         1.9267         137.717            14.7 
        1.93284         136.728         14.5882 
        1.93897          136.28         14.4777 
        1.94509         135.531         14.3686 
        1.95123         134.925         14.2604 
        1.95737         134.057         14.1532 
        1.96349         133.297         14.0474 
        1.96964         132.322         13.9424 
        1.97578         131.576         13.8384 
        1.98192         131.041         13.7357 
        1.98805         130.336          13.634 
        1.99419         129.453         13.5334 
        2.00033         128.825         13.4337 
        2.00647          128.16         13.3351 
         2.0126         127.204         13.2376 
        2.01874         126.592          13.141 
        2.02488         126.292         13.0452 
        2.03101         124.971         12.9506 
        2.03714         124.656          12.857 
        2.04328         123.694         12.7642 
        2.04941          123.25         12.6725 
        2.05554         122.362         12.5817 
        2.06167         121.948         12.4916 
        2.06781          121.03         12.4025 
        2.07396         120.497         12.3141 
        2.08009         119.804         12.2267 
        2.08622         118.905         12.1402 
        2.09237          118.53         12.0545 
        2.09851         117.775         11.9695 
        2.10464         117.382         11.8855 
        2.11077         116.675         11.8024 
        2.11691         116.094           11.72 
        2.12305         115.383         11.6383 
        2.12918         114.593         11.5576 
        2.13531         114.006         11.4777 
        2.14145         113.364         11.3983 
         2.1476         112.503         11.3196 
        2.15372         112.296         11.2421 
        2.15985         111.638         11.1652 
        2.16599         110.846         11.0888 
        2.17213         110.332         11.0131 
        2.17827          109.71         10.9383 
         2.1844          108.97         10.8642 
        2.19054         108.604         10.7907 
        2.19666         107.923          10.718 
         2.2028          107.25          10.646 
        2.20893         106.936         10.5746 
        2.21508         106.183         10.5037 
        2.22122         105.619         10.4335 
        2.22736         105.116         10.3641 
        2.23349          104.61         10.2953 
        2.23962         104.035         10.2271 
        2.24577         103.353         10.1595 
         2.2519         103.032         10.0926 
        2.25802         102.117         10.0264 
        2.26417         101.847         9.96057 
        2.27031         101.105         9.89531 
        2.27644         100.658         9.83082 
        2.28257         100.007         9.76692 
        2.28872         99.6655         9.70347 
        2.29486         98.9567          9.6406 
        2.30099         98.4616         9.57841 
        2.30712          97.926         9.51675 
        2.31326         97.3586         9.45552 
         2.3194         96.8797         9.39488 
        2.32553         96.4034         9.33487 
        2.33166         95.8483         9.27541 
         2.3378         95.5113         9.21639 
        2.34394         94.9547         9.15787 
        2.35007         94.3689         9.09994 
        2.35619         93.9585         9.04258 
        2.36233         93.4261         8.98559 
        2.36848         92.8698         8.92896 
        2.37462         92.4887         8.87295 
        2.38075         91.8291         8.81748 
        2.38689         91.3958         8.76243 
        2.39303         90.8196         8.70787 
        2.39916         90.5167         8.65383 
        2.40529         90.2486         8.60025 
        2.41143         89.5179         8.54709 
        2.41757         89.0733         8.49436 
         2.4237         88.5645         8.44218 
        2.42983          88.067         8.39043 
        2.43598         87.5648         8.33899 
        2.44211         87.3861         8.28807 
        2.44823           86.81         8.23768 
        2.45437         86.1224         8.18758 
        2.46052         85.6573         8.13786 
        2.46665         85.4775         8.08863 
        2.47279           84.88         8.03984 
        2.47892         84.4941         7.99141 
        2.48507         84.0835         7.94334 
         2.4912         83.7211         7.89576 
