# k  (h/Mpc)    Pcb(k)  (Mpc/h)^3    Pcb_linear(k)  (Mpc/h)^3
     0.00783031         16389.6         16635.1 
       0.013688         20968.1         20776.2 
       0.019231         21089.6           21063 
      0.0249154         18961.6         19403.3 
      0.0312784         16502.4         16719.1 
      0.0375637         14204.6         14227.9 
      0.0433917         12198.1         12456.2 
      0.0492413         11109.1         11225.6 
      0.0555754         9962.14         10336.1 
      0.0619321         9610.12          9650.7 
       0.067871            8690         9001.26 
      0.0738098         7972.25         8250.54 
      0.0800417         7048.11         7368.24 
      0.0862327         6316.45         6487.45 
      0.0921407         5724.62         5740.86 
      0.0982031         5107.63         5134.46 
       0.104506         4819.25         4689.05 
       0.110769         4498.23         4397.87 
       0.116806         4268.66         4199.83 
       0.122832         4080.89         4020.83 
       0.129052         3780.32         3807.68 
       0.135211         3555.73         3550.19 
       0.141259         3372.13         3265.01 
       0.147318         3149.95         2977.36 
       0.153489         2873.54         2714.64 
       0.159709         2717.89         2502.19 
       0.165845         2629.24         2348.35 
       0.171974         2498.51         2239.66 
       0.178125         2387.64         2156.66 
       0.184229         2289.36         2079.83 
        0.19034         2167.42         1993.29 
       0.196428         2116.29         1891.58 
       0.202534         2027.04         1777.48 
       0.208729         1929.47         1659.12 
       0.214876         1848.85         1550.08 
       0.220989         1784.57         1457.71 
       0.227147         1712.69         1383.55 
        0.23329         1649.18         1326.13 
       0.239377         1626.61         1279.88 
       0.245482         1528.02         1237.45 
       0.251667         1520.12         1192.95 
       0.257832         1459.18         1144.19 
       0.263955         1410.01         1091.68 
       0.270079         1361.44         1037.76 
        0.27624         1344.96         985.589 
       0.282372         1289.48         938.714 
        0.28843         1282.86         898.799 
       0.294538         1219.89         864.788 
       0.300721         1213.29         835.258 
        0.30691         1166.93         808.362 
       0.313033         1143.99         782.394 
       0.319153         1125.77          755.72 
       0.325316         1088.99         727.878 
        0.33145         1064.71         699.676 
       0.337538         1045.52          672.25 
       0.343633         1023.39         646.369 
       0.349808          989.01         622.459 
       0.355968         982.219         601.124 
       0.362074         973.111         582.097 
       0.368217         942.488         564.516 
       0.374374         907.341           547.7 
       0.380519         909.592         531.189 
       0.386598         883.573          514.87 
       0.392688         880.248         498.511 
        0.39888         855.242         482.169 
       0.405048         844.621         466.489 
       0.411186         833.115         451.737 
       0.417313         815.815         438.042 
       0.423458         801.115         425.282 
       0.429607         791.726         413.322 
       0.435692         774.769         402.096 
       0.441815          768.43         391.186 
       0.447964         752.724         380.444 
       0.454126         746.001         369.876 
       0.460267         727.726         359.573 
       0.466387         719.316         349.588 
        0.47254          714.33         339.925 
       0.478662         707.469         330.773 
       0.484765         686.713         322.117 
       0.490885          682.31         313.854 
       0.497035         668.528         305.917 
       0.503198         664.231         298.275 
       0.509342         657.568         290.898 
       0.515458         653.773          283.74 
       0.521598         637.381         276.724 
       0.527764         626.273         269.876 
       0.533884         624.175           263.3 
           0.54          617.55         256.964 
       0.546137         612.528         250.838 
       0.552299         604.013          244.92 
       0.558452         599.856         239.239 
       0.564573         592.158         233.793 
       0.570708         585.324         228.512 
       0.576825         569.807           223.4 
       0.582926         572.165         218.436 
       0.589034         566.412         213.598 
       0.595184         561.252         208.868 
       0.601379         553.134         204.251 
       0.607522         545.535          199.82 
       0.613639         545.401          195.55 
       0.619772          533.84         191.402 
       0.625918         531.074         187.372 
       0.632068         523.772         183.459 
       0.638161         521.772         179.695 
         0.6443         512.936          176.01 
       0.650464          510.78         172.416 
       0.656582         506.547         168.948 
       0.662703          504.83         165.572 
       0.668861         496.382         162.269 
       0.675024         492.368         159.053 
       0.681124         488.873         155.958 
       0.687237         484.798          152.94 
       0.693381         478.436         149.991 
       0.699536         471.218         147.117 
       0.705665         470.272         144.334 
       0.711789         467.947         141.626 
       0.717957         463.575         138.971 
        0.72409         461.259         136.399 
       0.730186         454.297         133.908 
       0.736317         451.493         131.466 
       0.742472         449.063         129.076 
       0.748622         444.032         126.748 
        0.75476         437.907         124.482 
       0.760888          433.97         122.276 
       0.767043         434.346         120.116 
       0.773185         429.826         118.012 
       0.779291         424.804         115.972 
       0.785407         422.382         113.978 
       0.791564         417.458         112.019 
       0.797719         415.512         110.107 
       0.803834         410.933         108.253 
       0.809972         410.157         106.436 
       0.816124         408.757         104.656 
       0.822261         403.215         102.923 
       0.828378         400.744         101.235 
       0.834502         396.585         99.5833 
       0.840667         393.619         97.9585 
       0.846816         391.879         96.3749 
       0.852925         389.023         94.8368 
       0.859047         387.175         93.3294 
       0.865192         382.383         91.8502 
       0.871341         379.237         90.4025 
       0.877463         378.998         88.9929 
       0.883569         375.453         87.6172 
       0.889708         372.611         86.2639 
       0.895864         371.116         84.9361 
       0.902008         367.872         83.6393 
       0.908149          363.71         82.3706 
       0.914301         361.402         81.1265 
       0.920448         359.575         79.9095 
       0.926574         354.283          78.722 
       0.932687         354.435         77.5614 
       0.938823         350.749         76.4202 
       0.944975         350.812         75.2996 
       0.951105         346.789         74.2057 
       0.957225         344.601         73.1357 
       0.963368         340.451         72.0833 
       0.969511         339.613         71.0518 
       0.975621         337.355         70.0462 
       0.981748         335.695         69.0577 
       0.987916         333.793         68.0821 
        0.99406         328.587         67.1293 
        1.00019         327.402         66.1967 
        1.00632         326.032         65.2829 
        1.01246         323.328         64.3851 
        1.01859         323.739         63.5058 
        1.02471         318.677         62.6442 
        1.03085         317.256         61.7957 
        1.03698         316.051         60.9649 
        1.04314         313.149          60.146 
        1.04929         310.296         59.3442 
        1.05541         311.146         58.5604 
        1.06154         305.763         57.7889 
        1.06769          305.07         57.0303 
        1.07382         302.753         56.2879 
        1.07993          301.14         55.5606 
        1.08607         300.299         54.8433 
        1.09222         297.136          54.138 
        1.09836          295.34          53.446 
        1.10449         292.708         52.7671 
        1.11063         289.927         52.0994 
        1.11677          289.96         51.4435 
         1.1229         287.673         50.8002 
        1.12903          285.95         50.1674 
        1.13518         283.432          49.545 
        1.14131         281.878         48.9336 
        1.14745          280.91         48.3329 
        1.15359         278.755         47.7422 
        1.15973         276.819         47.1613 
        1.16584         274.827         46.5928 
        1.17197         274.776         46.0329 
        1.17811         271.284         45.4805 
        1.18424         269.471         44.9389 
        1.19038         268.778         44.4046 
        1.19652         266.501         43.8793 
        1.20267         265.887         43.3625 
        1.20881         263.692         42.8542 
        1.21495         261.782         42.3549 
        1.22108         260.295         41.8637 
         1.2272         258.728         41.3815 
        1.23334         257.536         40.9059 
        1.23949         255.248         40.4366 
        1.24562         254.402         39.9761 
        1.25174         252.672         39.5234 
        1.25789         250.677         39.0765 
        1.26402          248.67         38.6373 
        1.27014         247.307          38.206 
        1.27628         245.902           37.78 
        1.28244         245.668         37.3598 
        1.28858         243.159         36.9466 
        1.29471         241.732         36.5405 
        1.30084         240.031         36.1411 
        1.30697         238.842          35.747 
        1.31312         236.505         35.3583 
        1.31925          235.61         34.9766 
        1.32537         234.894          34.601 
        1.33151         232.628         34.2296 
        1.33765         230.917          33.864 
        1.34378         230.293         33.5044 
        1.34992         228.935         33.1498 
        1.35606         228.553         32.7997 
         1.3622         226.223         32.4552 
        1.36833         224.414         32.1166 
        1.37445         223.487          31.783 
        1.38059         221.608         31.4532 
        1.38675         220.833         31.1273 
        1.39288         219.574         30.8073 
        1.39901          218.62          30.492 
        1.40515         216.843         30.1805 
         1.4113         215.776         29.8734 
        1.41742         214.085         29.5718 
        1.42355         213.134         29.2738 
         1.4297         211.283         28.9791 
        1.43585         210.384         28.6886 
        1.44198           209.5         28.4031 
        1.44809         208.162         28.1222 
        1.45423         207.103          27.844 
        1.46036         205.739         27.5701 
        1.46649         204.329         27.2998 
        1.47263         203.182         27.0329 
        1.47877         201.805         26.7698 
        1.48491         200.016         26.5098 
        1.49104         199.626         26.2537 
        1.49718         197.846         26.0009 
        1.50333         197.243         25.7511 
        1.50947         195.895         25.5051 
         1.5156         194.318         25.2626 
        1.52172         193.599         25.0233 
        1.52787         191.886         24.7867 
          1.534         191.556         24.5535 
        1.54013         190.017         24.3235 
        1.54627         188.874          24.096 
        1.55241         187.839         23.8714 
        1.55855         186.503         23.6501 
        1.56467         185.366         23.4321 
         1.5708         184.721         23.2164 
        1.57695         183.685          23.003 
        1.58308         182.521         22.7928 
        1.58922         181.203         22.5851 
        1.59535         179.742         22.3801 
         1.6015         179.207         22.1774 
        1.60764         178.056         21.9773 
        1.61376         177.116         21.7802 
        1.61989         176.225         21.5854 
        1.62604         174.929         21.3926 
        1.63218         174.164         21.2022 
        1.63831          172.83         21.0147 
        1.64444         172.077         20.8293 
        1.65059         171.088         20.6457 
        1.65673          169.89         20.4646 
        1.66285         168.819         20.2861 
        1.66898           167.9         20.1097 
        1.67512         167.424         19.9351 
        1.68127          165.78         19.7625 
         1.6874         165.025         19.5922 
        1.69353         164.065         19.4241 
        1.69967         162.814         19.2576 
        1.70581          162.18         19.0931 
        1.71193         160.937         18.9311 
        1.71806         160.398         18.7708 
        1.72421         159.358         18.6119 
        1.73035         158.688         18.4551 
        1.73649         157.712         18.3001 
        1.74262         156.695         18.1471 
        1.74876         155.726         17.9957 
        1.75489         154.947         17.8463 
        1.76101         153.546         17.6987 
        1.76715         153.412         17.5526 
        1.77329         152.364          17.408 
        1.77943         151.579         17.2649 
        1.78557         150.726         17.1237 
        1.79171         149.911          16.984 
        1.79785         148.823         16.8458 
        1.80399         148.022         16.7093 
        1.81012         147.187         16.5744 
        1.81625         146.645         16.4411 
        1.82239         145.556         16.3091 
        1.82853          144.99         16.1786 
        1.83466         143.954         16.0497 
        1.84078         143.305         15.9223 
        1.84692         141.988          15.796 
        1.85306         141.803         15.6711 
         1.8592         140.773         15.5476 
        1.86533         140.128         15.4256 
        1.87147         138.992         15.3047 
        1.87761         138.179         15.1851 
        1.88375         137.375          15.067 
        1.88988         136.422         14.9502 
        1.89601         136.111         14.8345 
        1.90215         135.159         14.7201 
        1.90829         134.408         14.6069 
        1.91442         133.796         14.4948 
        1.92056         132.934         14.3841 
         1.9267         132.273         14.2744 
        1.93284         131.292         14.1658 
        1.93897         130.782         14.0585 
        1.94509         130.111         13.9526 
        1.95123         129.549         13.8475 
        1.95737         128.756         13.7434 
        1.96349         128.003         13.6407 
        1.96964         127.001         13.5387 
        1.97578         126.295         13.4378 
        1.98192         125.854          13.338 
        1.98805         125.106         13.2393 
        1.99419         124.339         13.1416 
        2.00033         123.679         13.0448 
        2.00647         123.108          12.949 
         2.0126         122.131         12.8544 
        2.01874         121.535         12.7605 
        2.02488         121.257         12.6675 
        2.03101         120.036         12.5756 
        2.03714           119.7         12.4848 
        2.04328         118.818         12.3947 
        2.04941         118.318         12.3056 
        2.05554         117.531         12.2174 
        2.06167         117.151           12.13 
        2.06781         116.282         12.0434 
        2.07396         115.706         11.9575 
        2.08009         115.091         11.8727 
        2.08622         114.256         11.7887 
        2.09237         113.848         11.7055 
        2.09851         113.138          11.623 
        2.10464         112.741         11.5414 
        2.11077         112.074         11.4607 
        2.11691         111.547         11.3807 
        2.12305          110.78         11.3013 
        2.12918         110.061          11.223 
        2.13531         109.518         11.1454 
        2.14145         108.862         11.0683 
         2.1476         108.083         10.9919 
        2.15372         107.817         10.9166 
        2.15985         107.244         10.8419 
        2.16599         106.461         10.7677 
        2.17213         105.978         10.6943 
        2.17827         105.408         10.6216 
         2.1844         104.649         10.5496 
        2.19054         104.315         10.4783 
        2.19666         103.747         10.4077 
         2.2028         103.039         10.3378 
        2.20893         102.726         10.2684 
        2.21508         102.039         10.1996 
        2.22122         101.477         10.1314 
        2.22736         100.976          10.064 
        2.23349         100.494         9.99722 
        2.23962         99.9467           9.931 
        2.24577         99.3274         9.86534 
         2.2519         99.0362         9.80036 
        2.25802         98.1105         9.73607 
        2.26417         97.8316         9.67218 
        2.27031         97.1662         9.60881 
        2.27644         96.6997         9.54619 
        2.28257         96.0808         9.48414 
        2.28872         95.8065         9.42253 
        2.29486         95.0814         9.36147 
        2.30099         94.6242         9.30109 
        2.30712         94.1524         9.24121 
        2.31326         93.5628         9.18176 
         2.3194         93.0783         9.12287 
        2.32553         92.6911          9.0646 
        2.33166         92.1418         9.00686 
         2.3378         91.7432         8.94955 
        2.34394         91.2602         8.89272 
        2.35007         90.7229         8.83647 
        2.35619         90.3264         8.78077 
        2.36233         89.7611         8.72543 
        2.36848         89.2314         8.67045 
        2.37462          88.862         8.61606 
        2.38075         88.2648         8.56219 
        2.38689         87.8567         8.50874 
        2.39303         87.2523         8.45575 
        2.39916         87.0003         8.40328 
        2.40529         86.6915         8.35125 
        2.41143         85.9809         8.29963 
        2.41757         85.6308         8.24843 
         2.4237         85.1483         8.19775 
        2.42983         84.6418         8.14751 
        2.43598         84.1512         8.09755 
        2.44211         84.0211          8.0481 
        2.44823         83.4336         7.99918 
        2.45437         82.7309         7.95053 
        2.46052         82.3546         7.90224 
        2.46665         82.1473         7.85444 
        2.47279         81.5502         7.80706 
        2.47892         81.2257         7.76004 
        2.48507         80.8012         7.71336 
         2.4912         80.4681         7.66715 
