# k  (h/Mpc)    Pcb(k)  (Mpc/h)^3    Pcb_linear(k)  (Mpc/h)^3
     0.00783031         7677.74         7774.92 
       0.013688         9762.01          9712.7 
       0.019231          9862.3          9847.8 
      0.0249154         8942.35         9072.34 
      0.0312784         7770.23         7817.59 
      0.0375637         6665.27         6652.93 
      0.0433917         5763.15         5824.59 
      0.0492413         5230.47         5249.19 
      0.0555754         4736.52         4833.33 
      0.0619321         4525.91         4512.84 
       0.067871         4134.59         4209.17 
      0.0738098          3788.8         3858.14 
      0.0800417          3360.4         3445.57 
      0.0862327         2992.88         3033.69 
      0.0921407         2684.78         2684.58 
      0.0982031         2390.78         2401.01 
       0.104506         2234.59         2192.73 
       0.110769         2088.05         2056.57 
       0.116806         1975.87         1963.96 
       0.122832         1898.58         1880.26 
       0.129052         1769.44         1780.59 
       0.135211         1658.07         1660.18 
       0.141259         1555.02         1526.82 
       0.147318         1438.88         1392.31 
       0.153489            1309         1269.45 
       0.159709         1227.35          1170.1 
       0.165845         1174.98         1098.16 
       0.171974         1111.84         1047.34 
       0.178125         1067.67         1008.52 
       0.184229         1030.39         972.596 
        0.19034         965.716         932.127 
       0.196428         940.896         884.566 
       0.202534         901.914         831.206 
       0.208729          848.17          775.86 
       0.214876         797.918          724.87 
       0.220989          768.93         681.672 
       0.227147         728.593         646.992 
        0.23329         701.129         620.141 
       0.239377         686.851         598.514 
       0.245482         644.052         578.671 
       0.251667         637.315         557.862 
       0.257832         613.941          535.06 
       0.263955          591.04         510.507 
       0.270079         567.718         485.293 
        0.27624         557.707         460.895 
       0.282372         534.159         438.974 
        0.28843         518.678         420.309 
       0.294538         494.695         404.404 
       0.300721         491.292         390.595 
        0.30691         469.184         378.017 
       0.313033         459.286         365.874 
       0.319153           443.6           353.4 
       0.325316         431.339          340.38 
        0.33145         417.692         327.192 
       0.337538         411.544         314.367 
       0.343633         397.757         302.264 
       0.349808         384.763         291.083 
       0.355968         380.068         281.106 
       0.362074         371.532         272.208 
       0.368217         361.572         263.987 
       0.374374         348.142         256.123 
       0.380519         343.966         248.402 
       0.386598         335.325         240.771 
       0.392688         331.845         233.121 
        0.39888         322.764         225.479 
       0.405048         315.456         218.146 
       0.411186         308.988         211.247 
       0.417313         303.189         204.843 
       0.423458         297.215         198.876 
       0.429607         290.846         193.283 
       0.435692         282.909         188.034 
       0.441815         280.827         182.932 
       0.447964         275.525         177.908 
       0.454126         265.134         172.967 
       0.460267         262.052         168.149 
       0.466387          258.96         163.479 
        0.47254         253.215          158.96 
       0.478662         251.891         154.681 
       0.484765         244.301         150.633 
       0.490885          241.02         146.769 
       0.497035         237.542         143.057 
       0.503198         231.819         139.484 
       0.509342         229.324         136.034 
       0.515458          226.31         132.687 
       0.521598         222.547         129.405 
       0.527764         219.133         126.203 
       0.533884         216.216         123.128 
           0.54         212.977         120.165 
       0.546137         211.658           117.3 
       0.552299         207.589         114.533 
       0.558452         204.871         111.876 
       0.564573         201.504          109.33 
       0.570708         197.957          106.86 
       0.576825         195.485         104.469 
       0.582926         192.657         102.148 
       0.589034         190.179         99.8858 
       0.595184         188.159         97.6738 
       0.601379         186.224         95.5149 
       0.607522         182.309         93.4429 
       0.613639          181.54         91.4459 
       0.619772          177.53         89.5061 
       0.625918         175.926         87.6215 
       0.632068         173.876         85.7918 
       0.638161         172.634         84.0315 
         0.6443         170.057         82.3085 
       0.650464          168.35         80.6278 
       0.656582         166.531         79.0057 
       0.662703         164.385         77.4272 
       0.668861         162.025         75.8825 
       0.675024         160.176         74.3787 
       0.681124         159.276         72.9312 
       0.687237         156.519         71.5202 
       0.693381         154.435          70.141 
       0.699536         153.337         68.7972 
       0.705665         153.267         67.4954 
       0.711789         149.828         66.2293 
       0.717957         149.312         64.9876 
        0.72409          147.24         63.7849 
       0.730186         144.972         62.6201 
       0.736317         144.259         61.4781 
       0.742472         143.244         60.3604 
       0.748622         141.926         59.2716 
        0.75476          140.64         58.2122 
       0.760888         138.695         57.1806 
       0.767043          137.91         56.1702 
       0.773185          136.45         55.1866 
       0.779291         134.577         54.2325 
       0.785407         133.842            53.3 
       0.791564         132.566         52.3838 
       0.797719          130.66         51.4899 
       0.803834         130.092         50.6229 
       0.809972         128.419         49.7729 
       0.816124         128.134         48.9409 
       0.822261         126.709         48.1304 
       0.828378         125.535         47.3408 
       0.834502         125.031         46.5686 
       0.840667         123.326         45.8088 
       0.846816         122.142         45.0682 
       0.852925         121.286          44.349 
       0.859047         119.857         43.6441 
       0.865192         119.269         42.9523 
       0.871341         118.139         42.2753 
       0.877463         116.979         41.6161 
       0.883569         116.205         40.9728 
       0.889708         115.393           40.34 
       0.895864         114.352          39.719 
       0.902008         113.505         39.1126 
       0.908149         112.864         38.5193 
       0.914301         111.653         37.9376 
       0.920448         110.923         37.3684 
       0.926574         110.176         36.8131 
       0.932687         109.775         36.2704 
       0.938823         108.134         35.7367 
       0.944975         107.302         35.2127 
       0.951105         106.689         34.7012 
       0.957225         105.412         34.2008 
       0.963368          104.88         33.7086 
       0.969511         104.498         33.2263 
       0.975621         103.993          32.756 
       0.981748          103.09         32.2938 
       0.987916         102.072         31.8376 
        0.99406         101.487          31.392 
        1.00019         100.667         30.9559 
        1.00632         100.109         30.5285 
        1.01246         99.3047         30.1087 
        1.01859         98.0474         29.6975 
        1.02471         98.2235         29.2946 
        1.03085         97.1681         28.8978 
        1.03698         96.5342         28.5093 
        1.04314         95.6248         28.1264 
        1.04929         95.1114         27.7514 
        1.05541         94.3864         27.3849 
        1.06154         93.9774         27.0241 
        1.06769         93.5125         26.6693 
        1.07382         93.0485         26.3222 
        1.07993         92.3773         25.9821 
        1.08607         91.6068         25.6466 
        1.09222         91.1645         25.3168 
        1.09836         90.4563         24.9932 
        1.10449         89.9269         24.6757 
        1.11063          89.325         24.3635 
        1.11677         88.8581         24.0568 
         1.1229         87.9865         23.7559 
        1.12903         87.1559           23.46 
        1.13518         87.4327          23.169 
        1.14131         86.7277          22.883 
        1.14745         85.7927         22.6021 
        1.15359          85.475         22.3259 
        1.15973         85.0291         22.0543 
        1.16584         84.3919         21.7884 
        1.17197           83.91         21.5266 
        1.17811         83.4295         21.2683 
        1.18424         82.7689          21.015 
        1.19038         82.2892         20.7651 
        1.19652         81.9786         20.5195 
        1.20267         81.2753         20.2778 
        1.20881         80.8745         20.0401 
        1.21495         80.2669         19.8066 
        1.22108         79.8645         19.5769 
         1.2272          79.212         19.3514 
        1.23334         78.8997          19.129 
        1.23949          78.462         18.9096 
        1.24562         78.0941         18.6942 
        1.25174         77.6304         18.4825 
        1.25789          77.237         18.2735 
        1.26402         76.8123         18.0681 
        1.27014         76.0279         17.8664 
        1.27628         75.8964         17.6673 
        1.28244         75.2278         17.4707 
        1.28858         74.9562         17.2775 
        1.29471         74.6239         17.0876 
        1.30084         74.1084         16.9008 
        1.30697         73.6405         16.7165 
        1.31312         73.2385         16.5348 
        1.31925         72.9954         16.3563 
        1.32537         72.6218         16.1806 
        1.33151         71.8964          16.007 
        1.33765         71.5978          15.836 
        1.34378         71.1634         15.6678 
        1.34992         70.8857          15.502 
        1.35606         70.4854         15.3383 
         1.3622         69.8789         15.1772 
        1.36833         69.7329         15.0189 
        1.37445         69.3226         14.8629 
        1.38059         68.8108         14.7086 
        1.38675         68.4622         14.5562 
        1.39288         68.0472         14.4066 
        1.39901         67.9255         14.2591 
        1.40515         67.5079         14.1134 
         1.4113         67.1001         13.9699 
        1.41742         66.9039         13.8288 
        1.42355         66.3305         13.6895 
         1.4297         66.0646         13.5516 
        1.43585         65.6042         13.4158 
        1.44198         65.3505         13.2823 
        1.44809         65.0355         13.1509 
        1.45423         64.7323         13.0208 
        1.46036         64.4416         12.8927 
        1.46649         64.0421         12.7663 
        1.47263         63.6377         12.6415 
        1.47877         63.4638         12.5185 
        1.48491         63.1909         12.3969 
        1.49104         62.7132         12.2772 
        1.49718         62.2631         12.1589 
        1.50333         62.0585         12.0421 
        1.50947         61.7271         11.9271 
         1.5156         61.4277         11.8137 
        1.52172         61.1792         11.7018 
        1.52787         61.0009         11.5911 
          1.534         60.6017         11.4821 
        1.54013          60.243         11.3745 
        1.54627         60.0163         11.2681 
        1.55241         59.5934         11.1631 
        1.55855         59.2498         11.0596 
        1.56467         58.8299         10.9577 
         1.5708         58.8309         10.8568 
        1.57695         58.5257          10.757 
        1.58308          58.135         10.6587 
        1.58922         58.0693         10.5616 
        1.59535         57.7946         10.4657 
         1.6015         57.2357         10.3709 
        1.60764         57.1121         10.2774 
        1.61376         56.7856         10.1852 
        1.61989         56.3966         10.0941 
        1.62604         56.2969         10.0039 
        1.63218         56.0935         9.91491 
        1.63831         55.7513         9.82719 
        1.64444         55.4595          9.7405 
        1.65059         55.0498         9.65465 
        1.65673         54.8896         9.56995 
        1.66285         54.5881         9.48649 
        1.66898         54.3295         9.40402 
        1.67512          54.012         9.32237 
        1.68127         53.6998         9.24162 
         1.6874         53.5869         9.16201 
        1.69353         53.2504         9.08339 
        1.69967         53.0124         9.00552 
        1.70581         52.9232         8.92859 
        1.71193         52.6203         8.85287 
        1.71806         52.1571         8.77786 
        1.72421          52.061         8.70358 
        1.73035         51.7424         8.63025 
        1.73649          51.354         8.55778 
        1.74262          51.322         8.48621 
        1.74876         51.1081         8.41541 
        1.75489          50.773         8.34557 
        1.76101         50.6012         8.27655 
        1.76715         50.2761         8.20821 
        1.77329         50.0633         8.14057 
        1.77943         49.8497         8.07367 
        1.78557         49.6739         8.00762 
        1.79171         49.3506          7.9423 
        1.79785         49.1489         7.87771 
        1.80399         48.9399         7.81384 
        1.81012          48.782         7.75078 
        1.81625         48.3024         7.68844 
        1.82239         48.2083         7.62671 
        1.82853         47.8355         7.56568 
        1.83466         47.7707         7.50538 
        1.84078          47.383          7.4458 
        1.84692         47.2188         7.38679 
        1.85306         47.0089         7.32834 
         1.8592         46.7418         7.27061 
        1.86533         46.5791         7.21355 
        1.87147         46.3995         7.15703 
        1.87761         46.2286          7.1011 
        1.88375         45.9652         7.04583 
        1.88988         45.9269         6.99122 
        1.89601         45.5351         6.93715 
        1.90215         45.3634         6.88362 
        1.90829         45.2544         6.83068 
        1.91442         44.9824         6.77829 
        1.92056         44.7534         6.72651 
         1.9267         44.4384         6.67521 
        1.93284         44.2887         6.62442 
        1.93897         44.1341         6.57426 
        1.94509         43.8418         6.52473 
        1.95123          43.757         6.47559 
        1.95737         43.5008         6.42692 
        1.96349         43.2874         6.37888 
        1.96964          43.154         6.33119 
        1.97578         42.9078         6.28397 
        1.98192         42.7239         6.23733 
        1.98805         42.5492         6.19116 
        1.99419         42.2503         6.14546 
        2.00033         42.1044          6.1002 
        2.00647         41.9287         6.05541 
         2.0126         41.7247         6.01115 
        2.01874         41.5637         5.96726 
        2.02488          41.438         5.92378 
        2.03101         41.1443         5.88081 
        2.03714         40.9742         5.83831 
        2.04328         40.7577         5.79618 
        2.04941         40.5628         5.75451 
        2.05554          40.343         5.71328 
        2.06167         40.2843          5.6724 
        2.06781         40.0494         5.63191 
        2.07396         39.8466         5.59176 
        2.08009          39.711         5.55208 
        2.08622         39.4689         5.51283 
        2.09237         39.2864         5.47388 
        2.09851         39.0964          5.4353 
        2.10464         38.9638         5.39717 
        2.11077         38.8206         5.35944 
        2.11691         38.6047           5.322 
        2.12305         38.3895         5.28491 
        2.12918         38.2915         5.24826 
        2.13531           38.06         5.21197 
        2.14145         37.9762         5.17593 
         2.1476         37.7326         5.14019 
        2.15372         37.5212         5.10497 
        2.15985         37.4159         5.07005 
        2.16599         37.3557         5.03536 
        2.17213         37.2209         5.00103 
        2.17827         36.8906         4.96702 
         2.1844         36.7381         4.93337 
        2.19054         36.5643         4.90002 
        2.19666         36.4367         4.86702 
         2.2028         36.2675          4.8343 
        2.20893         36.1589         4.80187 
        2.21508         35.9817          4.7697 
        2.22122         35.7688         4.73781 
        2.22736         35.6465         4.70628 
        2.23349         35.5142         4.67505 
        2.23962         35.2867         4.64409 
        2.24577          35.124         4.61338 
         2.2519         34.9727         4.58299 
        2.25802         34.8723         4.55293 
        2.26417         34.7078         4.52305 
        2.27031          34.611         4.49342 
        2.27644         34.3402         4.46414 
        2.28257         34.2507         4.43512 
        2.28872         34.0571         4.40631 
        2.29486         33.9845         4.37776 
        2.30099         33.8374         4.34952 
        2.30712          33.672         4.32152 
        2.31326         33.5701         4.29372 
         2.3194          33.394         4.26618 
        2.32553         33.2153         4.23893 
        2.33166         33.0714         4.21193 
         2.3378         32.9353         4.18513 
        2.34394         32.7245         4.15855 
        2.35007         32.6183         4.13225 
        2.35619         32.5619          4.1062 
        2.36233         32.4326         4.08032 
        2.36848         32.1847         4.05461 
        2.37462         32.1251         4.02917 
        2.38075         31.9512         4.00398 
        2.38689         31.8814         3.97899 
        2.39303         31.6838         3.95421 
        2.39916         31.4988         3.92967 
        2.40529         31.3033         3.90534 
        2.41143         31.2559          3.8812 
        2.41757         31.1534         3.85726 
         2.4237         30.9778         3.83356 
        2.42983         30.8777         3.81006 
        2.43598         30.6919          3.7867 
        2.44211         30.5791         3.76358 
        2.44823         30.4356          3.7407 
        2.45437         30.3618         3.71795 
        2.46052         30.1742         3.69537 
        2.46665          30.093         3.67302 
        2.47279         29.9666         3.65086 
        2.47892         29.7858         3.62887 
        2.48507         29.6713         3.60704 
         2.4912         29.5615         3.58543 
