# k  (h/Mpc)    Pcb(k)  (Mpc/h)^3    Pcb_linear(k)  (Mpc/h)^3
     0.00783031         4694.23         4747.24 
       0.013688         5761.22         5744.55 
       0.019231         5730.26         5721.99 
      0.0249154         5150.44         5203.71 
      0.0312784         4408.69         4422.18 
      0.0375637         3711.67         3699.47 
      0.0433917         3159.97         3176.61 
      0.0492413         2807.86         2806.38 
      0.0555754         2511.97         2541.46 
      0.0619321         2372.24         2355.93 
       0.067871         2181.71         2202.47 
      0.0738098         2015.28         2035.26 
      0.0800417         1807.25         1834.94 
      0.0862327         1611.99         1622.61 
      0.0921407         1432.11         1428.76 
      0.0982031         1256.75         1258.26 
       0.104506         1143.59         1122.61 
       0.110769         1048.03         1029.38 
       0.116806         979.681         969.735 
       0.122832         940.755         926.863 
       0.129052         887.527         886.457 
       0.135211         842.289         840.285 
       0.141259         796.103         785.265 
       0.147318         739.384         722.793 
       0.153489         671.133         657.754 
       0.159709         618.133         597.763 
       0.165845         578.306         548.908 
       0.171974         536.775         511.995 
       0.178125         511.268          485.51 
       0.184229         492.082         466.338 
        0.19034         464.783         450.147 
       0.196428         454.996         433.426 
       0.202534         439.907         413.915 
       0.208729         414.659         390.993 
       0.214876         388.512         366.403 
       0.220989         370.595         342.185 
       0.227147         346.367         320.017 
        0.23329         329.027         301.382 
       0.239377         318.056         286.634 
       0.245482         298.589         275.004 
       0.251667         294.192         265.317 
       0.257832         284.775         256.472 
       0.263955         274.708         247.464 
       0.270079          264.26         237.662 
        0.27624         258.123         227.013 
       0.282372         247.079         216.058 
        0.28843         236.423         205.486 
       0.294538         225.606         195.659 
       0.300721         221.134         186.906 
        0.30691         210.642         179.431 
       0.313033         205.053         173.093 
       0.319153         196.336         167.476 
       0.325316         192.449          162.14 
        0.33145         185.659         156.856 
       0.337538         182.242         151.464 
       0.343633         175.779         145.932 
       0.349808         170.123         140.304 
       0.355968         166.162         134.856 
       0.362074         160.976         129.785 
       0.368217         156.285         125.116 
       0.374374         151.465         120.899 
       0.380519         148.172         117.079 
       0.386598         144.231         113.591 
       0.392688         141.736         110.265 
        0.39888         137.941         106.955 
       0.405048         134.614         103.688 
       0.411186         131.512         100.448 
       0.417313         128.025         97.2622 
       0.423458         125.082          94.168 
       0.429607         121.906         91.2147 
       0.435692         117.852         88.4652 
       0.441815         116.781         85.8839 
       0.447964         114.732         83.4546 
       0.454126         109.672         81.1534 
       0.460267         108.356         78.9611 
       0.466387         106.284         76.8435 
        0.47254         104.294         74.7582 
       0.478662         102.945         72.7275 
       0.484765         99.9075         70.7534 
       0.490885          98.051         68.8323 
       0.497035         96.8017         66.9727 
       0.503198          94.083         65.1935 
       0.509342         92.0532         63.5051 
       0.515458         90.6234         61.9013 
       0.521598         89.2992         60.3584 
       0.527764         87.8283         58.8677 
       0.533884         86.3898         57.4373 
           0.54         84.6328         56.0483 
       0.546137         83.7509         54.6892 
       0.552299         82.4407         53.3613 
       0.558452         80.3208         52.0761 
       0.564573         78.8821         50.8403 
       0.570708         77.8745         49.6453 
       0.576825         76.5973         48.4961 
       0.582926         75.0251         47.3909 
       0.589034         73.5539         46.3235 
       0.595184         72.6471         45.2851 
       0.601379         71.6638         44.2724 
       0.607522         69.9322         43.2969 
       0.613639         69.7171         42.3517 
       0.619772         68.0655         41.4298 
       0.625918         67.4734         40.5321 
       0.632068           66.58         39.6609 
       0.638161         65.6174         38.8241 
         0.6443          64.631         38.0071 
       0.650464         63.7175         37.2118 
       0.656582         62.9987         36.4457 
       0.662703         61.7455         35.7015 
       0.668861         60.9968          34.974 
       0.675024         60.2103         34.2664 
       0.681124         59.2743         33.5855 
       0.687237         58.2451         32.9216 
       0.693381         57.7562         32.2725 
       0.699536         56.7378         31.6396 
       0.705665         56.9682         31.0264 
       0.711789         55.4187         30.4299 
       0.717957         54.9138         29.8452 
        0.72409         54.1817         29.2794 
       0.730186         53.3013         28.7319 
       0.736317         53.0806         28.1957 
       0.742472         52.2654         27.6715 
       0.748622         51.7744         27.1614 
        0.75476         51.1441         26.6653 
       0.760888         50.3568         26.1825 
       0.767043         49.8272         25.7097 
       0.773185         49.1702         25.2496 
       0.779291         48.9338         24.8034 
       0.785407         48.4375         24.3674 
       0.791564         47.6994         23.9392 
       0.797719         46.8773         23.5215 
       0.803834           46.76         23.1165 
       0.809972         46.0164         22.7196 
       0.816124         45.4061         22.3313 
       0.822261         45.0717         21.9532 
       0.828378          44.766         21.5851 
       0.834502         44.2145         21.2251 
       0.840667         43.7992         20.8711 
       0.846816         43.1563         20.5263 
       0.852925         42.7962         20.1914 
       0.859047         42.2418         19.8634 
       0.865192         41.9371         19.5416 
       0.871341         41.7696         19.2268 
       0.877463         40.9077         18.9204 
       0.883569         40.6112         18.6214 
       0.889708         40.3402         18.3275 
       0.895864         39.9477         18.0392 
       0.902008         39.5927         17.7577 
       0.908149         39.2417         17.4824 
       0.914301         39.0415         17.2125 
       0.920448         38.4749         16.9486 
       0.926574         38.1602         16.6912 
       0.932687         37.8203         16.4397 
       0.938823         37.2673         16.1926 
       0.944975         37.1477         15.9499 
       0.951105         36.7776         15.7132 
       0.957225         36.3235         15.4817 
       0.963368         36.2779          15.254 
       0.969511         35.9326          15.031 
       0.975621         35.6281         14.8137 
       0.981748         35.1614         14.6001 
       0.987916         34.9875         14.3894 
        0.99406         34.7069         14.1837 
        1.00019         34.2836         13.9825 
        1.00632         34.0983         13.7853 
        1.01246         33.8887         13.5917 
        1.01859         33.3941         13.4022 
        1.02471         33.3993         13.2165 
        1.03085         33.0721         13.0337 
        1.03698         32.6259         12.8547 
        1.04314         32.3888         12.6784 
        1.04929         32.1729         12.5058 
        1.05541         31.8294         12.3371 
        1.06154         31.7474         12.1712 
        1.06769         31.4814          12.008 
        1.07382          31.225         11.8484 
        1.07993         31.1006         11.6921 
        1.08607          30.691         11.5379 
        1.09222         30.5947         11.3864 
        1.09836         30.2912         11.2378 
        1.10449         30.0865         11.0921 
        1.11063         29.7078         10.9487 
        1.11677         29.6027          10.808 
         1.1229         29.4823           10.67 
        1.12903         29.0797         10.5343 
        1.13518         28.9668         10.4008 
        1.14131         28.8736         10.2697 
        1.14745         28.5567          10.141 
        1.15359         28.4894         10.0145 
        1.15973         28.1483         9.89005 
        1.16584         27.8919         9.76831 
        1.17197         27.9072         9.64845 
        1.17811         27.5506         9.53025 
        1.18424         27.3245         9.41437 
        1.19038         27.2894          9.3001 
        1.19652         27.1187         9.18777 
        1.20267         26.9208         9.07731 
        1.20881         26.6934         8.96869 
        1.21495         26.5267         8.86203 
        1.22108         26.3561         8.75712 
         1.2272         26.0732         8.65417 
        1.23334              26         8.55264 
        1.23949         25.8283         8.45251 
        1.24562         25.6875         8.35426 
        1.25174         25.5585         8.25773 
        1.25789         25.3511         8.16244 
        1.26402         25.2307         8.06882 
        1.27014         24.9609         7.97691 
        1.27628         24.8349         7.88615 
        1.28244         24.7269         7.79664 
        1.28858         24.6238         7.70864 
        1.29471         24.4477          7.6222 
        1.30084         24.2888         7.53716 
        1.30697         24.1188          7.4533 
        1.31312         23.8994         7.37059 
        1.31925         23.8102         7.28941 
        1.32537         23.7229         7.20953 
        1.33151         23.5262         7.13056 
        1.33765         23.4701         7.05283 
        1.34378         23.3275         6.97641 
        1.34992          23.038         6.90108 
        1.35606         22.9797          6.8267 
         1.3622         22.8434         6.75354 
        1.36833          22.697         6.68164 
        1.37445         22.6886         6.61082 
        1.38059         22.4993         6.54082 
        1.38675         22.2595         6.47166 
        1.39288          22.242         6.40378 
        1.39901         22.0526          6.3369 
        1.40515         21.9776         6.27083 
         1.4113         21.8403         6.20573 
        1.41742         21.6356         6.14181 
        1.42355         21.6162         6.07867 
         1.4297         21.4837         6.01623 
        1.43585         21.4291         5.95469 
        1.44198         21.2166         5.89425 
        1.44809         21.1229         5.83476 
        1.45423         21.0373         5.77588 
        1.46036         20.9636         5.71792 
        1.46649         20.8168         5.66074 
        1.47263         20.6767         5.60429 
        1.47877          20.592         5.54864 
        1.48491          20.495         5.49366 
        1.49104         20.4393         5.43954 
        1.49718         20.2426         5.38612 
        1.50333         20.1997         5.33332 
        1.50947         20.1079         5.28135 
         1.5156         19.9386         5.23014 
        1.52172         19.8155         5.17962 
        1.52787         19.8116         5.12966 
          1.534         19.6424         5.08042 
        1.54013         19.4879         5.03189 
        1.54627         19.4456          4.9839 
        1.55241         19.3285         4.93653 
        1.55855         19.2169         4.88984 
        1.56467         19.1448         4.84388 
         1.5708         19.0898         4.79839 
        1.57695         18.9022         4.75341 
        1.58308         18.9285         4.70912 
        1.58922         18.7871         4.66536 
        1.59535         18.6742         4.62217 
         1.6015         18.5829         4.57946 
        1.60764         18.5404         4.53732 
        1.61376           18.41         4.49582 
        1.61989         18.2675         4.45481 
        1.62604         18.2653         4.41422 
        1.63218         18.1373         4.37416 
        1.63831         18.1032          4.3347 
        1.64444         17.9416          4.2957 
        1.65059         17.8663         4.25709 
        1.65673         17.8103           4.219 
        1.66285         17.7007         4.18148 
        1.66898         17.6612         4.14441 
        1.67512         17.5878         4.10771 
        1.68127         17.4741         4.07143 
         1.6874         17.3815         4.03567 
        1.69353         17.3265         4.00036 
        1.69967         17.2071         3.96538 
        1.70581         17.1518         3.93084 
        1.71193          17.059         3.89685 
        1.71806         16.9851         3.86318 
        1.72421         16.9046         3.82985 
        1.73035         16.8352         3.79694 
        1.73649         16.7616         3.76443 
        1.74262         16.7308         3.73233 
        1.74876         16.6319         3.70058 
        1.75489         16.5546         3.66927 
        1.76101         16.4717         3.63833 
        1.76715         16.4343         3.60771 
        1.77329         16.3365          3.5774 
        1.77943         16.2456         3.54742 
        1.78557         16.2065         3.51783 
        1.79171         16.1511         3.48858 
        1.79785         16.0198         3.45965 
        1.80399          15.965         3.43106 
        1.81012         15.9481         3.40283 
        1.81625         15.8401         3.37493 
        1.82239         15.8187          3.3473 
        1.82853         15.6776         3.31999 
        1.83466         15.6026         3.29302 
        1.84078         15.5136         3.26637 
        1.84692         15.5181         3.23997 
        1.85306         15.4226         3.21384 
         1.8592         15.3629         3.18803 
        1.86533         15.3144         3.16252 
        1.87147          15.236         3.13726 
        1.87761          15.206         3.11226 
        1.88375         15.0888         3.08757 
        1.88988         15.0588         3.06317 
        1.89601         14.9797         3.03902 
        1.90215         14.9112         3.01512 
        1.90829         14.8741         2.99148 
        1.91442         14.8099         2.96809 
        1.92056          14.749         2.94498 
         1.9267         14.6886         2.92208 
        1.93284         14.6031         2.89942 
        1.93897         14.5454         2.87704 
        1.94509         14.4897         2.85495 
        1.95123         14.4272         2.83303 
        1.95737         14.3851         2.81132 
        1.96349         14.3202          2.7899 
        1.96964         14.2538         2.76864 
        1.97578         14.2092          2.7476 
        1.98192         14.1228         2.72681 
        1.98805         14.0982         2.70624 
        1.99419         14.0144         2.68587 
        2.00033         13.9601         2.66571 
        2.00647         13.9186         2.64576 
         2.0126         13.8431         2.62605 
        2.01874         13.7782         2.60651 
        2.02488         13.7256         2.58715 
        2.03101         13.7131         2.56802 
        2.03714         13.6576         2.54911 
        2.04328         13.5711         2.53036 
        2.04941         13.4973         2.51182 
        2.05554         13.5084         2.49348 
        2.06167         13.4253         2.47529 
        2.06781         13.3921         2.45729 
        2.07396         13.3475         2.43944 
        2.08009         13.2841         2.42179 
        2.08622         13.1974         2.40434 
        2.09237         13.1707         2.38703 
        2.09851         13.1264         2.36989 
        2.10464         13.0626         2.35294 
        2.11077         13.0004         2.33618 
        2.11691         12.9702         2.31955 
        2.12305         12.9156         2.30307 
        2.12918         12.8511          2.2868 
        2.13531         12.8304         2.27068 
        2.14145         12.7484         2.25468 
         2.1476         12.7374         2.23881 
        2.15372          12.683         2.22318 
        2.15985         12.6077         2.20768 
        2.16599         12.5825         2.19229 
        2.17213         12.5406         2.17706 
        2.17827         12.5016         2.16197 
         2.1844         12.4451         2.14704 
        2.19054         12.3799         2.13225 
        2.19666         12.3668         2.11762 
         2.2028         12.3178         2.10311 
        2.20893         12.2658         2.08874 
        2.21508         12.1998         2.07448 
        2.22122         12.1529         2.06034 
        2.22736         12.1168         2.04637 
        2.23349         12.0558         2.03254 
        2.23962         12.0185         2.01882 
        2.24577         11.9652         2.00522 
         2.2519         11.9605         1.99176 
        2.25802          11.905         1.97844 
        2.26417         11.8701         1.96522 
        2.27031         11.8052          1.9521 
        2.27644         11.7644         1.93913 
        2.28257         11.7225         1.92629 
        2.28872          11.683         1.91354 
        2.29486         11.6557          1.9009 
        2.30099         11.6224         1.88841 
        2.30712          11.569         1.87602 
        2.31326         11.5341         1.86373 
         2.3194         11.4787         1.85155 
        2.32553         11.4415          1.8395 
        2.33166         11.3648         1.82756 
         2.3378         11.3536         1.81571 
        2.34394         11.3152         1.80396 
        2.35007         11.2572         1.79233 
        2.35619         11.2115         1.78082 
        2.36233         11.1789         1.76939 
        2.36848          11.169         1.75803 
        2.37462         11.1388         1.74679 
        2.38075         11.0552         1.73567 
        2.38689         11.0306         1.72463 
        2.39303          10.997         1.71369 
        2.39916         10.9669         1.70285 
        2.40529         10.9239         1.69211 
        2.41143         10.8881         1.68145 
        2.41757         10.8579         1.67089 
         2.4237         10.8096         1.66043 
        2.42983         10.7681         1.65006 
        2.43598         10.7498         1.63975 
        2.44211         10.6912         1.62955 
        2.44823         10.6492         1.61946 
        2.45437         10.6419         1.60942 
        2.46052         10.5854         1.59947 
        2.46665         10.5364         1.58961 
        2.47279         10.4983         1.57984 
        2.47892         10.4793         1.57014 
        2.48507         10.4527         1.56052 
         2.4912         10.4151           1.551 
