# k  (h/Mpc)    P(k)  (Mpc/h)^3    P_linear(k)  (Mpc/h)^3
     0.00783031         3947.09         4001.61 
       0.013688         4840.51         4837.07 
       0.019231         4817.04         4815.71 
      0.0249154         4334.07         4378.27 
      0.0312784         3708.66            3720 
      0.0375637          3120.9         3111.67 
      0.0433917         2659.06         2671.69 
      0.0492413         2361.63         2360.17 
      0.0555754         2114.93         2137.27 
      0.0619321          1994.4         1981.19 
       0.067871         1836.56         1852.09 
      0.0738098         1696.41         1711.45 
      0.0800417         1521.98         1542.97 
      0.0862327         1356.65         1364.41 
      0.0921407         1203.97         1201.39 
      0.0982031         1056.65         1058.01 
       0.104506         959.898         943.946 
       0.110769         879.642         865.542 
       0.116806          822.29         815.389 
       0.122832         789.701         779.337 
       0.129052         745.882         745.358 
       0.135211         707.663         706.533 
       0.141259         668.214          660.27 
       0.147318         620.213         607.739 
       0.153489         562.957         553.051 
       0.159709         517.601         502.608 
       0.165845         483.558         461.529 
       0.171974          448.46          430.49 
       0.178125         427.141         408.222 
       0.184229         411.155         392.101 
        0.19034         388.895         378.487 
       0.196428          380.24         364.428 
       0.202534         367.511         348.024 
       0.208729         346.238         328.749 
       0.214876         324.143         308.073 
       0.220989         308.792          287.71 
       0.227147         288.182         269.071 
        0.23329         273.496         253.402 
       0.239377         263.944         241.001 
       0.245482         248.253         231.223 
       0.251667         244.243         223.079 
       0.257832         236.414         215.642 
       0.263955         228.026         208.068 
       0.270079         219.355         199.826 
        0.27624         213.857         190.872 
       0.282372         204.642         181.661 
        0.28843          195.44         172.772 
       0.294538         186.583         164.509 
       0.300721         182.445         157.149 
        0.30691         173.809         150.865 
       0.313033         168.988         145.536 
       0.319153         161.638         140.813 
       0.325316         158.692         136.327 
        0.33145         152.997         131.885 
       0.337538         149.938          127.35 
       0.343633         144.565         122.699 
       0.349808         139.945         117.967 
       0.355968         136.381         113.386 
       0.362074         131.956         109.123 
       0.368217         128.043         105.196 
       0.374374         124.157         101.651 
       0.380519         121.286         98.4393 
       0.386598         118.041         95.5062 
       0.392688         115.873         92.7103 
        0.39888         112.715         89.9274 
       0.405048         109.987         87.1805 
       0.411186         107.426         84.4563 
       0.417313         104.361         81.7773 
       0.423458         101.866         79.1757 
       0.429607         99.2291         76.6926 
       0.435692         95.8951         74.3808 
       0.441815         94.9008         72.2106 
       0.447964          93.249         70.1679 
       0.454126          89.169         68.2332 
       0.460267          88.028         66.3898 
       0.466387         86.1204         64.6095 
        0.47254          84.606          62.856 
       0.478662         83.3932         61.1487 
       0.484765         80.9226         59.4888 
       0.490885         79.3257         57.8736 
       0.497035         78.3137         56.3101 
       0.503198         76.1245          54.814 
       0.509342         74.3386         53.3946 
       0.515458         73.1203          52.046 
       0.521598         72.0301         50.7488 
       0.527764         70.7694         49.4954 
       0.533884         69.6018         48.2927 
           0.54         68.1352          47.125 
       0.546137         67.3505         45.9821 
       0.552299         66.3112         44.8657 
       0.558452         64.4788         43.7851 
       0.564573         63.3459         42.7461 
       0.570708         62.5361         41.7413 
       0.576825          61.386          40.775 
       0.582926         60.1202         39.8457 
       0.589034         58.8417         38.9483 
       0.595184         58.1184         38.0753 
       0.601379         57.2716         37.2237 
       0.607522         55.9217         36.4037 
       0.613639         55.6909         35.6089 
       0.619772         54.3297         34.8337 
       0.625918         53.9282          34.079 
       0.632068         53.1572         33.3464 
       0.638161         52.3054         32.6429 
         0.6443         51.4509          31.956 
       0.650464         50.6753         31.2873 
       0.656582         50.1941         30.6432 
       0.662703         49.1826         30.0175 
       0.668861         48.5158         29.4058 
       0.675024         47.8314         28.8108 
       0.681124         47.0312         28.2383 
       0.687237         46.2309         27.6802 
       0.693381         45.8806         27.1344 
       0.699536         44.9409         26.6023 
       0.705665         45.0897         26.0867 
       0.711789         43.8942         25.5852 
       0.717957         43.4391         25.0936 
        0.72409         42.8639         24.6178 
       0.730186         42.1847         24.1574 
       0.736317         41.9355         23.7067 
       0.742472         41.2341         23.2659 
       0.748622         40.8734          22.837 
        0.75476         40.3227         22.4199 
       0.760888         39.6907          22.014 
       0.767043         39.2628         21.6165 
       0.773185         38.7026         21.2296 
       0.779291         38.5396         20.8545 
       0.785407          38.134         20.4879 
       0.791564         37.4984         20.1278 
       0.797719         36.7837         19.7766 
       0.803834         36.7243         19.4361 
       0.809972         36.2172         19.1024 
       0.816124         35.6012         18.7759 
       0.822261         35.3406          18.458 
       0.828378         35.0915         18.1485 
       0.834502         34.6699         17.8459 
       0.840667         34.3118         17.5482 
       0.846816         33.7756         17.2583 
       0.852925         33.4877         16.9767 
       0.859047         33.0764         16.7009 
       0.865192         32.7953         16.4304 
       0.871341         32.6564         16.1657 
       0.877463         31.9846          15.908 
       0.883569         31.7185         15.6567 
       0.889708         31.4438         15.4096 
       0.895864          31.148         15.1671 
       0.902008         30.8868         14.9305 
       0.908149         30.5856          14.699 
       0.914301         30.4728         14.4721 
       0.920448         29.9409         14.2502 
       0.926574          29.716         14.0338 
       0.932687         29.4175         13.8224 
       0.938823         29.0078         13.6145 
       0.944975         28.8648         13.4105 
       0.951105         28.5871         13.2115 
       0.957225         28.2455         13.0168 
       0.963368          28.166         12.8254 
       0.969511         27.8936         12.6379 
       0.975621          27.665         12.4552 
       0.981748          27.273         12.2756 
       0.987916         27.1485         12.0985 
        0.99406         26.8811         11.9255 
        1.00019          26.559         11.7563 
        1.00632         26.4127         11.5906 
        1.01246         26.2553         11.4278 
        1.01859         25.8542         11.2684 
        1.02471         25.8319         11.1123 
        1.03085         25.5851         10.9586 
        1.03698         25.1975         10.8081 
        1.04314         25.0404         10.6599 
        1.04929         24.8286         10.5147 
        1.05541         24.5728         10.3729 
        1.06154         24.4774         10.2334 
        1.06769         24.3046         10.0962 
        1.07382         24.0623         9.96202 
        1.07993          23.961         9.83058 
        1.08607         23.6414         9.70097 
        1.09222         23.5535         9.57359 
        1.09836         23.2878         9.44865 
        1.10449         23.1498         9.32609 
        1.11063         22.8632         9.20558 
        1.11677         22.7965         9.08724 
         1.1229         22.6856          8.9712 
        1.12903         22.3813         8.85709 
        1.13518         22.2134         8.74488 
        1.14131          22.162         8.63468 
        1.14745         21.9566         8.52644 
        1.15359         21.8661         8.42005 
        1.15973         21.6172         8.31544 
        1.16584          21.379         8.21308 
        1.17197         21.4053         8.11231 
        1.17811         21.1147         8.01292 
        1.18424         20.9505          7.9155 
        1.19038         20.9053         7.81942 
        1.19652         20.7555         7.72497 
        1.20267         20.5978          7.6321 
        1.20881         20.4445         7.54077 
        1.21495         20.3204         7.45109 
        1.22108         20.1629         7.36289 
         1.2272         19.9616         7.27633 
        1.23334         19.8868         7.19096 
        1.23949         19.7102         7.10677 
        1.24562         19.6379         7.02417 
        1.25174         19.5215         6.94301 
        1.25789         19.3651         6.86288 
        1.26402         19.2869         6.78417 
        1.27014          19.077         6.70689 
        1.27628         18.9338         6.63059 
        1.28244          18.877         6.55533 
        1.28858         18.7989         6.48134 
        1.29471         18.6328         6.40865 
        1.30084         18.4954         6.33716 
        1.30697         18.3824         6.26665 
        1.31312         18.2118         6.19711 
        1.31925          18.116         6.12885 
        1.32537         18.0669         6.06169 
        1.33151         17.9041          5.9953 
        1.33765          17.841         5.92994 
        1.34378         17.7384         5.86569 
        1.34992         17.5236         5.80235 
        1.35606         17.4984         5.73981 
         1.3622          17.387          5.6783 
        1.36833         17.2523         5.61785 
        1.37445         17.2249         5.55831 
        1.38059         17.0866         5.49944 
        1.38675         16.9008          5.4413 
        1.39288         16.8849         5.38422 
        1.39901         16.7446         5.32799 
        1.40515          16.683         5.27245 
         1.4113         16.5585         5.21771 
        1.41742         16.4268         5.16396 
        1.42355         16.3867         5.11087 
         1.4297         16.3033         5.05837 
        1.43585          16.247         5.00663 
        1.44198         16.0898         4.95582 
        1.44809         16.0155          4.9058 
        1.45423         15.9349          4.8563 
        1.46036         15.8632         4.80756 
        1.46649         15.7754         4.75948 
        1.47263         15.6493         4.71202 
        1.47877         15.5756         4.66523 
        1.48491         15.5152         4.61901 
        1.49104         15.4621         4.57351 
        1.49718         15.3236         4.52858 
        1.50333         15.2766          4.4842 
        1.50947         15.2001          4.4405 
         1.5156         15.0671         4.39744 
        1.52172         14.9954         4.35496 
        1.52787         14.9529         4.31296 
          1.534         14.8387         4.27156 
        1.54013         14.7274         4.23075 
        1.54627         14.6727          4.1904 
        1.55241         14.5997         4.15057 
        1.55855          14.516         4.11132 
        1.56467         14.4487         4.07268 
         1.5708         14.4233         4.03443 
        1.57695         14.2884         3.99662 
        1.58308         14.2662         3.95937 
        1.58922         14.1791         3.92258 
        1.59535         14.0991         3.88626 
         1.6015         14.0117         3.85036 
        1.60764         13.9608         3.81493 
        1.61376         13.8995         3.78004 
        1.61989         13.7802         3.74556 
        1.62604         13.7801         3.71143 
        1.63218         13.6819         3.67775 
        1.63831         13.6458         3.64456 
        1.64444         13.5189         3.61177 
        1.65059         13.4638         3.57931 
        1.65673         13.4394         3.54729 
        1.66285          13.319         3.51574 
        1.66898         13.3064         3.48457 
        1.67512         13.2383         3.45372 
        1.68127         13.1649         3.42321 
         1.6874         13.0893         3.39314 
        1.69353         13.0281         3.36345 
        1.69967         12.9653         3.33405 
        1.70581         12.9156         3.30501 
        1.71193         12.8349         3.27642 
        1.71806          12.793         3.24812 
        1.72421         12.7142         3.22009 
        1.73035         12.6696         3.19243 
        1.73649         12.6146         3.16509 
        1.74262         12.5895          3.1381 
        1.74876         12.5156         3.11141 
        1.75489         12.4573         3.08508 
        1.76101         12.3714         3.05907 
        1.76715         12.3679         3.03332 
        1.77329         12.2659         3.00783 
        1.77943         12.2097         2.98263 
        1.78557         12.1818         2.95775 
        1.79171         12.1429         2.93316 
        1.79785         12.0405         2.90884 
        1.80399         12.0048          2.8848 
        1.81012          11.976         2.86106 
        1.81625         11.8956          2.8376 
        1.82239         11.8609         2.81437 
        1.82853         11.7715         2.79141 
        1.83466         11.7285         2.76873 
        1.84078          11.652         2.74633 
        1.84692         11.6475         2.72413 
        1.85306         11.5826         2.70216 
         1.8592         11.5314         2.68046 
        1.86533         11.5011         2.65901 
        1.87147         11.4419         2.63777 
        1.87761         11.4085         2.61675 
        1.88375         11.3089         2.59599 
        1.88988         11.3069         2.57548 
        1.89601         11.2517         2.55518 
        1.90215         11.1907         2.53507 
        1.90829         11.1515          2.5152 
        1.91442         11.1045         2.49554 
        1.92056         11.0639          2.4761 
         1.9267          11.017         2.45685 
        1.93284         10.9526          2.4378 
        1.93897         10.9011         2.41898 
        1.94509         10.8601         2.40041 
        1.95123         10.8291         2.38198 
        1.95737         10.7903         2.36373 
        1.96349         10.7405         2.34572 
        1.96964          10.684         2.32784 
        1.97578         10.6488         2.31015 
        1.98192         10.5893         2.29267 
        1.98805         10.5689         2.27537 
        1.99419         10.5094         2.25825 
        2.00033         10.4758          2.2413 
        2.00647         10.4396         2.22453 
         2.0126         10.3756         2.20795 
        2.01874         10.3367         2.19152 
        2.02488           10.28         2.17525 
        2.03101         10.2781         2.15916 
        2.03714         10.2287         2.14326 
        2.04328         10.1812          2.1275 
        2.04941         10.1188         2.11191 
        2.05554         10.1181         2.09649 
        2.06167         10.0537          2.0812 
        2.06781          10.037         2.06606 
        2.07396         10.0031         2.05105 
        2.08009         9.95791         2.03622 
        2.08622         9.88289         2.02155 
        2.09237         9.88156         2.00699 
        2.09851         9.84079         1.99258 
        2.10464         9.78839         1.97833 
        2.11077         9.74403         1.96423 
        2.11691         9.70853         1.95025 
        2.12305         9.68155          1.9364 
        2.12918         9.64085         1.92271 
        2.13531         9.61356         1.90916 
        2.14145         9.56721         1.89571 
         2.1476         9.54572         1.88237 
        2.15372         9.50315         1.86923 
        2.15985         9.46305         1.85619 
        2.16599         9.43431         1.84325 
        2.17213         9.40395         1.83044 
        2.17827         9.36716         1.81776 
         2.1844         9.32827         1.80521 
        2.19054         9.27657         1.79277 
        2.19666         9.26389         1.78047 
         2.2028         9.22275         1.76827 
        2.20893         9.20608         1.75618 
        2.21508         9.14658         1.74419 
        2.22122         9.11008         1.73231 
        2.22736         9.08643         1.72057 
        2.23349         9.03371         1.70893 
        2.23962          9.0243          1.6974 
        2.24577         8.97653         1.68596 
         2.2519          8.9616         1.67465 
        2.25802         8.91925         1.66345 
        2.26417          8.8927         1.65233 
        2.27031         8.84737          1.6413 
        2.27644         8.81813          1.6304 
        2.28257         8.79506          1.6196 
        2.28872         8.75618         1.60888 
        2.29486         8.73233         1.59826 
        2.30099         8.72217         1.58775 
        2.30712         8.67613         1.57734 
        2.31326         8.64212           1.567 
         2.3194         8.59971         1.55676 
        2.32553         8.58044         1.54663 
        2.33166         8.53185         1.53659 
         2.3378         8.51772         1.52663 
        2.34394         8.48894         1.51675 
        2.35007         8.44853         1.50697 
        2.35619         8.41529          1.4973 
        2.36233         8.38194         1.48768 
        2.36848         8.37564         1.47813 
        2.37462         8.34374         1.46868 
        2.38075         8.29193         1.45933 
        2.38689         8.27199         1.45005 
        2.39303          8.2447         1.44085 
        2.39916         8.22581         1.43174 
        2.40529         8.20035         1.42271 
        2.41143         8.16684         1.41375 
        2.41757         8.14915         1.40486 
         2.4237         8.11301         1.39607 
        2.42983         8.08109         1.38735 
        2.43598         8.07411         1.37869 
        2.44211         8.02607         1.37011 
        2.44823         8.00111         1.36162 
        2.45437         7.98757         1.35318 
        2.46052         7.93894         1.34481 
        2.46665         7.91749         1.33653 
        2.47279         7.88852         1.32831 
        2.47892         7.86232         1.32016 
        2.48507         7.83664         1.31207 
         2.4912         7.81553         1.30406 
