# k  (h/Mpc)    Pcb(k)  (Mpc/h)^3    Pcb_linear(k)  (Mpc/h)^3
     0.00783031          656.44         661.174 
       0.013688         832.006         839.893 
       0.019231         866.422         869.769 
      0.0249154         822.116         822.255 
      0.0312784         730.084         730.654 
      0.0375637         637.702         638.829 
      0.0433917          570.14         569.152 
      0.0492413         516.809         517.262 
      0.0555754         477.803         476.767 
      0.0619321         441.459         444.262 
       0.067871         413.904         414.517 
      0.0738098         381.709          381.97 
      0.0800417         345.508         344.958 
      0.0862327         308.144         308.188 
      0.0921407         276.427         276.446 
      0.0982031         250.475         249.665 
       0.104506         228.242         228.747 
       0.110769         213.536         213.878 
       0.116806         203.775         203.063 
       0.122832         193.179         193.477 
       0.129052         183.341         183.048 
       0.135211         172.188         171.381 
       0.141259         159.198         158.904 
       0.147318         146.094         146.345 
       0.153489         134.992         134.615 
       0.159709         125.525         124.701 
       0.165845         116.841         117.042 
       0.171974         112.176         111.206 
       0.178125         107.386         106.529 
       0.184229         102.632         102.329 
        0.19034         98.8998         97.9823 
       0.196428         94.0629         93.2301 
       0.202534         88.2277         88.0865 
       0.208729         83.6436         82.7744 
       0.214876         79.0958         77.7823 
       0.220989         73.9356         73.3881 
       0.227147         71.0709         69.6694 
        0.23329         68.0945         66.6217 
       0.239377         65.6427         64.0809 
       0.245482         63.1457         61.7817 
       0.251667         60.5336         59.4955 
       0.257832         58.6912         57.1331 
       0.263955         55.8496         54.6818 
       0.270079         53.4022         52.1891 
        0.27624         50.7528         49.7532 
       0.282372         48.6188         47.5027 
        0.28843         47.1386         45.5148 
       0.294538          45.245         43.7549 
       0.300721         43.3871         42.1848 
        0.30691          42.314         40.7553 
       0.313033         40.8157         39.4092 
       0.319153         39.8747         38.0779 
       0.325316         38.0199         36.7283 
        0.33145         36.6611          35.383 
       0.337538         35.4617          34.073 
       0.343633         34.3434         32.8184 
       0.349808         33.0739          31.634 
       0.355968         31.9563         30.5478 
       0.362074         31.1778         29.5629 
       0.368217         30.1969         28.6444 
       0.374374         29.5355         27.7745 
       0.380519         28.4101         26.9364 
       0.386598         27.5208         26.1224 
       0.392688         26.6828         25.3203 
        0.39888          26.026         24.5212 
       0.405048         25.3045         23.7506 
       0.411186         24.5433         23.0188 
       0.417313          23.848          22.328 
       0.423458         23.0826         21.6758 
       0.429607         22.6429         21.0614 
       0.435692         22.1504         20.4837 
       0.441815         21.3925         19.9253 
       0.447964         20.7518         19.3828 
       0.454126         20.3567         18.8538 
       0.460267         20.0168         18.3397 
       0.466387         19.4181         17.8424 
        0.47254         19.0231         17.3601 
       0.478662         18.4793         16.8992 
       0.484765         18.0494         16.4592 
       0.490885         17.5399         16.0377 
       0.497035         17.1114         15.6324 
       0.503198         16.7764         15.2419 
       0.509342         16.3121         14.8658 
       0.515458          16.044         14.5029 
       0.521598          15.681         14.1496 
       0.527764         15.4176         13.8051 
       0.533884         14.9518         13.4734 
           0.54         14.6762         13.1526 
       0.546137         14.2585          12.842 
       0.552299         13.9975         12.5414 
       0.558452         13.6983         12.2521 
       0.564573         13.4721          11.974 
       0.570708         13.1733         11.7042 
       0.576825         12.9176         11.4436 
       0.582926         12.6419         11.1914 
       0.589034         12.4144         10.9464 
       0.595184          12.229         10.7068 
       0.601379         11.9094         10.4724 
       0.607522         11.6859         10.2469 
       0.613639         11.4237         10.0292 
       0.619772          11.256          9.8176 
       0.625918         11.0245         9.61214 
       0.632068         10.8674         9.41277 
       0.638161         10.6512         9.22099 
         0.6443         10.4453          9.0332 
       0.650464         10.2099         8.84987 
       0.656582         10.1151         8.67284 
       0.662703         9.95026         8.50057 
       0.668861         9.68676         8.33204 
       0.675024         9.53476         8.16801 
       0.681124         9.49748         8.01018 
       0.687237          9.2752         7.85633 
       0.693381         9.04082         7.70589 
       0.699536         8.97808          7.5592 
       0.705665         8.81337         7.41701 
       0.711789          8.6254         7.27864 
       0.717957         8.46337         7.14286 
        0.72409          8.3647         7.01132 
       0.730186         8.28716         6.88392 
       0.736317          8.1049         6.75902 
       0.742472         8.00228         6.63679 
       0.748622         7.88122         6.51774 
        0.75476         7.69089          6.4019 
       0.760888         7.62572          6.2891 
       0.767043          7.4496         6.17861 
       0.773185          7.3624         6.07104 
       0.779291         7.31618         5.96666 
       0.785407         7.16917         5.86462 
       0.791564         7.07398         5.76435 
       0.797719         6.94723         5.66649 
       0.803834          6.8671         5.57154 
       0.809972         6.74939         5.47845 
       0.816124         6.66253          5.3873 
       0.822261         6.57359          5.2985 
       0.828378         6.47072         5.21199 
       0.834502         6.39043         5.12735 
       0.840667         6.32257         5.04407 
       0.846816          6.2031          4.9629 
       0.852925         6.12441         4.88404 
       0.859047         6.04415         4.80676 
       0.865192         5.96172         4.73091 
       0.871341         5.87861         4.65666 
       0.877463         5.79543         4.58437 
       0.883569         5.73074         4.51381 
       0.889708         5.65589         4.44439 
       0.895864         5.58227         4.37626 
       0.902008         5.49599         4.30972 
       0.908149         5.42883         4.24462 
       0.914301         5.37455         4.18077 
       0.920448         5.30578         4.11831 
       0.926574         5.26792         4.05735 
       0.932687          5.1798         3.99777 
       0.938823         5.09486         3.93919 
       0.944975          5.0556         3.88165 
       0.951105         4.96474         3.82548 
       0.957225         4.92802         3.77053 
       0.963368          4.8771         3.71648 
       0.969511         4.82027         3.66349 
       0.975621         4.75273         3.61184 
       0.981748         4.66855         3.56105 
       0.987916         4.62854         3.51093 
        0.99406         4.59815         3.46197 
        1.00019         4.54194         3.41405 
        1.00632          4.4973         3.36709 
        1.01246         4.43149         3.32095 
        1.01859          4.3835         3.27575 
        1.02471         4.31523         3.23146 
        1.03085         4.28565         3.18784 
        1.03698         4.24078         3.14512 
        1.04314         4.19825         3.10301 
        1.04929          4.1449         3.06178 
        1.05541         4.09219         3.02147 
        1.06154         4.06196         2.98179 
        1.06769          4.0344         2.94277 
        1.07382         3.96877         2.90459 
        1.07993         3.91966         2.86717 
        1.08607         3.89463         2.83027 
        1.09222         3.83964         2.79398 
        1.09836         3.82776         2.75838 
        1.10449         3.75007         2.72344 
        1.11063          3.7251         2.68908 
        1.11677         3.69424         2.65532 
         1.1229         3.64622         2.62221 
        1.12903         3.62444         2.58964 
        1.13518         3.57097          2.5576 
        1.14131         3.53952         2.52613 
        1.14745         3.49965          2.4952 
        1.15359         3.46884          2.4648 
        1.15973         3.43169         2.43489 
        1.16584         3.39935         2.40561 
        1.17197         3.36186         2.37678 
        1.17811         3.32957         2.34833 
        1.18424         3.29691         2.32044 
        1.19038         3.26563         2.29292 
        1.19652         3.24266         2.26586 
        1.20267         3.21568         2.23924 
        1.20881         3.17841         2.21306 
        1.21495         3.15048         2.18734 
        1.22108         3.12434         2.16204 
         1.2272          3.0804          2.1372 
        1.23334         3.06974         2.11269 
        1.23949         3.03617         2.08851 
        1.24562         3.01021         2.06478 
        1.25174          2.9864         2.04146 
        1.25789         2.94806         2.01843 
        1.26402         2.91965          1.9958 
        1.27014         2.89396         1.97357 
        1.27628         2.87046         1.95161 
        1.28244         2.84937         1.92995 
        1.28858         2.82313         1.90865 
        1.29471         2.78862         1.88772 
        1.30084         2.76914         1.86713 
        1.30697         2.75194         1.84681 
        1.31312         2.72684         1.82677 
        1.31925         2.70252         1.80709 
        1.32537         2.68303         1.78772 
        1.33151         2.65413         1.76857 
        1.33765         2.63484         1.74972 
        1.34378         2.61338         1.73117 
        1.34992           2.594         1.71289 
        1.35606         2.57063         1.69483 
         1.3622         2.55223         1.67707 
        1.36833          2.5244          1.6596 
        1.37445         2.50311         1.64239 
        1.38059         2.48428         1.62538 
        1.38675         2.46478         1.60857 
        1.39288         2.44982         1.59206 
        1.39901         2.42402          1.5758 
        1.40515         2.40455         1.55973 
         1.4113         2.39213         1.54389 
        1.41742         2.36447         1.52833 
        1.42355         2.34417         1.51296 
         1.4297          2.3341         1.49775 
        1.43585         2.31233         1.48276 
        1.44198         2.29501         1.46803 
        1.44809         2.27971         1.45353 
        1.45423         2.26285         1.43918 
        1.46036         2.24551         1.42505 
        1.46649         2.21774          1.4111 
        1.47263         2.21165         1.39732 
        1.47877         2.19945         1.38374 
        1.48491         2.17192         1.37032 
        1.49104         2.16062         1.35711 
        1.49718          2.1426         1.34406 
        1.50333         2.12678         1.33116 
        1.50947         2.11341         1.31846 
         1.5156         2.09657         1.30595 
        1.52172         2.08308         1.29359 
        1.52787         2.06671         1.28138 
          1.534         2.05504         1.26933 
        1.54013         2.03634         1.25746 
        1.54627         2.02205         1.24572 
        1.55241         2.00384         1.23412 
        1.55855          1.9932         1.22269 
        1.56467         1.97924         1.21144 
         1.5708         1.96516          1.2003 
        1.57695         1.94738         1.18928 
        1.58308         1.93177         1.17843 
        1.58922         1.92661          1.1677 
        1.59535         1.90563         1.15712 
         1.6015         1.89171         1.14665 
        1.60764         1.88257         1.13631 
        1.61376         1.86615         1.12614 
        1.61989         1.85589         1.11608 
        1.62604         1.83801         1.10612 
        1.63218         1.83375         1.09629 
        1.63831         1.81904          1.0866 
        1.64444         1.80542         1.07702 
        1.65059         1.79677         1.06754 
        1.65673         1.77954         1.05819 
        1.66285         1.76887         1.04897 
        1.66898         1.76031         1.03986 
        1.67512         1.74219         1.03084 
        1.68127         1.73075         1.02192 
         1.6874         1.72726         1.01313 
        1.69353         1.70928         1.00444 
        1.69967         1.70032        0.995838 
        1.70581         1.69379        0.987339 
        1.71193         1.67434        0.978972 
        1.71806         1.66656        0.970685 
        1.72421         1.65854        0.962478 
        1.73035         1.64123        0.954375 
        1.73649         1.64034        0.946368 
        1.74262         1.62506        0.938459 
        1.74876         1.61426        0.930636 
        1.75489         1.60572        0.922919 
        1.76101         1.59165        0.915292 
        1.76715         1.58448        0.907741 
        1.77329         1.57484        0.900267 
        1.77943          1.5654        0.892873 
        1.78557         1.55833        0.885575 
        1.79171          1.5487        0.878356 
        1.79785         1.53774        0.871217 
        1.80399         1.52695         0.86416 
        1.81012         1.51754         0.85719 
        1.81625         1.50635          0.8503 
        1.82239         1.49939        0.843477 
        1.82853         1.49033        0.836731 
        1.83466         1.47911        0.830067 
        1.84078         1.47051        0.823482 
        1.84692         1.46353        0.816959 
        1.85306         1.45792        0.810498 
         1.8592         1.44514        0.804118 
        1.86533         1.43835        0.797811 
        1.87147         1.42626        0.791564 
        1.87761         1.42127        0.785381 
        1.88375         1.41237        0.779272 
        1.88988         1.40322        0.773235 
        1.89601         1.39517        0.767259 
        1.90215         1.38781        0.761342 
        1.90829         1.38081         0.75549 
        1.91442          1.3712        0.749699 
        1.92056          1.3665        0.743975 
         1.9267         1.35812        0.738304 
        1.93284         1.34775         0.73269 
        1.93897         1.34002        0.727144 
        1.94509         1.33588        0.721669 
        1.95123         1.32429        0.716235 
        1.95737         1.31908        0.710855 
        1.96349          1.3112        0.705543 
        1.96964         1.30627         0.70027 
        1.97578         1.29457         0.69505 
        1.98192         1.28778        0.689893 
        1.98805          1.2822        0.684788 
        1.99419         1.27535        0.679735 
        2.00033         1.26878         0.67473 
        2.00647         1.26247        0.669778 
         2.0126         1.25743        0.664884 
        2.01874         1.24878        0.660031 
        2.02488         1.23959        0.655223 
        2.03101          1.2345        0.650471 
        2.03714         1.22959        0.645772 
        2.04328         1.22091        0.641113 
        2.04941         1.21413        0.636505 
        2.05554         1.20848        0.631946 
        2.06167         1.20208        0.627425 
        2.06781         1.19343        0.622948 
        2.07396          1.1905        0.618508 
        2.08009         1.18328        0.614119 
        2.08622         1.17673        0.609778 
        2.09237         1.17149        0.605471 
        2.09851         1.16376        0.601205 
        2.10464         1.16063        0.596987 
        2.11077         1.15172        0.592814 
        2.11691         1.14619        0.588673 
        2.12305         1.14279        0.584571 
        2.12918         1.13384        0.580518 
        2.13531         1.12883        0.576503 
        2.14145           1.123        0.572517 
         2.1476         1.11862        0.568565 
        2.15372          1.1115        0.564669 
        2.15985         1.10611        0.560806 
        2.16599         1.10236        0.556969 
        2.17213         1.09584        0.553172 
        2.17827         1.08857        0.549411 
         2.1844         1.08483        0.545689 
        2.19054         1.07939           0.542 
        2.19666         1.07489         0.53835 
         2.2028          1.0684        0.534731 
        2.20893         1.06333        0.531144 
        2.21508         1.05817        0.527585 
        2.22122         1.05495        0.524058 
        2.22736         1.04542        0.520571 
        2.23349         1.04183        0.517116 
        2.23962         1.03819        0.513691 
        2.24577         1.03246        0.510294 
         2.2519         1.02714        0.506933 
        2.25802         1.02479        0.503607 
        2.26417           1.017        0.500302 
        2.27031         1.01332        0.497024 
        2.27644         1.00982        0.493785 
        2.28257         1.00197        0.490575 
        2.28872         1.00065        0.487387 
        2.29486        0.993837        0.484229 
        2.30099        0.989706        0.481105 
        2.30712        0.985866        0.478007 
        2.31326        0.981315        0.474932 
         2.3194        0.976552        0.471885 
        2.32553        0.970925         0.46887 
        2.33166        0.968477        0.465883 
         2.3378        0.962952        0.462918 
        2.34394         0.95858        0.459979 
        2.35007        0.951758        0.457068 
        2.35619        0.948238        0.454187 
        2.36233        0.943946        0.451324 
        2.36848        0.941892        0.448479 
        2.37462        0.937594        0.445665 
        2.38075        0.931539        0.442878 
        2.38689        0.928681        0.440113 
        2.39303        0.924133        0.437372 
        2.39916        0.919682        0.434657 
        2.40529        0.917957        0.431965 
        2.41143        0.910155        0.429295 
        2.41757        0.908366        0.426645 
         2.4237        0.903799        0.424023 
        2.42983        0.898834        0.421424 
        2.43598        0.896157        0.418839 
        2.44211        0.891203         0.41628 
        2.44823        0.888371        0.413749 
        2.45437         0.88497        0.411232 
        2.46052        0.881573        0.408733 
        2.46665         0.87713         0.40626 
        2.47279        0.872987        0.403808 
        2.47892        0.869121        0.401375 
        2.48507        0.866882         0.39896 
         2.4912        0.861489        0.396569 
