# k  (h/Mpc)    Pcb(k)  (Mpc/h)^3    Pcb_linear(k)  (Mpc/h)^3
     0.00783031            1851         1862.91 
       0.013688         2372.02         2401.37 
       0.019231         2502.05         2516.32 
      0.0249154         2404.25         2403.45 
      0.0312784         2144.99         2150.16 
      0.0375637         1869.58          1878.4 
      0.0433917          1662.8         1661.35 
      0.0492413         1489.75         1494.28 
      0.0555754         1367.91         1365.31 
      0.0619321         1256.38         1271.32 
       0.067871         1190.96         1196.03 
      0.0738098         1115.36         1118.49 
      0.0800417         1027.61         1027.82 
      0.0862327         927.139         930.162 
      0.0921407         834.771         837.099 
      0.0982031         752.514         750.177 
       0.104506         672.697         675.534 
       0.110769         618.167         619.456 
       0.116806           584.9         580.536 
       0.122832         551.746          551.99 
       0.129052         529.303         527.605 
       0.135211         507.659         503.418 
       0.141259         477.752         476.594 
       0.147318         444.119         446.129 
       0.153489         413.961         412.994 
       0.159709         384.679         380.242 
       0.165845         351.225          351.22 
       0.171974         334.017         327.161 
       0.178125          315.49         308.319 
       0.184229          298.07         294.081 
        0.19034         289.512         282.757 
       0.196428         279.156         272.669 
       0.202534         264.639           262.3 
       0.208729         256.458         250.681 
       0.214876         245.615         237.984 
       0.220989         228.731         224.749 
       0.227147         220.235         211.669 
        0.23329         209.359         199.696 
       0.239377         200.542         189.413 
       0.245482         190.669          180.82 
       0.251667         182.366         173.646 
       0.257832         178.925         167.551 
       0.263955         170.679         162.001 
       0.270079         164.997         156.486 
        0.27624          158.07         150.695 
       0.282372         152.704         144.647 
        0.28843         149.573         138.525 
       0.294538         142.667         132.453 
       0.300721         135.975         126.664 
        0.30691         132.707         121.413 
       0.313033         127.295          116.82 
       0.319153          124.84         112.777 
       0.325316         119.579         109.129 
        0.33145         115.932         105.753 
       0.337538         112.694         102.503 
       0.343633         109.585         99.2543 
       0.349808         106.022           95.93 
       0.355968         102.759          92.611 
       0.362074         100.596         89.3785 
       0.368217         97.5908         86.2639 
       0.374374          95.364         83.3358 
       0.380519         91.2883         80.6377 
       0.386598         88.8186         78.1836 
       0.392688         86.3199         75.9038 
        0.39888         84.7271         73.7235 
       0.405048          82.782          71.638 
       0.411186         80.7499         69.6097 
       0.417313          78.561          67.617 
       0.423458         76.3941         65.6468 
       0.429607          75.075          63.719 
       0.435692         73.7313         61.8763 
       0.441815         71.0149         60.1017 
       0.447964          68.946         58.4119 
       0.454126          67.737         56.8147 
       0.460267           67.11         55.3083 
       0.466387          65.275          53.878 
        0.47254          64.376         52.4974 
       0.478662         62.3427         51.1676 
       0.484765         61.1413         49.8748 
       0.490885         59.4612         48.6093 
       0.497035          58.662         47.3714 
       0.503198         57.2836         46.1681 
       0.509342         55.8214         45.0091 
       0.515458         55.1552         43.8999 
       0.521598         53.8613         42.8332 
       0.527764         53.1711         41.8059 
       0.533884         52.0883         40.8254 
           0.54          51.025         39.8805 
       0.546137         49.5595         38.9631 
       0.552299         48.7699         38.0694 
       0.558452         47.8121         37.2014 
       0.564573         47.4311         36.3607 
       0.570708         46.1331         35.5419 
       0.576825         45.5731         34.7506 
       0.582926         44.8438         33.9868 
       0.589034         43.9968         33.2469 
       0.595184         43.4358         32.5261 
       0.601379         42.2867         31.8239 
       0.607522         41.6901         31.1499 
       0.613639         41.0667         30.4992 
       0.619772         40.3927         29.8658 
       0.625918         39.6227         29.2484 
       0.632068         39.3095         28.6471 
       0.638161         38.5205         28.0672 
         0.6443         37.9731          27.499 
       0.650464         37.0632         26.9447 
       0.656582         36.8592         26.4103 
       0.662703         36.4467         25.8911 
       0.668861         35.5093         25.3835 
       0.675024          35.138         24.8896 
       0.681124         34.8888         24.4141 
       0.687237          34.203         23.9502 
       0.693381         33.5495         23.4963 
       0.699536         33.4131         23.0535 
       0.705665         32.8054         22.6242 
       0.711789         32.2477         22.2062 
       0.717957         31.6409          21.796 
        0.72409         31.3777         21.3985 
       0.730186         31.2315         21.0135 
       0.736317         30.6164         20.6359 
       0.742472         30.2446         20.2664 
       0.748622         29.7858         19.9065 
        0.75476         29.0913         19.5563 
       0.760888         29.0103         19.2153 
       0.767043         28.5386         18.8812 
       0.773185         28.2679         18.5558 
       0.779291         27.9831         18.2402 
       0.785407         27.5204         17.9315 
       0.791564         27.3708          17.628 
       0.797719         26.8088         17.3318 
       0.803834         26.6848         17.0444 
       0.809972         26.2053         16.7626 
       0.816124         25.9393         16.4866 
       0.822261           25.67         16.2176 
       0.828378         25.4076         15.9556 
       0.834502         25.1663         15.6991 
       0.840667         24.9091         15.4468 
       0.846816         24.3831         15.2008 
       0.852925         24.3241         14.9617 
       0.859047         24.0495         14.7274 
       0.865192         23.7259         14.4974 
       0.871341         23.4293         14.2722 
       0.877463         23.2064         14.0529 
       0.883569         23.0839         13.8388 
       0.889708         22.7247         13.6281 
       0.895864         22.4504         13.4213 
       0.902008         22.1988         13.2193 
       0.908149         21.9464         13.0216 
       0.914301         21.8461         12.8277 
       0.920448         21.5251          12.638 
       0.926574         21.3718         12.4528 
       0.932687         21.1054         12.2717 
       0.938823         20.8553         12.0937 
       0.944975         20.6947         11.9188 
       0.951105         20.4839         11.7481 
       0.957225         20.3696          11.581 
       0.963368         20.0675         11.4166 
       0.969511         19.8793         11.2555 
       0.975621         19.7041         11.0984 
       0.981748         19.4651         10.9439 
       0.987916          19.343         10.7915 
        0.99406         19.1408         10.6425 
        1.00019         18.9996         10.4967 
        1.00632         18.8404         10.3538 
        1.01246         18.6716         10.2133 
        1.01859         18.4538         10.0758 
        1.02471         18.2667         9.94093 
        1.03085         18.2037         9.80813 
        1.03698         18.0381         9.67806 
        1.04314         17.8255         9.54983 
        1.04929         17.6165         9.42425 
        1.05541         17.5551         9.30147 
        1.06154         17.4093         9.18059 
        1.06769         17.2723          9.0617 
        1.07382         17.0218         8.94532 
        1.07993         16.8898         8.83128 
        1.08607         16.8203         8.71878 
        1.09222         16.6205         8.60814 
        1.09836         16.5489         8.49957 
        1.10449         16.3427         8.39303 
        1.11063          16.278         8.28821 
        1.11677         16.1819         8.18524 
         1.1229         16.0256         8.08421 
        1.12903         15.9138         7.98481 
        1.13518         15.7048         7.88703 
        1.14131         15.6359         7.79094 
        1.14745         15.4263         7.69653 
        1.15359         15.3174         7.60368 
        1.15973         15.1956         7.51234 
        1.16584         15.0849         7.42292 
        1.17197         14.9592         7.33484 
        1.17811         14.8475         7.24794 
        1.18424         14.7553         7.16271 
        1.19038         14.6771         7.07862 
        1.19652         14.5463         6.99593 
        1.20267         14.4486         6.91457 
        1.20881         14.2975         6.83454 
        1.21495         14.1933         6.75591 
        1.22108         14.1495         6.67855 
         1.2272         14.0262         6.60259 
        1.23334         13.9582         6.52765 
        1.23949         13.8252         6.45371 
        1.24562         13.7136         6.38113 
        1.25174         13.6444         6.30979 
        1.25789         13.4923         6.23933 
        1.26402         13.4594         6.17009 
        1.27014         13.3865         6.10207 
        1.27628          13.216         6.03489 
        1.28244         13.2126          5.9686 
        1.28858         13.0902         5.90341 
        1.29471         12.9233         5.83935 
        1.30084         12.8527          5.7763 
        1.30697         12.8457          5.7141 
        1.31312         12.7048         5.65273 
        1.31925         12.6407         5.59246 
        1.32537         12.5599         5.53314 
        1.33151         12.4703         5.47448 
        1.33765         12.3791         5.41671 
        1.34378         12.3599         5.35989 
        1.34992          12.237         5.30386 
        1.35606         12.1363         5.24851 
         1.3622         12.0514         5.19406 
        1.36833         12.0073         5.14051 
        1.37445         11.9339         5.08776 
        1.38059         11.8639         5.03559 
        1.38675         11.7806         4.98404 
        1.39288         11.6732         4.93342 
        1.39901         11.6185         4.88353 
        1.40515         11.5445         4.83422 
         1.4113         11.4587         4.78562 
        1.41742         11.4199         4.73788 
        1.42355         11.3125          4.6907 
         1.4297         11.2721         4.64403 
        1.43585         11.2128         4.59802 
        1.44198         11.1477         4.55281 
        1.44809         11.0811          4.5083 
        1.45423         10.9916         4.46423 
        1.46036         10.9422         4.42083 
        1.46649         10.8722           4.378 
        1.47263         10.8254         4.33571 
        1.47877         10.7525           4.294 
        1.48491         10.7038         4.25277 
        1.49104         10.6141         4.21218 
        1.49718         10.5848         4.17209 
        1.50333         10.5139         4.13247 
        1.50947         10.4357         4.09345 
         1.5156         10.4107         4.05499 
        1.52172         10.3465         4.01703 
        1.52787         10.2908         3.97948 
          1.534         10.2328         3.94247 
        1.54013         10.1849         3.90596 
        1.54627          10.117         3.86986 
        1.55241         10.0364         3.83421 
        1.55855         10.0289         3.79907 
        1.56467         9.95543         3.76446 
         1.5708         9.91249          3.7302 
        1.57695         9.83508         3.69631 
        1.58308         9.77542         3.66292 
        1.58922         9.74266         3.62993 
        1.59535         9.68501         3.59736 
         1.6015         9.60929         3.56514 
        1.60764         9.58239         3.53334 
        1.61376         9.55045         3.50202 
        1.61989          9.4612         3.47105 
        1.62604         9.43962         3.44039 
        1.63218         9.39559         3.41012 
        1.63831         9.34138         3.38029 
        1.64444         9.26599         3.35081 
        1.65059         9.22696         3.32161 
        1.65673         9.20195          3.2928 
        1.66285         9.15457          3.2644 
        1.66898         9.10585         3.23634 
        1.67512         9.04966         3.20855 
        1.68127         8.98925         3.18107 
         1.6874         8.96793         3.15397 
        1.69353          8.9071         3.12721 
        1.69967         8.87713          3.1007 
        1.70581         8.81358          3.0745 
        1.71193         8.79673         3.04872 
        1.71806         8.75251         3.02317 
        1.72421           8.691         2.99787 
        1.73035         8.65789         2.97289 
        1.73649         8.62175          2.9482 
        1.74262          8.5511         2.92382 
        1.74876         8.55389         2.89969 
        1.75489         8.49839         2.87589 
        1.76101         8.43697         2.85237 
        1.76715         8.42474         2.82908 
        1.77329         8.38626         2.80602 
        1.77943         8.31831         2.78321 
        1.78557          8.3168         2.76069 
        1.79171         8.27323         2.73842 
        1.79785         8.23405         2.71639 
        1.80399         8.15958         2.69461 
        1.81012         8.14885          2.6731 
        1.81625          8.0959         2.65184 
        1.82239         8.06656         2.63077 
        1.82853         8.01938         2.60995 
        1.83466         7.96922         2.58938 
        1.84078         7.95317         2.56905 
        1.84692         7.92065          2.5489 
        1.85306         7.88568         2.52895 
         1.8592         7.86044         2.50925 
        1.86533         7.82888         2.48977 
        1.87147         7.77873         2.47047 
        1.87761         7.76362         2.45137 
        1.88375         7.71282          2.4325 
        1.88988         7.67456         2.41385 
        1.89601         7.65731         2.39538 
        1.90215         7.59825         2.37709 
        1.90829         7.58659         2.35901 
        1.91442           7.538         2.34111 
        1.92056         7.53363         2.32341 
         1.9267         7.47507         2.30588 
        1.93284         7.47305         2.28853 
        1.93897         7.42039         2.27138 
        1.94509         7.37263         2.25445 
        1.95123         7.36183         2.23765 
        1.95737         7.33455         2.22101 
        1.96349         7.27684         2.20458 
        1.96964         7.25659         2.18828 
        1.97578          7.2305         2.17213 
        1.98192         7.19348         2.15618 
        1.98805         7.17157         2.14038 
        1.99419         7.15211         2.12475 
        2.00033         7.10132         2.10927 
        2.00647         7.09119         2.09394 
         2.0126         7.05824          2.0788 
        2.01874         7.02819         2.06378 
        2.02488         7.00114          2.0489 
        2.03101         6.95565         2.03419 
        2.03714          6.9286         2.01965 
        2.04328         6.91074         2.00523 
        2.04941         6.87226         1.99096 
        2.05554         6.86185         1.97684 
        2.06167         6.82918         1.96284 
        2.06781         6.79732         1.94898 
        2.07396         6.76791         1.93523 
        2.08009         6.74585         1.92164 
        2.08622         6.72611         1.90819 
        2.09237         6.71001         1.89485 
        2.09851         6.65694         1.88164 
        2.10464         6.64196         1.86857 
        2.11077         6.61934         1.85565 
        2.11691         6.60716         1.84281 
        2.12305         6.56394          1.8301 
        2.12918         6.54652         1.81755 
        2.13531         6.51446          1.8051 
        2.14145         6.49606         1.79275 
         2.1476         6.46849          1.7805 
        2.15372         6.44019         1.76843 
        2.15985         6.42502         1.75645 
        2.16599         6.39996         1.74456 
        2.17213          6.3881         1.73279 
        2.17827         6.34101         1.72113 
         2.1844          6.3204         1.70958 
        2.19054         6.30372         1.69814 
        2.19666         6.27902         1.68683 
         2.2028         6.24154          1.6756 
        2.20893         6.23787         1.66447 
        2.21508         6.21667         1.65344 
        2.22122         6.16546         1.64249 
        2.22736         6.15917         1.63168 
        2.23349         6.13541         1.62096 
        2.23962         6.12334         1.61033 
        2.24577         6.08177         1.59979 
         2.2519         6.07913         1.58936 
        2.25802         6.03179         1.57904 
        2.26417         6.02343         1.56878 
        2.27031         5.99863         1.55861 
        2.27644         5.97527         1.54855 
        2.28257         5.95617         1.53859 
        2.28872         5.94188         1.52869 
        2.29486         5.91504         1.51889 
        2.30099         5.89198         1.50919 
        2.30712         5.87325         1.49957 
        2.31326         5.85088         1.49002 
         2.3194         5.82843         1.48056 
        2.32553         5.80303          1.4712 
        2.33166         5.79077         1.46192 
         2.3378         5.76985         1.45271 
        2.34394         5.74749         1.44358 
        2.35007         5.71969         1.43454 
        2.35619         5.71478         1.42559 
        2.36233         5.68032         1.41669 
        2.36848         5.67247         1.40785 
        2.37462          5.6497         1.39911 
        2.38075         5.63895         1.39045 
        2.38689         5.61623         1.38186 
        2.39303         5.58953         1.37334 
        2.39916         5.57543          1.3649 
        2.40529          5.5496         1.35653 
        2.41143         5.53922         1.34823 
        2.41757         5.52382            1.34 
         2.4237         5.49666         1.33184 
        2.42983         5.48848         1.32376 
        2.43598         5.47234         1.31573 
        2.44211         5.44716         1.30777 
        2.44823         5.41797          1.2999 
        2.45437         5.40499         1.29207 
        2.46052         5.39108          1.2843 
        2.46665         5.37843         1.27661 
        2.47279         5.34421         1.26898 
        2.47892         5.33277         1.26141 
        2.48507          5.3226          1.2539 
         2.4912         5.30104         1.24646 
