# k  (h/Mpc)    Pcb(k)  (Mpc/h)^3    Pcb_linear(k)  (Mpc/h)^3
     0.00783031         531.367         536.215 
       0.013688         667.423         669.109 
       0.019231         683.641         683.946 
      0.0249154         635.117          637.95 
      0.0312784         556.964          557.27 
      0.0375637         479.137         478.078 
      0.0433917          418.38          418.55 
      0.0492413         375.432         374.912 
      0.0555754         341.445         342.307 
      0.0619321         319.325         318.248 
       0.067871         297.073         297.746 
      0.0738098         274.755         275.544 
      0.0800417         248.316         249.473 
      0.0862327         221.947         222.312 
      0.0921407         197.812         197.756 
      0.0982031          175.99         176.212 
       0.104506         159.713         158.964 
       0.110769         147.429         146.854 
       0.116806         138.638         138.743 
       0.122832          132.79         132.503 
       0.129052         126.093         126.361 
       0.135211         119.117         119.446 
       0.141259         111.625         111.523 
       0.147318         103.318         102.852 
       0.153489         94.3473         94.0768 
       0.159709          86.523         86.1387 
       0.165845         80.6404         79.7378 
       0.171974         75.2766         74.8824 
       0.178125         71.7866         71.3027 
       0.184229         69.1383         68.5536 
        0.19034         66.1467         66.0695 
       0.196428         63.8166         63.4345 
       0.202534         61.1646         60.4162 
       0.208729          57.529         56.9963 
       0.214876         53.8111         53.4593 
       0.220989         50.8688         50.0812 
       0.227147         47.4936         47.0602 
        0.23329         45.0259         44.5542 
       0.239377          43.143         42.5657 
       0.245482         41.3129         40.9567 
       0.251667         40.1808         39.5508 
       0.257832           38.74         38.2015 
       0.263955         37.3605         36.7947 
       0.270079         35.8593         35.2749 
        0.27624         34.4599         33.6603 
       0.282372         32.8518         32.0464 
        0.28843          31.216         30.5301 
       0.294538         29.8483         29.1508 
       0.300721         28.8063         27.9374 
        0.30691         27.5938         26.8988 
       0.313033         26.7126         26.0018 
       0.319153         25.6387         25.1805 
       0.325316         25.1539         24.3751 
        0.33145          24.271          23.562 
       0.337538         23.4574         22.7314 
       0.343633         22.5517         21.8891 
       0.349808         21.7869         21.0477 
       0.355968         21.0049         20.2498 
       0.362074         20.2468         19.5187 
       0.368217         19.6006         18.8524 
       0.374374         18.9166         18.2497 
       0.380519         18.4353         17.6979 
       0.386598         17.9428         17.1843 
       0.392688         17.4921         16.6848 
        0.39888         16.9468         16.1813 
       0.405048         16.4779          15.682 
       0.411186         16.0063         15.1891 
       0.417313         15.4549         14.7096 
       0.423458         15.0316         14.2494 
       0.429607         14.5577         13.8147 
       0.435692          14.139         13.4131 
       0.441815         13.7863         13.0359 
       0.447964         13.5017         12.6788 
       0.454126         13.0534         12.3372 
       0.460267         12.7452         12.0084 
       0.466387         12.3677         11.6877 
        0.47254         12.1036         11.3708 
       0.478662         11.8276         11.0627 
       0.484765          11.478         10.7644 
       0.490885         11.1883         10.4758 
       0.497035         11.0023         10.1983 
       0.503198          10.693         9.93384 
       0.509342         10.4408         9.68309 
       0.515458         10.1761         9.44423 
       0.521598         9.96036         9.21332 
       0.527764         9.70599         8.98901 
       0.533884           9.532         8.77277 
           0.54          9.3046         8.56215 
       0.546137         9.11185         8.35593 
       0.552299         8.91659         8.15479 
       0.558452         8.65977         7.96066 
       0.564573         8.51624         7.77458 
       0.570708         8.33427         7.59499 
       0.576825         8.12368         7.42236 
       0.582926         7.98063         7.25618 
       0.589034           7.754         7.09532 
       0.595184           7.621         6.93845 
       0.601379         7.45461          6.7851 
       0.607522         7.33919         6.63716 
       0.613639         7.22569          6.4937 
       0.619772         7.02815         6.35375 
       0.625918         6.92997         6.21759 
       0.632068          6.8146         6.08554 
       0.638161         6.64958         5.95887 
         0.6443         6.51311         5.83526 
       0.650464         6.37177         5.71493 
       0.656582         6.29499         5.59895 
       0.662703         6.17511         5.48612 
       0.668861         6.07142         5.37567 
       0.675024          5.9401         5.26809 
       0.681124         5.82475          5.1645 
       0.687237         5.73962         5.06348 
       0.693381         5.64267         4.96472 
       0.699536         5.49315         4.86847 
       0.705665         5.41477         4.77523 
       0.711789         5.32905         4.68457 
       0.717957         5.22839         4.59567 
        0.72409         5.13942         4.50959 
       0.730186         5.05591         4.42626 
       0.736317         5.00203         4.34459 
       0.742472         4.91552          4.2647 
       0.748622         4.82106          4.1869 
        0.75476         4.72029         4.11122 
       0.760888         4.65322         4.03755 
       0.767043         4.59886          3.9654 
       0.773185         4.50152         3.89519 
       0.779291           4.448         3.82709 
       0.785407         4.37277         3.76053 
       0.791564          4.3066         3.69515 
       0.797719         4.24236         3.63137 
       0.803834         4.18895          3.5695 
       0.809972         4.12796         3.50887 
       0.816124         4.04835         3.44952 
       0.822261         3.97737         3.39171 
       0.828378         3.92898          3.3354 
       0.834502         3.88733         3.28033 
       0.840667         3.80472         3.22616 
       0.846816          3.7467         3.17337 
       0.852925         3.71262         3.12211 
       0.859047         3.65779         3.07188 
       0.865192         3.60811          3.0226 
       0.871341         3.56108         2.97437 
       0.877463         3.51453         2.92743 
       0.883569         3.45059         2.88163 
       0.889708         3.39785         2.83657 
       0.895864         3.35751         2.79238 
       0.902008          3.3053         2.74922 
       0.908149         3.26756         2.70701 
       0.914301         3.20616         2.66562 
       0.920448         3.16758         2.62514 
       0.926574         3.12193         2.58565 
       0.932687         3.08646         2.54706 
       0.938823         3.05354         2.50913 
       0.944975          3.0101         2.47188 
       0.951105         2.97523         2.43553 
       0.957225         2.95193         2.39997 
       0.963368         2.90713         2.36501 
       0.969511         2.86379         2.33075 
       0.975621         2.82015         2.29735 
       0.981748         2.79508         2.26452 
       0.987916         2.75756         2.23214 
        0.99406         2.71304         2.20051 
        1.00019         2.68724         2.16956 
        1.00632          2.6523         2.13924 
        1.01246          2.6215         2.10945 
        1.01859         2.59181         2.08028 
        1.02471         2.55692          2.0517 
        1.03085         2.53019         2.02357 
        1.03698         2.49459         1.99602 
        1.04314         2.47048         1.96887 
        1.04929         2.43703         1.94229 
        1.05541         2.41123         1.91631 
        1.06154         2.38272         1.89075 
        1.06769          2.3585         1.86561 
        1.07382         2.32811         1.84102 
        1.07993         2.29396         1.81692 
        1.08607         2.28157         1.79316 
        1.09222         2.24975         1.76981 
        1.09836         2.23302          1.7469 
        1.10449         2.20595         1.72442 
        1.11063         2.17515         1.70232 
        1.11677          2.1509         1.68061 
         1.1229         2.12801         1.65932 
        1.12903         2.10215         1.63839 
        1.13518         2.08565          1.6178 
        1.14131         2.05555         1.59757 
        1.14745         2.02265         1.57771 
        1.15359         2.01332         1.55818 
        1.15973         1.98218         1.53897 
        1.16584         1.97474         1.52018 
        1.17197         1.94981         1.50167 
        1.17811         1.93097         1.48342 
        1.18424         1.91635         1.46552 
        1.19038         1.89109         1.44787 
        1.19652         1.87026         1.43052 
        1.20267         1.85624         1.41345 
        1.20881          1.8302         1.39667 
        1.21495         1.81751         1.38018 
        1.22108         1.79916         1.36397 
         1.2272         1.78603         1.34805 
        1.23334         1.76238         1.33236 
        1.23949         1.74309         1.31687 
        1.24562         1.73083         1.30168 
        1.25174           1.711         1.28675 
        1.25789         1.69602         1.27201 
        1.26402         1.67362         1.25752 
        1.27014         1.65828          1.2433 
        1.27628         1.65104         1.22926 
        1.28244         1.62631          1.2154 
        1.28858         1.61398         1.20178 
        1.29471         1.59849          1.1884 
        1.30084          1.5813         1.17524 
        1.30697         1.56954         1.16225 
        1.31312         1.54601         1.14945 
        1.31925           1.539         1.13687 
        1.32537         1.52497          1.1245 
        1.33151         1.51262         1.11227 
        1.33765         1.49532         1.10023 
        1.34378         1.47885         1.08839 
        1.34992         1.47271         1.07672 
        1.35606         1.45263         1.06519 
         1.3622          1.4439         1.05386 
        1.36833         1.42982         1.04271 
        1.37445         1.41355         1.03174 
        1.38059         1.40285         1.02089 
        1.38675         1.39882         1.01017 
        1.39288         1.37919        0.999643 
        1.39901         1.36673        0.989274 
        1.40515         1.35637         0.97903 
         1.4113         1.34364        0.968935 
        1.41742         1.33221        0.959022 
        1.42355         1.32732        0.949229 
         1.4297         1.30868        0.939543 
        1.43585         1.29984        0.929997 
        1.44198         1.29345        0.920621 
        1.44809         1.27543        0.911391 
        1.45423          1.2664        0.902255 
        1.46036         1.25635         0.89326 
        1.46649         1.24532        0.884385 
        1.47263         1.23406        0.875624 
        1.47877         1.22229        0.866985 
        1.48491         1.21277         0.85845 
        1.49104         1.20341        0.850047 
        1.49718         1.19642        0.841751 
        1.50333          1.1839        0.833552 
        1.50947         1.17704         0.82548 
         1.5156         1.16579        0.817526 
        1.52172         1.15627        0.809678 
        1.52787          1.1458        0.801917 
          1.534         1.13971        0.794267 
        1.54013         1.12652        0.786725 
        1.54627          1.1176        0.779267 
        1.55241         1.10863        0.771905 
        1.55855         1.10067        0.764649 
        1.56467         1.09438        0.757507 
         1.5708         1.08172        0.750435 
        1.57695         1.07739        0.743444 
        1.58308          1.0685        0.736557 
        1.58922         1.05968        0.729754 
        1.59535         1.05174        0.723039 
         1.6015         1.04388        0.716399 
        1.60764         1.03715        0.709846 
        1.61376         1.02719        0.703393 
        1.61989         1.02066        0.697016 
        1.62604         1.01203        0.690703 
        1.63218          1.0075        0.684472 
        1.63831        0.996733        0.678333 
        1.64444        0.989285        0.672267 
        1.65059        0.983654        0.666261 
        1.65673        0.974926        0.660335 
        1.66285        0.967353        0.654498 
        1.66898        0.963437         0.64873 
        1.67512        0.952755         0.64302 
        1.68127        0.946439        0.637373 
         1.6874        0.942121        0.631807 
        1.69353        0.932613        0.626311 
        1.69967        0.925994        0.620868 
        1.70581        0.921401        0.615491 
        1.71193        0.913679        0.610199 
        1.71806        0.908531        0.604957 
        1.72421        0.901219        0.599767 
        1.73035        0.893661        0.594643 
        1.73649        0.889544        0.589581 
        1.74262        0.883045        0.584581 
        1.74876        0.875992        0.579636 
        1.75489        0.868716        0.574759 
        1.76101        0.862867        0.569939 
        1.76715        0.857746        0.565167 
        1.77329        0.852272        0.560445 
        1.77943        0.845225        0.555775 
        1.78557        0.839254        0.551165 
        1.79171        0.835386        0.546606 
        1.79785        0.828955        0.542098 
        1.80399        0.823364        0.537642 
        1.81012        0.819007        0.533242 
        1.81625         0.81186        0.528893 
        1.82239        0.807656        0.524587 
        1.82853        0.798716         0.52033 
        1.83466        0.795625        0.516125 
        1.84078        0.789475         0.51197 
        1.84692        0.786415        0.507855 
        1.85306          0.7804         0.50378 
         1.8592        0.776239        0.499756 
        1.86533        0.770385        0.495779 
        1.87147        0.765561         0.49184 
        1.87761        0.760745        0.487942 
        1.88375        0.753357        0.484091 
        1.88988        0.751082        0.480286 
        1.89601        0.744888         0.47652 
        1.90215        0.740905        0.472791 
        1.90829        0.735166        0.469104 
        1.91442        0.730438        0.465456 
        1.92056        0.726693         0.46185 
         1.9267        0.721308        0.458279 
        1.93284        0.718287        0.454743 
        1.93897        0.713265        0.451251 
        1.94509        0.708609        0.447804 
        1.95123        0.703379        0.444383 
        1.95737        0.699843        0.440997 
        1.96349        0.694355        0.437654 
        1.96964        0.690869        0.434336 
        1.97578        0.686222        0.431051 
        1.98192        0.683953        0.427806 
        1.98805        0.677842        0.424595 
        1.99419          0.6746        0.421417 
        2.00033        0.671731        0.418269 
        2.00647        0.665976        0.415154 
         2.0126        0.662464        0.412077 
        2.01874        0.658785        0.409026 
        2.02488        0.655325        0.406003 
        2.03101        0.649537        0.403016 
        2.03714        0.645201        0.400062 
        2.04328        0.643478        0.397135 
        2.04941        0.639071        0.394239 
        2.05554        0.634924        0.391374 
        2.06167        0.631188        0.388534 
        2.06781        0.626476        0.385721 
        2.07396        0.622481        0.382932 
        2.08009        0.619764        0.380176 
        2.08622        0.615693         0.37745 
        2.09237        0.614379        0.374745 
        2.09851        0.610536        0.372067 
        2.10464        0.607042        0.369419 
        2.11077        0.602714          0.3668 
        2.11691        0.598869        0.364201 
        2.12305        0.595797        0.361626 
        2.12918        0.592399        0.359083 
        2.13531         0.58894        0.356564 
        2.14145        0.585738        0.354063 
         2.1476        0.582006        0.351584 
        2.15372        0.580222         0.34914 
        2.15985        0.575327        0.346718 
        2.16599        0.571747        0.344311 
        2.17213        0.569199         0.34193 
        2.17827        0.567393        0.339572 
         2.1844        0.564255        0.337238 
        2.19054        0.561243        0.334926 
        2.19666        0.556973        0.332638 
         2.2028        0.554376         0.33037 
        2.20893        0.551154        0.328121 
        2.21508        0.548724        0.325892 
        2.22122        0.544078        0.323682 
        2.22736        0.541587        0.321497 
        2.23349        0.540457        0.319333 
        2.23962         0.53682        0.317188 
        2.24577        0.532633         0.31506 
         2.2519        0.530742        0.312955 
        2.25802        0.527614        0.310873 
        2.26417         0.52418        0.308804 
        2.27031        0.521593        0.306751 
        2.27644        0.519593        0.304724 
        2.28257        0.516787        0.302715 
        2.28872         0.51372         0.30072 
        2.29486          0.5109        0.298743 
        2.30099        0.508163        0.296788 
        2.30712        0.506135         0.29485 
        2.31326        0.503115        0.292926 
         2.3194        0.502196         0.29102 
        2.32553        0.499127        0.289135 
        2.33166        0.496312        0.287266 
         2.3378        0.493669        0.285412 
        2.34394        0.489511        0.283574 
        2.35007        0.487935        0.281754 
        2.35619        0.485649        0.279953 
        2.36233        0.482116        0.278163 
        2.36848        0.480811        0.276385 
        2.37462        0.477674        0.274626 
        2.38075        0.476689        0.272884 
        2.38689        0.473392        0.271156 
        2.39303        0.471977        0.269443 
        2.39916        0.468051        0.267747 
        2.40529        0.466527        0.266065 
        2.41143        0.464632        0.264397 
        2.41757        0.461976        0.262742 
         2.4237        0.459724        0.261105 
        2.42983        0.457831        0.259481 
        2.43598        0.455498        0.257867 
        2.44211        0.453616         0.25627 
        2.44823        0.451505        0.254689 
        2.45437        0.448556        0.253118 
        2.46052        0.447776        0.251558 
        2.46665        0.444607        0.250015 
        2.47279        0.442212        0.248485 
        2.47892        0.439685        0.246966 
        2.48507        0.438301        0.245459 
         2.4912        0.436303        0.243967 
