# k  (h/Mpc)    P(k)  (Mpc/h)^3    P_linear(k)  (Mpc/h)^3
     0.00783031         870.626         880.415 
       0.013688         1080.48          1083.4 
       0.019231         1079.37         1079.78 
      0.0249154         969.366          974.24 
      0.0312784         818.602         818.573 
      0.0375637         683.257         680.934 
      0.0433917         587.237         587.224 
      0.0492413           526.3          525.35 
      0.0555754         481.799         483.415 
      0.0619321         454.125         452.429 
       0.067871         420.988         422.236 
      0.0738098         384.328         385.658 
      0.0800417         339.693         341.436 
      0.0862327         296.671         296.997 
      0.0921407         260.208         259.719 
      0.0982031         230.155         230.207 
       0.104506         210.975         209.523 
       0.110769         198.003         196.996 
       0.116806         189.005         189.124 
       0.122832         182.387         181.937 
       0.129052          172.15         172.588 
       0.135211         160.062         160.475 
       0.141259         147.056          146.62 
       0.147318         133.607         132.557 
       0.153489          120.65         119.874 
       0.159709         110.876          109.93 
       0.165845          104.73         103.103 
       0.171974         99.4096         98.6351 
       0.178125         96.2692         95.4359 
       0.184229         93.3388         92.4059 
        0.19034          88.806         88.6912 
       0.196428         84.7169         84.0167 
       0.202534         79.9505         78.5886 
       0.208729         74.0113         72.9107 
       0.214876         68.5993         67.7386 
       0.220989         64.9488         63.4815 
       0.227147         61.1485         60.2161 
        0.23329         58.7502         57.8273 
       0.239377         57.0257          55.988 
       0.245482         54.8906         54.2916 
       0.251667         53.4291          52.411 
       0.257832         51.1771         50.2302 
       0.263955         48.8128         47.7988 
       0.270079         46.3632          45.265 
        0.27624         44.2861         42.8299 
       0.282372         42.1694         40.6847 
        0.28843         40.2115         38.9185 
       0.294538         38.7102          37.472 
       0.300721         37.7171         36.2536 
        0.30691         36.3294         35.1517 
       0.313033         35.2315         34.0592 
       0.319153          33.696         32.8968 
       0.325316         32.9422         31.6423 
        0.33145         31.5601         30.3524 
       0.337538         30.3842         29.0951 
       0.343633         29.1201          27.921 
       0.349808          28.162         26.8612 
       0.355968         27.2558         25.9363 
       0.362074         26.3875         25.1333 
       0.368217         25.6397         24.3955 
       0.374374          24.818          23.686 
       0.380519         24.2004         22.9768 
       0.386598           23.51         22.2577 
       0.392688         22.8772         21.5293 
        0.39888         22.0907         20.7949 
       0.405048         21.4466         20.0919 
       0.411186         20.8274         19.4404 
       0.417313         20.1214         18.8426 
       0.423458         19.5995         18.2934 
       0.429607         19.0358         17.7856 
       0.435692         18.5094         17.3082 
       0.441815         18.0821         16.8395 
       0.447964         17.7206         16.3751 
       0.454126         17.0891          15.913 
       0.460267         16.6883         15.4575 
       0.466387         16.1614         15.0163 
        0.47254         15.8246         14.5925 
       0.478662         15.4811         14.1932 
       0.484765         15.0163         13.8175 
       0.490885         14.6567         13.4625 
       0.497035         14.4383         13.1235 
       0.503198         14.0428         12.7962 
       0.509342         13.7082         12.4775 
       0.515458         13.3632         12.1669 
       0.521598          13.087         11.8623 
       0.527764         12.7536         11.5642 
       0.533884         12.5251         11.2772 
           0.54         12.2247         11.0008 
       0.546137         11.9786         10.7351 
       0.552299         11.7374         10.4805 
       0.558452         11.3915         10.2369 
       0.564573         11.2174          10.003 
       0.570708         10.9858         9.77548 
       0.576825         10.7063          9.5545 
       0.582926          10.514            9.34 
       0.589034          10.215         9.13116 
       0.595184         10.0502         8.92695 
       0.601379         9.82754         8.72746 
       0.607522         9.67811         8.53579 
       0.613639         9.53449         8.35107 
       0.619772         9.27361         8.17202 
       0.625918           9.168         7.99864 
       0.632068         9.01865         7.83073 
       0.638161         8.79504         7.66934 
         0.6443         8.61585         7.51127 
       0.650464         8.43311         7.35672 
       0.656582         8.34769         7.20719 
       0.662703         8.18682         7.06151 
       0.668861           8.042         6.91892 
       0.675024         7.87374         6.78024 
       0.681124         7.72819           6.647 
       0.687237         7.61128          6.5174 
       0.693381         7.49163         6.39092 
       0.699536         7.29121         6.26774 
       0.705665         7.19801         6.14843 
       0.711789         7.07987         6.03235 
       0.717957         6.95079          5.9184 
        0.72409         6.83203         5.80793 
       0.730186         6.73106         5.70088 
       0.736317         6.65756         5.59592 
       0.742472          6.5466         5.49321 
       0.748622         6.42707         5.39319 
        0.75476         6.29145         5.29593 
       0.760888         6.20657          5.2013 
       0.767043         6.13154         5.10867 
       0.773185         6.00316         5.01854 
       0.779291         5.94259         4.93115 
       0.785407         5.84273         4.84576 
       0.791564         5.75435         4.76188 
       0.797719         5.66063         4.68005 
       0.803834          5.6042         4.60067 
       0.809972         5.52987         4.52286 
       0.816124         5.41761         4.44668 
       0.822261         5.32502         4.37249 
       0.828378         5.26161         4.30022 
       0.834502         5.21191         4.22954 
       0.840667         5.10435            4.16 
       0.846816         5.02209         4.09225 
       0.852925         4.97872         4.02644 
       0.859047         4.90705         3.96197 
       0.865192         4.84987         3.89871 
       0.871341         4.79141         3.83681 
       0.877463         4.72123         3.77654 
       0.883569         4.63784         3.71774 
       0.889708         4.56569         3.65991 
       0.895864         4.51428         3.60317 
       0.902008         4.45352         3.54776 
       0.908149          4.4051         3.49356 
       0.914301         4.32776         3.44042 
       0.920448         4.27136         3.38845 
       0.926574          4.2118         3.33774 
       0.932687          4.1676         3.28818 
       0.938823         4.11779         3.23947 
       0.944975         4.06185         3.19163 
       0.951105         4.01719         3.14495 
       0.957225         3.99302         3.09928 
       0.963368         3.93251         3.05438 
       0.969511         3.87638         3.01037 
       0.975621         3.82105         2.96747 
       0.981748         3.78474         2.92531 
       0.987916          3.7381          2.8837 
        0.99406         3.67604         2.84307 
        1.00019         3.63536         2.80331 
        1.00632         3.60101         2.76435 
        1.01246         3.55965         2.72608 
        1.01859         3.51572          2.6886 
        1.02471         3.47376         2.65188 
        1.03085         3.43384         2.61573 
        1.03698         3.38825         2.58033 
        1.04314         3.35762         2.54544 
        1.04929         3.31504         2.51129 
        1.05541         3.27735          2.4779 
        1.06154         3.24355         2.44505 
        1.06769          3.2185         2.41275 
        1.07382         3.16944         2.38114 
        1.07993         3.12769         2.35017 
        1.08607         3.11114         2.31964 
        1.09222         3.07057         2.28962 
        1.09836         3.04412         2.26017 
        1.10449         3.00996         2.23128 
        1.11063         2.97127         2.20286 
        1.11677         2.94322         2.17496 
         1.1229         2.91197         2.14759 
        1.12903         2.87646         2.12067 
        1.13518         2.85205          2.0942 
        1.14131         2.81211         2.06819 
        1.14745         2.77166         2.04265 
        1.15359         2.75846         2.01753 
        1.15973         2.71923         1.99283 
        1.16584         2.70337         1.96866 
        1.17197         2.67366         1.94486 
        1.17811         2.65115         1.92138 
        1.18424         2.62807         1.89836 
        1.19038         2.59976         1.87565 
        1.19652         2.57284         1.85332 
        1.20267         2.54999         1.83136 
        1.20881         2.52016         1.80977 
        1.21495         2.50073         1.78855 
        1.22108          2.4758         1.76769 
         1.2272         2.45901          1.7472 
        1.23334         2.42636           1.727 
        1.23949          2.4011         1.70707 
        1.24562          2.3863         1.68751 
        1.25174         2.35726         1.66829 
        1.25789         2.33896         1.64932 
        1.26402         2.31124         1.63067 
        1.27014         2.28982         1.61236 
        1.27628         2.27927         1.59428 
        1.28244         2.24763         1.57645 
        1.28858         2.23295         1.55891 
        1.29471         2.20834         1.54168 
        1.30084         2.18642         1.52473 
        1.30697          2.1762         1.50801 
        1.31312          2.1405         1.49151 
        1.31925         2.13098         1.47532 
        1.32537         2.11121         1.45939 
        1.33151         2.09678         1.44364 
        1.33765         2.07076         1.42813 
        1.34378         2.05354         1.41288 
        1.34992          2.0445         1.39784 
        1.35606         2.01435         1.38299 
         1.3622          2.0059         1.36839 
        1.36833         1.98653         1.35403 
        1.37445         1.96643         1.33989 
        1.38059         1.95477         1.32591 
        1.38675         1.94511         1.31209 
        1.39288         1.92036         1.29853 
        1.39901         1.90154         1.28516 
        1.40515         1.88791         1.27196 
         1.4113         1.87338         1.25895 
        1.41742         1.85854         1.24617 
        1.42355         1.84895         1.23354 
         1.4297         1.82612         1.22105 
        1.43585         1.81589         1.20874 
        1.44198          1.8048         1.19665 
        1.44809         1.78211         1.18475 
        1.45423         1.76919         1.17297 
        1.46036         1.75455         1.16137 
        1.46649         1.74073         1.14992 
        1.47263         1.72565         1.13862 
        1.47877         1.70956         1.12748 
        1.48491         1.69715         1.11647 
        1.49104         1.68679         1.10563 
        1.49718         1.67552         1.09492 
        1.50333         1.65928         1.08435 
        1.50947         1.64959         1.07393 
         1.5156         1.63505         1.06367 
        1.52172         1.62251         1.05354 
        1.52787         1.60891         1.04352 
          1.534         1.59844         1.03365 
        1.54013         1.58439         1.02392 
        1.54627         1.57045         1.01429 
        1.55241         1.55837         1.00479 
        1.55855         1.54985        0.995426 
        1.56467         1.53942        0.986206 
         1.5708         1.52268        0.977077 
        1.57695         1.51599        0.968051 
        1.58308         1.50389         0.95916 
        1.58922         1.49364        0.950375 
        1.59535          1.4825        0.941704 
         1.6015         1.47172        0.933129 
        1.60764         1.46332        0.924666 
        1.61376         1.45215        0.916332 
        1.61989         1.44035        0.908094 
        1.62604         1.42868         0.89994 
        1.63218         1.42396        0.891891 
        1.63831         1.40856         0.88396 
        1.64444         1.39867        0.876123 
        1.65059         1.39208        0.868363 
        1.65673         1.38016        0.860706 
        1.66285         1.36984        0.853163 
        1.66898         1.36359        0.845708 
        1.67512         1.34944        0.838328 
        1.68127         1.34129        0.831031 
         1.6874         1.33614        0.823837 
        1.69353         1.32109        0.816732 
        1.69967         1.31249        0.809695 
        1.70581         1.30893        0.802745 
        1.71193         1.29677        0.795902 
        1.71806         1.29133        0.789126 
        1.72421         1.28097        0.782415 
        1.73035         1.27075         0.77579 
        1.73649         1.26409        0.769243 
        1.74262         1.25548        0.762778 
        1.74876         1.24768        0.756383 
        1.75489         1.23562        0.750075 
        1.76101         1.22909        0.743841 
        1.76715         1.22211         0.73767 
        1.77329         1.21498        0.731562 
        1.77943          1.2044         0.72552 
        1.78557         1.19666        0.719556 
        1.79171         1.19293        0.713658 
        1.79785         1.18221        0.707826 
        1.80399         1.17582         0.70206 
        1.81012         1.16994        0.696367 
        1.81625          1.1603        0.690739 
        1.82239         1.15321        0.685166 
        1.82853           1.142        0.679657 
        1.83466          1.1384        0.674214 
        1.84078         1.13024        0.668837 
        1.84692         1.12593         0.66351 
        1.85306         1.11709        0.658234 
         1.8592         1.11115        0.653025 
        1.86533         1.10289        0.647875 
        1.87147         1.09774        0.642774 
        1.87761         1.09048        0.637727 
        1.88375         1.08109         0.63274 
        1.88988         1.07805        0.627813 
        1.89601          1.0698        0.622935 
        1.90215         1.06206        0.618105 
        1.90829         1.05485        0.613329 
        1.91442         1.05017        0.608603 
        1.92056         1.04418        0.603932 
         1.9267         1.03729        0.599305 
        1.93284         1.03428        0.594724 
        1.93897         1.02601          0.5902 
        1.94509         1.01962        0.585733 
        1.95123         1.01241        0.581301 
        1.95737         1.00747        0.576912 
        1.96349         1.00035        0.572579 
        1.96964        0.996066        0.568279 
        1.97578         0.98979        0.564021 
        1.98192        0.985358        0.559816 
        1.98805        0.977203        0.555653 
        1.99419        0.974395        0.551533 
        2.00033        0.970718        0.547452 
        2.00647        0.961021        0.543414 
         2.0126        0.957494        0.539424 
        2.01874        0.951303        0.535468 
        2.02488        0.947231        0.531548 
        2.03101        0.938862        0.527675 
        2.03714        0.932672        0.523844 
        2.04328        0.931459        0.520047 
        2.04941        0.924064        0.516292 
        2.05554        0.919357        0.512576 
        2.06167        0.913332        0.508891 
        2.06781        0.908971        0.505243 
        2.07396        0.902744        0.501625 
        2.08009        0.899128        0.498049 
        2.08622        0.892698        0.494513 
        2.09237        0.890817        0.491004 
        2.09851        0.885623        0.487528 
        2.10464          0.8816        0.484092 
        2.11077        0.875389        0.480693 
        2.11691        0.869535         0.47732 
        2.12305        0.866199        0.473978 
        2.12918        0.861076        0.470677 
        2.13531        0.856718        0.467408 
        2.14145        0.851605        0.464161 
         2.1476        0.846299        0.460942 
        2.15372         0.84334         0.45777 
        2.15985         0.83739        0.454625 
        2.16599        0.833004          0.4515 
        2.17213        0.828713        0.448408 
        2.17827        0.826296        0.445346 
         2.1844        0.821939        0.442315 
        2.19054        0.818527        0.439312 
        2.19666        0.812975        0.436341 
         2.2028         0.80856        0.433394 
        2.20893        0.804348        0.430474 
        2.21508        0.801912        0.427578 
        2.22122        0.793959        0.424707 
        2.22736        0.790929        0.421868 
        2.23349        0.790664        0.419057 
        2.23962        0.783832        0.416269 
        2.24577        0.779479        0.413505 
         2.2519        0.775235         0.41077 
        2.25802        0.772584        0.408064 
        2.26417        0.767075        0.405374 
        2.27031        0.764283        0.402707 
        2.27644        0.760487        0.400071 
        2.28257        0.757407         0.39746 
        2.28872        0.752837        0.394867 
        2.29486        0.749427        0.392297 
        2.30099        0.744762        0.389756 
        2.30712        0.741663        0.387236 
        2.31326        0.739223        0.384734 
         2.3194        0.736216        0.382256 
        2.32553        0.732441        0.379804 
        2.33166        0.727795        0.377374 
         2.3378        0.723932        0.374963 
        2.34394        0.719633        0.372572 
        2.35007        0.716619        0.370205 
        2.35619        0.714501        0.367862 
        2.36233        0.709034        0.365534 
        2.36848        0.706945        0.363221 
        2.37462        0.702908        0.360933 
        2.38075        0.701135        0.358667 
        2.38689        0.696745        0.356418 
        2.39303        0.694291         0.35419 
        2.39916         0.68919        0.351982 
        2.40529        0.687903        0.349794 
        2.41143        0.684162        0.347623 
        2.41757        0.681173         0.34547 
         2.4237        0.678517        0.343339 
        2.42983        0.675129        0.341226 
        2.43598        0.672012        0.339125 
        2.44211        0.669303        0.337045 
        2.44823        0.665628        0.334988 
        2.45437        0.662842        0.332942 
        2.46052        0.661114        0.330912 
        2.46665        0.657235        0.328902 
        2.47279        0.653925        0.326909 
        2.47892        0.649867        0.324932 
        2.48507        0.647893         0.32297 
         2.4912        0.644896        0.321027 
