# k  (h/Mpc)    P(k)  (Mpc/h)^3    P_linear(k)  (Mpc/h)^3
     0.00783031          8311.6         8445.64 
       0.013688         10911.8         10870.7 
       0.019231         11416.8         11426.9 
      0.0249154         10794.8         10992.6 
      0.0312784         9841.77          9947.1 
      0.0375637          8771.4         8799.78 
      0.0433917         7722.53         7863.12 
      0.0492413         7051.71         7120.64 
      0.0555754         6336.97         6521.61 
      0.0619321         6042.69         6060.85 
       0.067871         5529.31         5680.96 
      0.0738098         5147.51         5295.65 
      0.0800417         4674.44         4861.85 
      0.0862327         4284.78         4411.18 
      0.0921407         3925.42         3991.86 
      0.0982031         3528.62         3604.54 
       0.104506         3287.78         3271.13 
       0.110769         3030.57          3015.4 
       0.116806         2827.75         2829.92 
       0.122832         2697.08            2685 
       0.129052          2519.2         2554.48 
       0.135211         2398.05         2425.08 
       0.141259         2295.77         2287.73 
       0.147318         2168.14         2139.57 
       0.153489         1997.47         1985.09 
       0.159709         1884.48         1836.61 
       0.165845         1800.37         1706.62 
       0.171974         1686.98         1598.22 
       0.178125          1602.4         1510.94 
       0.184229         1538.53         1441.45 
        0.19034         1445.02         1382.58 
       0.196428         1421.62         1327.99 
       0.202534            1376         1272.33 
       0.208729         1312.57         1212.58 
       0.214876         1248.78         1150.46 
       0.220989         1211.07         1088.33 
       0.227147          1147.8         1028.58 
        0.23329         1101.67          974.46 
       0.239377         1079.36         927.649 
       0.245482         1009.78         887.472 
       0.251667         1001.68         852.415 
       0.257832         965.775         821.186 
       0.263955         935.188         791.917 
       0.270079         904.374         762.892 
        0.27624         894.779         733.275 
       0.282372         856.771         703.466 
        0.28843         840.948         674.302 
       0.294538         800.767         646.057 
       0.300721         797.244         619.392 
        0.30691         761.737         595.095 
       0.313033         747.241         573.403 
       0.319153         727.538         553.753 
       0.325316          705.64         535.452 
        0.33145         687.395         518.179 
       0.337538         679.321         501.496 
       0.343633         659.018         485.048 
       0.349808         638.126          468.59 
       0.355968         633.664         452.536 
       0.362074          622.45         437.188 
       0.368217         605.563         422.515 
       0.374374         581.981         408.717 
       0.380519         578.072         395.849 
       0.386598         564.754         383.946 
       0.392688         562.094         372.692 
        0.39888         545.876         361.771 
       0.405048         536.159         351.285 
       0.411186         526.673         341.134 
       0.417313         517.313         331.263 
       0.423458         508.843         321.643 
       0.429607         498.825         312.335 
       0.435692         487.678         303.492 
       0.441815         484.641         294.994 
       0.447964         475.041         286.862 
       0.454126         461.765         279.102 
       0.460267         455.869         271.718 
       0.466387          450.89         264.653 
        0.47254         441.942         257.797 
       0.478662         440.803         251.198 
       0.484765         428.135         244.817 
       0.490885         423.781         238.607 
       0.497035          416.59         232.566 
       0.503198         409.468         226.723 
       0.509342         406.389         221.109 
       0.515458         402.296         215.728 
       0.521598         394.798         210.529 
       0.527764         387.415         205.503 
       0.533884         385.004         200.688 
           0.54         379.889         196.034 
       0.546137          378.57         191.509 
       0.552299         371.048         187.104 
       0.558452         368.279          182.84 
       0.564573         362.414         178.724 
       0.570708         356.713         174.724 
       0.576825         350.989          170.86 
       0.582926         348.605          167.13 
       0.589034         344.943         163.514 
       0.595184         341.833         159.988 
       0.601379         338.447         156.546 
       0.607522         332.631         153.235 
       0.613639         331.378         150.034 
       0.619772         323.334         146.918 
       0.625918         322.252         143.884 
       0.632068          317.87         140.934 
       0.638161         316.675         138.092 
         0.6443         311.082         135.309 
       0.650464         308.712         132.593 
       0.656582         307.456         129.974 
       0.662703         304.547         127.427 
       0.668861         299.443         124.937 
       0.675024          296.57         122.512 
       0.681124         295.473         120.178 
       0.687237         291.706           117.9 
       0.693381         287.657         115.671 
       0.699536         285.457         113.495 
       0.705665         283.965         111.386 
       0.711789         280.397         109.333 
       0.717957         278.656         107.319 
        0.72409         275.746         105.367 
       0.730186         272.748         103.477 
       0.736317         270.306         101.624 
       0.742472         269.174         99.8098 
       0.748622         266.961         98.0425 
        0.75476         264.729         96.3225 
       0.760888         261.199         94.6468 
       0.767043         260.832         93.0049 
       0.773185          257.64          91.406 
       0.779291         253.409         89.8543 
       0.785407         252.803         88.3369 
       0.791564         250.444         86.8456 
       0.797719         247.939           85.39 
       0.803834         246.629         83.9776 
       0.809972         244.496         82.5925 
       0.816124         244.802         81.2362 
       0.822261          240.76         79.9144 
       0.828378         239.219         78.6265 
       0.834502         238.898         77.3662 
       0.840667         235.007         76.1257 
       0.846816         233.993         74.9163 
       0.852925          232.41         73.7411 
       0.859047         230.557          72.589 
       0.865192         228.889          71.458 
       0.871341          226.59         70.3507 
       0.877463         225.296         69.2721 
       0.883569         223.678         68.2192 
       0.889708         221.942          67.183 
       0.895864         219.328         66.1659 
       0.902008         218.788         65.1723 
       0.908149         217.705         64.1999 
       0.914301         215.229          63.246 
       0.920448          213.61         62.3127 
       0.926574         212.625         61.4016 
       0.932687         211.928          60.511 
       0.938823         209.516          59.635 
       0.944975         207.925         58.7745 
       0.951105         207.055         57.9343 
       0.957225         204.776         57.1121 
       0.963368         202.811         56.3034 
       0.969511         201.989         55.5104 
       0.975621         200.636         54.7372 
       0.981748         200.458         53.9769 
       0.987916           197.9         53.2265 
        0.99406         196.675         52.4933 
        1.00019         196.289         51.7756 
        1.00632         194.448         51.0721 
        1.01246         193.242         50.3808 
        1.01859         192.014         49.7036 
        1.02471         190.853         49.0398 
        1.03085         188.745          48.386 
        1.03698         187.712         47.7457 
        1.04314           186.6         47.1144 
        1.04929         185.102         46.4961 
        1.05541         184.563         45.8916 
        1.06154         183.197         45.2964 
        1.06769         182.993          44.711 
        1.07382         181.555          44.138 
        1.07993         180.034         43.5765 
        1.08607         178.938         43.0225 
        1.09222         177.997         42.4777 
        1.09836         176.417          41.943 
        1.10449         175.084         41.4183 
        1.11063         173.962         40.9021 
        1.11677         173.583          40.395 
         1.1229         171.756         39.8974 
        1.12903         171.013         39.4078 
        1.13518         170.665         38.9262 
        1.14131         168.932         38.4529 
        1.14745         168.368         37.9878 
        1.15359         167.044         37.5305 
        1.15973         166.739         37.0805 
        1.16584          164.96           36.64 
        1.17197         164.276          36.206 
        1.17811         163.352         35.7779 
        1.18424          162.39         35.3579 
        1.19038         161.811         34.9436 
        1.19652         160.687         34.5362 
        1.20267         159.753         34.1353 
        1.20881         158.565         33.7409 
        1.21495         157.763         33.3534 
        1.22108         157.105         32.9721 
         1.2272         155.784         32.5978 
        1.23334         154.972         32.2285 
        1.23949         153.389          31.864 
        1.24562         153.137         31.5063 
        1.25174         151.374         31.1547 
        1.25789         150.961         30.8074 
        1.26402         150.333         30.4661 
        1.27014         149.264         30.1309 
        1.27628         148.584         29.7998 
        1.28244         147.863          29.473 
        1.28858         147.141         29.1516 
        1.29471         145.565         28.8358 
        1.30084         145.014         28.5251 
        1.30697         144.282         28.2184 
        1.31312         143.943         27.9159 
        1.31925         142.596         27.6188 
        1.32537         142.131         27.3264 
        1.33151         140.634         27.0372 
        1.33765         140.316         26.7524 
        1.34378          139.29         26.4722 
        1.34992         139.057          26.196 
        1.35606         138.043         25.9231 
         1.3622         137.185         25.6546 
        1.36833         136.385         25.3906 
        1.37445         135.416         25.1305 
        1.38059         135.205         24.8733 
        1.38675          134.03         24.6191 
        1.39288          133.58         24.3694 
        1.39901         133.031         24.1234 
        1.40515          132.21         23.8803 
         1.4113         130.756         23.6406 
        1.41742         130.676         23.4052 
        1.42355         129.679         23.1725 
         1.4297         128.921         22.9423 
        1.43585         127.931         22.7154 
        1.44198          127.82         22.4924 
        1.44809         126.722         22.2729 
        1.45423         125.789         22.0555 
        1.46036         125.581         21.8415 
        1.46649         124.879         21.6302 
        1.47263         124.338         21.4215 
        1.47877         123.642         21.2158 
        1.48491         122.615         21.0124 
        1.49104         122.062         20.8122 
        1.49718         121.149         20.6144 
        1.50333         120.669          20.419 
        1.50947         119.946         20.2264 
         1.5156         119.517         20.0367 
        1.52172         118.627         19.8494 
        1.52787         118.317         19.6642 
          1.534         117.627         19.4816 
        1.54013         116.685         19.3015 
        1.54627          116.16         19.1234 
        1.55241         115.544         18.9475 
        1.55855           115.1         18.7741 
        1.56467         114.419         18.6033 
         1.5708         113.662         18.4342 
        1.57695          113.38          18.267 
        1.58308         112.274         18.1023 
        1.58922         112.229         17.9395 
        1.59535         111.493         17.7788 
         1.6015         110.945         17.6198 
        1.60764          110.19         17.4629 
        1.61376         109.827         17.3083 
        1.61989         109.175         17.1555 
        1.62604         108.507         17.0042 
        1.63218         108.159         16.8549 
        1.63831         107.337         16.7076 
        1.64444         106.859         16.5621 
        1.65059          106.18          16.418 
        1.65673         105.433         16.2758 
        1.66285         105.298         16.1357 
        1.66898         104.456         15.9972 
        1.67512         103.969         15.8601 
        1.68127          103.34         15.7244 
         1.6874         102.788         15.5907 
        1.69353         102.262         15.4586 
        1.69967         101.744         15.3277 
        1.70581         101.325         15.1984 
        1.71193         100.932         15.0711 
        1.71806         100.023          14.945 
        1.72421         99.7425         14.8201 
        1.73035         99.0428         14.6968 
        1.73649         98.5458         14.5749 
        1.74262         98.0877         14.4545 
        1.74876         97.6383         14.3355 
        1.75489         96.8963          14.218 
        1.76101         96.6227         14.1018 
        1.76715         95.9425         13.9868 
        1.77329         95.6049          13.873 
        1.77943         95.0569         13.7604 
        1.78557         94.6809         13.6492 
        1.79171         94.0425         13.5393 
        1.79785         93.6184         13.4305 
        1.80399         93.1842          13.323 
        1.81012         92.7516         13.2168 
        1.81625         92.1063         13.1118 
        1.82239         91.7579         13.0078 
        1.82853         91.4644          12.905 
        1.83466         90.7324         12.8034 
        1.84078         90.5158          12.703 
        1.84692         89.7701         12.6035 
        1.85306         89.3006          12.505 
         1.8592         88.7427         12.4077 
        1.86533         88.4253         12.3115 
        1.87147         87.7137         12.2163 
        1.87761         87.4854         12.1219 
        1.88375          87.134         12.0288 
        1.88988         86.6219         11.9366 
        1.89601         86.1128         11.8455 
        1.90215         85.7832         11.7551 
        1.90829         85.3621         11.6658 
        1.91442          84.871         11.5774 
        1.92056         84.3086         11.4901 
         1.9267         84.0253         11.4035 
        1.93284         83.2935         11.3178 
        1.93897         83.0222         11.2331 
        1.94509          82.549         11.1495 
        1.95123         82.1409         11.0665 
        1.95737         82.0345         10.9843 
        1.96349         81.3479         10.9032 
        1.96964         80.8327         10.8226 
        1.97578         80.6958         10.7429 
        1.98192         80.1358         10.6641 
        1.98805          79.774         10.5861 
        1.99419         79.1833         10.5089 
        2.00033         78.9656         10.4324 
        2.00647         78.5917         10.3567 
         2.0126         78.0236         10.2819 
        2.01874         77.6015         10.2077 
        2.02488         77.3939         10.1342 
        2.03101         77.0428         10.0616 
        2.03714         76.4128          9.9897 
        2.04328          76.169         9.91846 
        2.04941         75.6046         9.84799 
        2.05554          75.343         9.77825 
        2.06167         75.0457          9.7091 
        2.06781         74.5805         9.64061 
        2.07396         74.1901          9.5727 
        2.08009         73.8954         9.50555 
        2.08622         73.5112         9.43913 
        2.09237          73.139         9.37322 
        2.09851         72.8731         9.30794 
        2.10464         72.4021         9.24338 
        2.11077         71.9183         9.17953 
        2.11691         71.6882         9.11613 
        2.12305         71.2932         9.05334 
        2.12918         70.9308          8.9913 
        2.13531         70.5662         8.92983 
        2.14145          70.154          8.8688 
         2.1476         69.9627         8.80828 
        2.15372         69.5656         8.74862 
        2.15985         69.1612         8.68946 
        2.16599         68.8174         8.63069 
        2.17213         68.4986         8.57252 
        2.17827         68.1549         8.51491 
         2.1844         67.6782         8.45788 
        2.19054         67.3931         8.40136 
        2.19666          67.132         8.34543 
         2.2028          66.935         8.28997 
        2.20893         66.5197         8.23499 
        2.21508         66.1078         8.18045 
        2.22122         65.9427         8.12638 
        2.22736          65.489         8.07292 
        2.23349         65.2263         8.01996 
        2.23962          64.778         7.96745 
        2.24577         64.3999         7.91536 
         2.2519         64.1889         7.86382 
        2.25802         63.8716         7.81282 
        2.26417         63.4943         7.76213 
        2.27031         63.2671         7.71185 
        2.27644         62.8667         7.66216 
        2.28257         62.5637         7.61292 
        2.28872         62.3232         7.56401 
        2.29486         62.0518         7.51556 
        2.30099         61.6969         7.46762 
        2.30712         61.4246         7.42009 
        2.31326         61.0133         7.37289 
         2.3194         60.8459         7.32614 
        2.32553         60.4055         7.27987 
        2.33166         60.0981         7.23402 
         2.3378          59.823          7.1885 
        2.34394         59.3797         7.14337 
        2.35007         59.1695         7.09869 
        2.35619         58.9635         7.05444 
        2.36233         58.7689         7.01048 
        2.36848         58.3348         6.96679 
        2.37462         58.0772         6.92358 
        2.38075         57.8238         6.88077 
        2.38689         57.5643          6.8383 
        2.39303         57.3259         6.79619 
        2.39916         57.1413         6.75448 
        2.40529         56.7358         6.71312 
        2.41143         56.4511         6.67209 
        2.41757         56.1817         6.63138 
         2.4237          55.898         6.59109 
        2.42983         55.5586         6.55114 
        2.43598         55.2936         6.51142 
        2.44211         55.0468         6.47209 
        2.44823         54.8003         6.43318 
        2.45437         54.4764         6.39448 
        2.46052         54.1552         6.35608 
        2.46665         53.9511         6.31805 
        2.47279         53.7273         6.28036 
        2.47892         53.5406         6.24294 
        2.48507         53.2006          6.2058 
         2.4912          53.029         6.16904 
