# k  (h/Mpc)    P(k)  (Mpc/h)^3    P_linear(k)  (Mpc/h)^3
     0.00783031         8056.04         8178.73 
       0.013688         10147.4         10104.1 
       0.019231           10301         10296.9 
      0.0249154         9479.89         9631.16 
      0.0312784         8430.43         8495.87 
      0.0375637         7395.61         7396.58 
      0.0433917         6482.81         6570.61 
      0.0492413         5915.85         5951.79 
      0.0555754         5333.75         5458.81 
      0.0619321          5061.1         5054.46 
       0.067871         4592.45         4685.87 
      0.0738098         4206.49         4292.72 
      0.0800417          3752.1         3859.24 
      0.0862327          3382.1         3440.03 
      0.0921407         3072.02         3085.04 
      0.0982031         2762.69         2788.64 
       0.104506         2593.51         2556.66 
       0.110769         2415.03         2388.15 
       0.116806         2268.71         2260.52 
       0.122832         2163.03         2143.68 
       0.129052         2004.38         2016.86 
       0.135211            1879         1879.06 
       0.141259         1770.63         1736.72 
       0.147318         1650.82         1597.74 
       0.153489         1512.59         1470.89 
       0.159709         1426.84         1365.01 
       0.165845         1369.08         1282.95 
       0.171974         1292.49         1218.83 
       0.178125         1235.18         1165.14 
       0.184229         1187.04         1115.11 
        0.19034         1109.41          1063.1 
       0.196428         1081.71         1007.57 
       0.202534         1038.74         949.446 
       0.208729         981.384         891.327 
       0.214876         927.562         838.054 
       0.220989         897.035         791.801 
       0.227147         850.916         752.608 
        0.23329         818.378         719.849 
       0.239377          801.42         691.591 
       0.245482         749.886         665.187 
       0.251667         741.836         638.593 
       0.257832         713.931         611.398 
       0.263955         688.236         583.874 
       0.270079         662.428         556.641 
        0.27624         652.412         530.635 
       0.282372         624.838         506.954 
        0.28843         609.082         486.072 
       0.294538         580.382         467.394 
       0.300721         576.915          450.36 
        0.30691          550.55         434.492 
       0.313033         539.168         419.325 
       0.319153         522.066          404.34 
       0.325316         506.855         389.325 
        0.33145          491.73          374.64 
       0.337538         484.983         360.587 
       0.343633         469.153         347.307 
       0.349808         453.856         334.828 
       0.355968         449.169         323.345 
       0.362074         439.728         312.814 
       0.368217         427.768         302.856 
       0.374374         411.266          293.32 
       0.380519         407.041          284.09 
       0.386598         397.052         275.163 
       0.392688         393.733         266.446 
        0.39888         382.603         257.857 
       0.405048         374.415         249.659 
       0.411186         366.998         241.919 
       0.417313         360.302         234.613 
       0.423458         353.565         227.692 
       0.429607         346.116         221.123 
       0.435692         337.259         214.903 
       0.441815         334.744         208.868 
       0.447964         328.261         203.003 
       0.454126         316.852         197.299 
       0.460267         313.026         191.791 
       0.466387         309.432         186.497 
        0.47254         302.634         181.384 
       0.478662         301.353         176.507 
       0.484765         292.273         171.851 
       0.490885         288.656         167.381 
       0.497035         284.211         163.066 
       0.503198         277.894         158.898 
       0.509342         275.359         154.878 
       0.515458          271.92         151.006 
       0.521598         267.142         147.241 
       0.527764         262.726          143.58 
       0.533884         259.739         140.067 
           0.54          256.02         136.678 
       0.546137         254.706         133.399 
       0.552299         249.563         130.224 
       0.558452         246.883         127.164 
       0.564573         242.898          124.22 
       0.570708         238.516         121.362 
       0.576825         235.365         118.601 
       0.582926          232.52         115.933 
       0.589034         229.723         113.341 
       0.595184         227.428          110.81 
       0.601379         225.117         108.339 
       0.607522         220.628         105.964 
       0.613639         219.555         103.673 
       0.619772         214.605         101.446 
       0.625918         213.047         99.2835 
       0.632068         210.346         97.1838 
       0.638161         209.191         95.1641 
         0.6443         205.772         93.1867 
       0.650464          203.83         91.2576 
       0.656582         202.127         89.3967 
       0.662703         199.801         87.5872 
       0.668861         196.688          85.818 
       0.675024         194.455         84.0971 
       0.681124         193.582         82.4418 
       0.687237          190.49         80.8284 
       0.693381         187.844         79.2512 
       0.699536         186.543         77.7138 
       0.705665         186.033          76.224 
       0.711789         182.536         74.7747 
       0.717957         181.777         73.3533 
        0.72409         179.417         71.9768 
       0.730186         176.892         70.6442 
       0.736317         175.675         69.3384 
       0.742472         174.645          68.061 
       0.748622         173.134         66.8172 
        0.75476         171.615         65.6075 
       0.760888         169.248         64.4298 
       0.767043          168.51         63.2766 
       0.773185         166.724         62.1542 
       0.779291         164.058         61.0656 
       0.785407         163.328         60.0016 
       0.791564         161.822         58.9564 
       0.797719         159.704         57.9368 
       0.803834         158.974         56.9478 
       0.809972         157.195         55.9786 
       0.816124         157.054         55.0299 
       0.822261         154.941         54.1059 
       0.828378         153.537         53.2061 
       0.834502         153.264         52.3261 
       0.840667          150.91         51.4604 
       0.846816         149.687         50.6169 
       0.852925         148.744         49.7977 
       0.859047         147.077         48.9951 
       0.865192         146.196         48.2077 
       0.871341         144.719         47.4371 
       0.877463         143.623          46.687 
       0.883569         142.602         45.9551 
       0.889708         141.552         45.2353 
       0.895864         140.119         44.5291 
       0.902008         139.276         43.8395 
       0.908149         138.547         43.1651 
       0.914301         137.023         42.5038 
       0.920448          136.08         41.8571 
       0.926574         135.317         41.2262 
       0.932687         134.734         40.6097 
       0.938823         132.882         40.0036 
       0.944975         131.747         39.4086 
       0.951105         131.135         38.8279 
       0.957225         129.564         38.2599 
       0.963368         128.669         37.7014 
       0.969511         128.277         37.1541 
       0.975621         127.652         36.6206 
       0.981748         126.775         36.0963 
       0.987916         125.342          35.579 
        0.99406         124.669         35.0739 
        1.00019         123.906         34.5795 
        1.00632         123.009         34.0952 
        1.01246          122.15         33.6195 
        1.01859         120.769         33.1536 
        1.02471         120.672         32.6972 
        1.03085         119.405         32.2478 
        1.03698         118.604         31.8078 
        1.04314         117.591         31.3742 
        1.04929          116.91         30.9498 
        1.05541         116.192         30.5349 
        1.06154         115.467         30.1267 
        1.06769         115.182         29.7253 
        1.07382         114.443         29.3326 
        1.07993         113.519         28.9479 
        1.08607         112.614         28.5686 
        1.09222         112.104         28.1957 
        1.09836         111.165         27.8299 
        1.10449         110.473          27.471 
        1.11063         109.793         27.1182 
        1.11677         109.326         26.7716 
         1.1229         108.118         26.4318 
        1.12903         107.331         26.0975 
        1.13518         107.514         25.7688 
        1.14131         106.491          25.446 
        1.14745         105.642         25.1289 
        1.15359         105.044         24.8172 
        1.15973         104.716         24.5106 
        1.16584         103.781         24.2106 
        1.17197         103.229         23.9152 
        1.17811         102.575         23.6239 
        1.18424         101.909         23.3382 
        1.19038          101.34         23.0565 
        1.19652         100.789         22.7796 
        1.20267         100.052         22.5072 
        1.20881         99.4483         22.2393 
        1.21495         98.7732         21.9762 
        1.22108         98.2643         21.7175 
         1.2272         97.5096         21.4635 
        1.23334         97.1086          21.213 
        1.23949         96.2341         20.9659 
        1.24562         96.0276         20.7235 
        1.25174         95.2568         20.4852 
        1.25789         94.8147           20.25 
        1.26402         94.4055         20.0188 
        1.27014          93.537         19.7919 
        1.27628         93.2939         19.5678 
        1.28244         92.5138         19.3468 
        1.28858         92.2027         19.1294 
        1.29471         91.5467         18.9159 
        1.30084         90.9872         18.7059 
        1.30697          90.482         18.4987 
        1.31312         90.0931         18.2944 
        1.31925         89.5386         18.0939 
        1.32537         89.1624         17.8965 
        1.33151         88.2912         17.7014 
        1.33765         87.8536         17.5093 
        1.34378         87.3018         17.3205 
        1.34992         87.1311         17.1343 
        1.35606         86.5828         16.9505 
         1.3622         85.7868         16.7696 
        1.36833         85.6189         16.5919 
        1.37445         85.0053         16.4169 
        1.38059         84.4952         16.2438 
        1.38675         83.9674         16.0728 
        1.39288         83.4648          15.905 
        1.39901         83.3469         15.7396 
        1.40515         82.8313         15.5763 
         1.4113         82.1355         15.4153 
        1.41742         82.0302         15.2572 
        1.42355         81.2867          15.101 
         1.4297         80.9307         14.9466 
        1.43585         80.3134         14.7943 
        1.44198         80.0782         14.6448 
        1.44809         79.5962         14.4976 
        1.45423         79.1431         14.3519 
        1.46036          78.913         14.2085 
        1.46649         78.3863          14.067 
        1.47263         77.9411         13.9273 
        1.47877         77.7075         13.7895 
        1.48491         77.1783         13.6534 
        1.49104         76.7182         13.5195 
        1.49718         76.2762         13.3872 
        1.50333         75.8813         13.2565 
        1.50947         75.4106         13.1278 
         1.5156          75.157          13.001 
        1.52172         74.6833         12.8759 
        1.52787         74.5085         12.7522 
          1.534          74.036         12.6302 
        1.54013         73.4965           12.51 
        1.54627         73.1934         12.3911 
        1.55241         72.7527         12.2738 
        1.55855         72.3938         12.1581 
        1.56467         71.8906         12.0443 
         1.5708         71.7214         11.9316 
        1.57695         71.4526         11.8201 
        1.58308         70.8133         11.7104 
        1.58922         70.7094         11.6019 
        1.59535         70.4237         11.4949 
         1.6015         69.8008         11.3891 
        1.60764         69.6056         11.2847 
        1.61376         69.1474         11.1818 
        1.61989         68.7652         11.0802 
        1.62604         68.5438         10.9796 
        1.63218          68.286         10.8803 
        1.63831         67.8015         10.7825 
        1.64444         67.4667         10.6858 
        1.65059         66.9658         10.5901 
        1.65673         66.7972         10.4957 
        1.66285         66.4223         10.4027 
        1.66898         66.0898         10.3108 
        1.67512         65.6415         10.2198 
        1.68127          65.309         10.1298 
         1.6874         65.0654         10.0411 
        1.69353         64.7542         9.95355 
        1.69967         64.3589         9.86681 
        1.70581         64.2067         9.78115 
        1.71193         63.9666         9.69682 
        1.71806         63.3623         9.61331 
        1.72421         63.2453         9.53062 
        1.73035         62.8369           9.449 
        1.73649         62.4351         9.36835 
        1.74262         62.2736         9.28871 
        1.74876         61.9578         9.20994 
        1.75489         61.5634         9.13224 
        1.76101          61.362         9.05547 
        1.76715          60.932         8.97947 
        1.77329         60.7274         8.90425 
        1.77943         60.3516         8.82987 
        1.78557         60.1697         8.75644 
        1.79171         59.8142         8.68383 
        1.79785         59.5885         8.61203 
        1.80399         59.2307         8.54106 
        1.81012         59.0844         8.47099 
        1.81625         58.5003         8.40173 
        1.82239         58.3157         8.33314 
        1.82853         57.9441         8.26535 
        1.83466         57.7834         8.19838 
        1.84078         57.3612         8.13223 
        1.84692         57.0924         8.06669 
        1.85306         56.8899          8.0018 
         1.8592         56.4772         7.93773 
        1.86533         56.3123         7.87439 
        1.87147         55.9944         7.81167 
        1.87761         55.7872         7.74961 
        1.88375         55.5482         7.68829 
        1.88988         55.4208         7.62771 
        1.89601         54.9389         7.56774 
        1.90215         54.7136         7.50837 
        1.90829          54.558         7.44967 
        1.91442          54.213         7.39158 
        1.92056         53.8774         7.33417 
         1.9267          53.614         7.27731 
        1.93284         53.3687         7.22101 
        1.93897         53.1044         7.16542 
        1.94509         52.7697         7.11053 
        1.95123          52.659         7.05608 
        1.95737         52.4276         7.00216 
        1.96349         52.1077         6.94894 
        1.96964         51.9769         6.89612 
        1.97578         51.6251         6.84382 
        1.98192         51.4183         6.79218 
        1.98805         51.2284         6.74106 
        1.99419         50.8469         6.69046 
        2.00033         50.6488         6.64036 
        2.00647         50.4547         6.59078 
         2.0126         50.1233          6.5418 
        2.01874          49.905         6.49323 
        2.02488         49.7806         6.44512 
        2.03101         49.4306         6.39758 
        2.03714          49.191         6.35057 
        2.04328         48.9523         6.30398 
        2.04941         48.6623         6.25789 
        2.05554         48.3765         6.21229 
        2.06167         48.3421         6.16709 
        2.06781         48.0884         6.12233 
        2.07396         47.7683         6.07795 
        2.08009         47.6183         6.03409 
        2.08622         47.2872         5.99071 
        2.09237         47.1038         5.94767 
        2.09851         46.8988         5.90504 
        2.10464         46.6603          5.8629 
        2.11077         46.4974         5.82123 
        2.11691         46.2005         5.77987 
        2.12305         45.9359          5.7389 
        2.12918         45.7118         5.69844 
        2.13531         45.5205         5.65836 
        2.14145         45.3341         5.61857 
         2.1476         45.1488         5.57912 
        2.15372         44.8583         5.54024 
        2.15985         44.6909          5.5017 
        2.16599         44.5507         5.46341 
        2.17213         44.3984         5.42553 
        2.17827          44.082         5.38802 
         2.1844         43.8224         5.35089 
        2.19054         43.6047          5.3141 
        2.19666         43.4521         5.27771 
         2.2028         43.2738         5.24163 
        2.20893         43.1157         5.20586 
        2.21508         42.9286         5.17039 
        2.22122         42.6516         5.13524 
        2.22736          42.439         5.10049 
        2.23349         42.3213         5.06606 
        2.23962         41.9769         5.03194 
        2.24577         41.8159          4.9981 
         2.2519         41.6182         4.96461 
        2.25802         41.5508         4.93149 
        2.26417         41.2774         4.89858 
        2.27031         41.1404         4.86593 
        2.27644         40.7924         4.83368 
        2.28257         40.7024         4.80173 
        2.28872         40.4144            4.77 
        2.29486         40.3052         4.73856 
        2.30099         40.1408         4.70747 
        2.30712          39.954         4.67665 
        2.31326         39.7846         4.64605 
         2.3194         39.5436         4.61574 
        2.32553         39.4037         4.58575 
        2.33166         39.1982         4.55604 
         2.3378         38.9697         4.52656 
        2.34394         38.7054         4.49732 
        2.35007         38.5852         4.46839 
        2.35619         38.5264         4.43974 
        2.36233         38.3645         4.41128 
        2.36848         38.0242           4.383 
        2.37462          37.993         4.35504 
        2.38075         37.7637         4.32734 
        2.38689         37.6811         4.29987 
        2.39303         37.4556         4.27263 
        2.39916         37.2499         4.24566 
        2.40529         37.0017         4.21892 
        2.41143         36.9127          4.1924 
        2.41757         36.7901         4.16609 
         2.4237         36.6064         4.14005 
        2.42983         36.4386         4.11424 
        2.43598         36.2013         4.08858 
        2.44211         36.0691         4.06318 
        2.44823         35.9093         4.03805 
        2.45437         35.8017         4.01307 
        2.46052         35.5391         3.98828 
        2.46665         35.4491         3.96374 
        2.47279         35.2818         3.93941 
        2.47892         35.0738         3.91527 
        2.48507         34.9359         3.89132 
         2.4912         34.7902          3.8676 
