# k  (h/Mpc)    Pcb(k)  (Mpc/h)^3    Pcb_linear(k)  (Mpc/h)^3
     0.00783031         11153.8           11302 
       0.013688         14790.8         14683.6 
       0.019231         15625.4         15631.1 
      0.0249154         14919.5           15243 
      0.0312784         13809.9         14007.9 
      0.0375637           12494         12577.7 
      0.0433917         11093.2         11379.7 
      0.0492413         10242.6         10410.2 
      0.0555754         9229.66         9606.78 
      0.0619321         8867.34          8964.8 
       0.067871         8088.06         8416.48 
      0.0738098         7534.46         7851.64 
      0.0800417         6830.11         7217.64 
      0.0862327         6287.73         6567.04 
      0.0921407         5800.96         5969.92 
      0.0982031         5248.51         5424.73 
       0.104506          4940.7         4958.76 
       0.110769         4580.26          4600.5 
       0.116806         4294.92         4335.62 
       0.122832         4097.56         4120.33 
       0.129052         3816.62         3917.29 
       0.135211         3630.87         3710.87 
       0.141259         3481.55          3492.8 
       0.147318         3293.94         3262.61 
       0.153489         3036.06          3029.1 
       0.159709         2882.03          2810.7 
       0.165845         2781.01         2623.78 
       0.171974         2620.97         2470.03 
       0.178125         2495.96         2345.94 
       0.184229         2398.87         2244.57 
        0.19034         2265.78         2154.52 
       0.196428         2229.01         2066.99 
       0.202534         2150.64         1975.59 
       0.208729         2059.54         1877.83 
       0.214876         1972.92         1778.38 
       0.220989         1914.58         1681.79 
       0.227147         1828.17         1591.66 
        0.23329         1760.27         1512.12 
       0.239377         1737.07          1444.4 
       0.245482          1631.2         1386.25 
       0.251667         1624.09         1334.44 
       0.257832         1564.22         1286.55 
       0.263955         1515.31         1239.95 
       0.270079          1468.2         1192.67 
        0.27624         1454.42         1144.26 
       0.282372         1392.68         1096.13 
        0.28843          1385.6         1050.07 
       0.294538         1319.89         1006.53 
       0.300721         1315.63         966.317 
        0.30691         1262.96         930.188 
       0.313033         1240.16         897.983 
       0.319153         1220.87         868.447 
       0.325316         1180.84         840.308 
        0.33145         1155.36         813.091 
       0.337538         1140.28         786.337 
       0.343633         1112.98         759.783 
       0.349808         1078.72         733.334 
       0.355968         1072.91         707.847 
       0.362074         1061.02         683.872 
       0.368217         1030.42         661.288 
       0.374374         992.483         640.274 
       0.380519         992.752          620.73 
       0.386598         969.613         602.548 
       0.392688         966.325         585.165 
        0.39888         939.163         568.054 
       0.405048          927.64         551.438 
       0.411186          914.45         535.256 
       0.417313         896.371         519.517 
       0.423458         883.435         504.268 
       0.429607          869.84         489.636 
       0.435692         852.996         475.851 
       0.441815         848.897         462.695 
       0.447964         830.539         450.142 
       0.454126         820.262         438.139 
       0.460267         804.707         426.661 
       0.466387         795.576         415.608 
        0.47254         786.219         404.812 
       0.478662         781.955         394.372 
       0.484765         762.153         384.271 
       0.490885         756.937         374.459 
       0.497035         741.736         364.942 
       0.503198         736.352         355.775 
       0.509342         728.663         347.005 
       0.515458         725.039         338.615 
       0.521598         709.538         330.504 
       0.527764         694.402         322.645 
       0.533884          695.16           315.1 
           0.54         686.604         307.788 
       0.546137         683.079         300.658 
       0.552299         672.661         293.707 
       0.558452         669.308         286.979 
       0.564573         659.231         280.498 
       0.570708         652.715         274.212 
       0.576825         635.729         268.147 
       0.582926         638.434         262.295 
       0.589034         632.869         256.624 
       0.595184          626.35         251.094 
       0.601379         619.244         245.693 
       0.607522         610.916         240.491 
       0.613639         611.705         235.455 
       0.619772          595.85         230.546 
       0.625918         594.274         225.765 
       0.632068         587.041          221.12 
       0.638161         585.147         216.649 
         0.6443         573.862         212.275 
       0.650464         572.309          208.01 
       0.656582         570.605         203.895 
       0.662703         566.389         199.892 
       0.668861         556.543         195.976 
       0.675024         552.827         192.163 
       0.681124         549.888         188.491 
       0.687237         545.092         184.909 
       0.693381         538.878         181.403 
       0.699536         531.212         177.981 
       0.705665          530.52         174.664 
       0.711789         526.069         171.434 
       0.717957         521.492         168.265 
        0.72409         518.278         165.195 
       0.730186         512.357         162.221 
       0.736317         508.691         159.306 
       0.742472         507.082         156.454 
       0.748622         501.181         153.674 
        0.75476         495.036         150.969 
       0.760888         490.225         148.334 
       0.767043         490.899         145.751 
       0.773185         484.787         143.236 
       0.779291         480.066         140.795 
       0.785407         476.791         138.407 
       0.791564          471.82         136.061 
       0.797719         469.596          133.77 
       0.803834         466.141         131.548 
       0.809972         463.529         129.368 
       0.816124         463.356         127.234 
       0.822261         456.032         125.154 
       0.828378         453.843         123.128 
       0.834502         450.197         121.145 
       0.840667         445.582         119.193 
       0.846816          443.97          117.29 
       0.852925         439.634         115.441 
       0.859047         439.664         113.629 
       0.865192         434.898          111.85 
       0.871341         431.441         110.108 
       0.877463         429.487         108.411 
       0.883569         426.166         106.755 
       0.889708         423.409         105.126 
       0.895864         419.557         103.526 
       0.902008         417.746         101.963 
       0.908149         414.757         100.434 
       0.914301         410.604         98.9344 
       0.920448         407.918         97.4667 
       0.926574         403.302         96.0342 
       0.932687         403.865         94.6338 
       0.938823         399.006         93.2566 
       0.944975         399.155         91.9038 
       0.951105         394.342          90.583 
       0.957225         391.615         89.2906 
       0.963368         387.804         88.0193 
       0.969511         386.273         86.7728 
       0.975621         383.235         85.5574 
       0.981748         382.949         84.3624 
       0.987916         379.833         83.1829 
        0.99406         373.858         82.0305 
        1.00019         373.946         80.9024 
        1.00632          371.59         79.7967 
        1.01246          368.56         78.7102 
        1.01859         368.949         77.6458 
        1.02471         363.936         76.6026 
        1.03085         361.412         75.5751 
        1.03698         360.515         74.5687 
        1.04314          357.32         73.5766 
        1.04929         354.177         72.6049 
        1.05541         353.899         71.6548 
        1.06154         349.236         70.7194 
        1.06769         347.666         69.7995 
        1.07382         346.075         68.8991 
        1.07993         343.694         68.0168 
        1.08607         342.856         67.1463 
        1.09222         339.981         66.2904 
        1.09836          337.47         65.4504 
        1.10449         334.192         64.6261 
        1.11063         331.669         63.8152 
        1.11677         331.379         63.0186 
         1.1229         329.496          62.237 
        1.12903         326.494         61.4682 
        1.13518          324.13         60.7117 
        1.14131         322.568         59.9686 
        1.14745         321.184         59.2383 
        1.15359         318.561         58.5202 
        1.15973         317.202         57.8137 
        1.16584          314.53         57.1222 
        1.17197          313.99         56.4411 
        1.17811         311.053         55.7691 
        1.18424          308.69           55.11 
        1.19038         307.405         54.4598 
        1.19652         305.141         53.8203 
        1.20267         304.536         53.1912 
        1.20881         302.365         52.5724 
        1.21495         299.809         51.9644 
        1.22108         298.577         51.3662 
         1.2272         296.552         50.7789 
        1.23334         294.588         50.1995 
        1.23949         293.404         49.6278 
        1.24562         291.692         49.0666 
        1.25174         288.602         48.5151 
        1.25789         286.842         47.9703 
        1.26402          285.78         47.4349 
        1.27014         283.722         46.9091 
        1.27628         282.328         46.3897 
        1.28244         281.589         45.8772 
        1.28858         278.775         45.3731 
        1.29471         276.371         44.8778 
        1.30084          275.52         44.3904 
        1.30697         273.705         43.9095 
        1.31312         271.516         43.4351 
        1.31925         271.551         42.9692 
        1.32537          269.94         42.5107 
        1.33151         267.243         42.0573 
        1.33765         265.525         41.6107 
        1.34378         264.616         41.1716 
        1.34992         263.002         40.7386 
        1.35606         262.593         40.3108 
         1.3622         260.514           39.89 
        1.36833         258.137         39.4763 
        1.37445         256.884         39.0687 
        1.38059         254.779         38.6656 
        1.38675         254.124         38.2672 
        1.39288         251.903         37.8761 
        1.39901         251.544         37.4907 
        1.40515         249.555         37.1098 
         1.4113         247.975         36.7343 
        1.41742          246.87         36.3655 
        1.42355         244.456         36.0012 
         1.4297         243.473         35.6407 
        1.43585         241.892         35.2853 
        1.44198         240.683         34.9362 
        1.44809         239.766         34.5925 
        1.45423         237.563         34.2521 
        1.46036         236.971         33.9169 
        1.46649         234.938         33.5862 
        1.47263         233.352         33.2596 
        1.47877         232.409         32.9375 
        1.48491         230.781         32.6192 
        1.49104         229.913         32.3058 
        1.49718         227.693         31.9962 
        1.50333         226.868         31.6903 
        1.50947          225.66          31.389 
         1.5156         223.745         31.0921 
        1.52172         222.793          30.799 
        1.52787         221.338         30.5092 
          1.534         220.633         30.2234 
        1.54013         218.658         29.9416 
        1.54627         218.129         29.6629 
        1.55241         216.207         29.3878 
        1.55855         215.103         29.1165 
        1.56467         213.714         28.8494 
         1.5708         213.425         28.5849 
        1.57695         211.123         28.3234 
        1.58308         210.553         28.0657 
        1.58922         208.586         27.8111 
        1.59535          207.33         27.5598 
         1.6015         206.995         27.3112 
        1.60764         205.319         27.0658 
        1.61376         203.635         26.8241 
        1.61989         202.873         26.5852 
        1.62604         201.903         26.3487 
        1.63218          200.74         26.1152 
        1.63831         199.563         25.8851 
        1.64444         198.545         25.6576 
        1.65059         196.945         25.4324 
        1.65673         196.088         25.2102 
        1.66285         195.163         24.9912 
        1.66898         193.877         24.7748 
        1.67512         193.397         24.5605 
        1.68127         191.226         24.3486 
         1.6874         190.124         24.1397 
        1.69353         189.548         23.9333 
        1.69967         188.141         23.7289 
        1.70581         187.111         23.5269 
        1.71193         185.823         23.3281 
        1.71806         185.336         23.1312 
        1.72421         183.937         22.9361 
        1.73035         183.227         22.7435 
        1.73649         182.294         22.5532 
        1.74262         180.852         22.3653 
        1.74876         180.236         22.1793 
        1.75489         178.691         21.9959 
        1.76101          177.77         21.8146 
        1.76715         177.168         21.6351 
        1.77329         176.322         21.4574 
        1.77943         175.056         21.2816 
        1.78557          174.05         21.1081 
        1.79171         173.016         20.9364 
        1.79785         171.918         20.7667 
        1.80399         171.072         20.5989 
        1.81012         170.012         20.4332 
        1.81625         169.297         20.2693 
        1.82239         168.175         20.1071 
        1.82853         167.581         19.9466 
        1.83466          166.48         19.7881 
        1.84078         165.686         19.6315 
        1.84692         164.212         19.4764 
        1.85306         163.875         19.3227 
         1.8592         162.492         19.1709 
        1.86533         161.588         19.0209 
        1.87147         160.666         18.8723 
        1.87761         160.315         18.7252 
        1.88375         158.403         18.5799 
        1.88988         157.905         18.4362 
        1.89601         157.007         18.2941 
        1.90215         156.073         18.1533 
        1.90829         155.497          18.014 
        1.91442         154.707         17.8763 
        1.92056         153.724           17.74 
         1.9267         153.002         17.6051 
        1.93284         152.297         17.4715 
        1.93897         151.113         17.3395 
        1.94509         150.692         17.2092 
        1.95123         149.751         17.0799 
        1.95737         149.111         16.9519 
        1.96349          148.11         16.8255 
        1.96964         146.952            16.7 
        1.97578         146.145         16.5757 
        1.98192         145.571          16.453 
        1.98805         144.426         16.3315 
        1.99419         143.912         16.2112 
        2.00033         143.096          16.092 
        2.00647         142.585         15.9742 
         2.0126         141.335         15.8576 
        2.01874         140.808         15.7421 
        2.02488         140.342         15.6276 
        2.03101          138.99         15.5145 
        2.03714         138.255         15.4026 
        2.04328         137.653         15.2917 
        2.04941         136.813          15.182 
        2.05554         136.043         15.0734 
        2.06167         135.766         14.9658 
        2.06781          135.08         14.8592 
        2.07396         133.916         14.7535 
        2.08009         133.191          14.649 
        2.08622         132.655         14.5456 
        2.09237         131.662          14.443 
        2.09851         131.076         14.3414 
        2.10464         130.423          14.241 
        2.11077         129.835         14.1416 
        2.11691         129.154          14.043 
        2.12305         127.978         13.9453 
        2.12918         127.542         13.8487 
        2.13531         126.845         13.7531 
        2.14145         126.046         13.6582 
         2.1476         125.465          13.564 
        2.15372         124.888         13.4712 
        2.15985         124.393         13.3792 
        2.16599         123.562         13.2878 
        2.17213          122.68         13.1974 
        2.17827         122.421         13.1078 
         2.1844         121.544         13.0191 
        2.19054         120.953         12.9312 
        2.19666         120.358         12.8442 
         2.2028         119.674          12.758 
        2.20893          118.92         12.6726 
        2.21508         118.186         12.5878 
        2.22122         117.745         12.5037 
        2.22736         117.067         12.4206 
        2.23349         116.539         12.3383 
        2.23962         115.777         12.2567 
        2.24577         115.434         12.1758 
         2.2519         114.791         12.0957 
        2.25802         113.756         12.0164 
        2.26417         113.465         11.9377 
        2.27031         112.709         11.8596 
        2.27644         112.166         11.7824 
        2.28257         111.758         11.7059 
        2.28872         111.006         11.6299 
        2.29486         110.494         11.5546 
        2.30099         109.991         11.4802 
        2.30712         109.269         11.4064 
        2.31326         108.719          11.333 
         2.3194         108.076         11.2604 
        2.32553         107.556         11.1886 
        2.33166         107.086         11.1174 
         2.3378         106.504         11.0467 
        2.34394         106.115         10.9766 
        2.35007         105.444         10.9073 
        2.35619         104.788         10.8386 
        2.36233         104.335         10.7703 
        2.36848         103.605         10.7025 
        2.37462         103.197         10.6354 
        2.38075         102.758          10.569 
        2.38689          101.97         10.5031 
        2.39303          101.38         10.4377 
        2.39916         100.917          10.373 
        2.40529         100.669         10.3088 
        2.41143         100.149         10.2452 
        2.41757         99.4262          10.182 
         2.4237         98.9595         10.1195 
        2.42983         98.4514         10.0575 
        2.43598          97.903         9.99589 
        2.44211         97.5262         9.93488 
        2.44823         97.0216         9.87452 
        2.45437         96.3923          9.8145 
        2.46052         95.7824         9.75493 
        2.46665          95.351         9.69595 
        2.47279         94.9045         9.63749 
        2.47892         94.4832         9.57947 
        2.48507         93.9404         9.52187 
         2.4912         93.5352         9.46486 
