# k  (h/Mpc)    Pcb(k)  (Mpc/h)^3    Pcb_linear(k)  (Mpc/h)^3
     0.00783031         6476.18         6551.93 
       0.013688         8560.41         8519.35 
       0.019231          9073.5         9071.17 
      0.0249154         8712.59         8846.95 
      0.0312784         8059.98         8130.61 
      0.0375637         7282.29         7300.75 
      0.0433917         6499.95         6605.53 
      0.0492413          5989.5         6042.89 
      0.0555754         5434.53         5576.57 
      0.0619321         5188.56         5203.96 
       0.067871         4767.73          4885.7 
      0.0738098         4440.87         4557.84 
      0.0800417         4041.35         4189.82 
      0.0862327         3710.02         3812.16 
      0.0921407         3406.17         3465.54 
      0.0982031          3080.4         3149.07 
       0.104506         2880.33         2878.58 
       0.110769          2669.2         2670.61 
       0.116806         2496.54         2516.85 
       0.122832         2386.62         2391.88 
       0.129052         2232.41         2274.01 
       0.135211         2120.12         2154.19 
       0.141259         2023.46          2027.6 
       0.147318         1908.16         1893.97 
       0.153489         1759.79         1758.42 
       0.159709         1660.35         1631.64 
       0.165845         1588.41         1523.13 
       0.171974         1490.33         1433.88 
       0.178125         1419.32         1361.84 
       0.184229         1366.73         1302.99 
        0.19034         1283.41         1250.72 
       0.196428         1261.09         1199.91 
       0.202534         1220.48         1146.85 
       0.208729          1161.8          1090.1 
       0.214876         1101.46         1032.37 
       0.220989         1069.15         976.297 
       0.227147         1009.97         923.977 
        0.23329         970.268         877.802 
       0.239377         950.231          838.49 
       0.245482         890.312         804.733 
       0.251667         882.499         774.656 
       0.257832         852.186         746.856 
       0.263955         824.759         719.806 
       0.270079         798.004         692.358 
        0.27624         788.177         664.255 
       0.282372          754.53          636.32 
        0.28843         736.948         609.577 
       0.294538         703.299         584.301 
       0.300721         699.567         560.959 
        0.30691         668.229         539.986 
       0.313033         655.153          521.29 
       0.319153         635.726         504.145 
       0.325316          617.63         487.809 
        0.33145         600.938         472.009 
       0.337538         594.317         456.479 
       0.343633          575.79         441.064 
       0.349808         558.227          425.71 
       0.355968         553.081         410.914 
       0.362074         541.732         396.996 
       0.368217         527.567         383.886 
       0.374374         508.409         371.687 
       0.380519          502.89         360.342 
       0.386598         491.772         349.787 
       0.392688         488.573         339.696 
        0.39888         474.895         329.763 
       0.405048         466.184         320.117 
       0.411186         457.115         310.723 
       0.417313         449.333         301.587 
       0.423458          441.78         292.734 
       0.429607         432.308          284.24 
       0.435692         422.182         276.238 
       0.441815         419.721           268.6 
       0.447964         411.981         261.313 
       0.454126         398.016         254.345 
       0.460267         393.887         247.683 
       0.466387         389.483         241.266 
        0.47254         381.578         234.999 
       0.478662         379.937         228.938 
       0.484765         369.859         223.075 
       0.490885         365.435         217.379 
       0.497035         359.942         211.854 
       0.503198         352.289         206.532 
       0.509342         349.536         201.441 
       0.515458         345.583          196.57 
       0.521598         340.368         191.862 
       0.527764         334.305           187.3 
       0.533884         331.003          182.92 
           0.54         326.747         178.675 
       0.546137         325.482         174.536 
       0.552299          319.28         170.501 
       0.558452         315.759         166.595 
       0.564573         310.639         162.833 
       0.570708         305.771         159.184 
       0.576825         301.955         155.663 
       0.582926         299.053         152.266 
       0.589034         295.154         148.974 
       0.595184           292.7         145.764 
       0.601379         290.147         142.628 
       0.607522         284.572         139.608 
       0.613639         283.625         136.685 
       0.619772         276.953         133.835 
       0.625918         275.455          131.06 
       0.632068         272.131         128.363 
       0.638161         270.969         125.768 
         0.6443         266.351         123.229 
       0.650464         264.204         120.752 
       0.656582         262.751         118.364 
       0.662703          259.44          116.04 
       0.668861          255.82         113.767 
       0.675024         253.263         111.553 
       0.681124         252.314         109.422 
       0.687237         248.454         107.342 
       0.693381         245.231         105.307 
       0.699536         243.606         103.321 
       0.705665         243.149         101.395 
       0.711789         238.839         99.5198 
       0.717957         237.632         97.6801 
        0.72409         234.938         95.8979 
       0.730186         231.781         94.1718 
       0.736317         230.422         92.4796 
       0.742472         229.251         90.8234 
       0.748622         227.646         89.2099 
        0.75476         225.647         87.6396 
       0.760888         222.652         86.1097 
       0.767043         221.555         84.6106 
       0.773185         219.285         83.1504 
       0.779291         216.005         81.7333 
       0.785407         215.267         80.3474 
       0.791564         213.368         78.9852 
       0.797719         211.013         77.6556 
       0.803834         210.157         76.3653 
       0.809972          207.72         75.1001 
       0.816124         207.888         73.8611 
       0.822261         204.858         72.6537 
       0.828378         203.302         71.4772 
       0.834502         203.023         70.3261 
       0.840667         199.915         69.1931 
       0.846816         198.964         68.0886 
       0.852925         197.221         67.0154 
       0.859047         195.556         65.9632 
       0.865192         194.601         64.9304 
       0.871341         192.477         63.9192 
       0.877463         191.373         62.9344 
       0.883569         189.659         61.9729 
       0.889708          188.57         61.0269 
       0.895864         186.669         60.0983 
       0.902008         185.809         59.1912 
       0.908149          184.82         58.3035 
       0.914301         182.812         57.4328 
       0.920448         181.731         56.5808 
       0.926574         180.835         55.7492 
       0.932687         179.691         54.9362 
       0.938823         177.762         54.1367 
       0.944975         176.582         53.3514 
       0.951105         175.629         52.5847 
       0.957225         173.495         51.8344 
       0.963368         172.473         51.0964 
       0.969511         171.733         50.3728 
       0.975621         170.901         49.6673 
       0.981748         170.127         48.9735 
       0.987916         168.055         48.2888 
        0.99406         167.518         47.6198 
        1.00019         166.408          46.965 
        1.00632         165.202         46.3231 
        1.01246         164.147         45.6924 
        1.01859         162.475         45.0745 
        1.02471          162.52         44.4689 
        1.03085         160.851         43.8724 
        1.03698         159.414         43.2882 
        1.04314         158.538         42.7122 
        1.04929         157.546         42.1481 
        1.05541         156.743         41.5966 
        1.06154         155.654         41.0536 
        1.06769         155.373         40.5196 
        1.07382         154.477         39.9969 
        1.07993         153.354         39.4847 
        1.08607         152.082         38.9794 
        1.09222         151.292         38.4825 
        1.09836         150.107         37.9949 
        1.10449         149.225         37.5164 
        1.11063         148.417         37.0456 
        1.11677         147.806         36.5832 
         1.1229         146.307         36.1295 
        1.12903         145.443         35.6831 
        1.13518         145.511          35.244 
        1.14131         144.058         34.8126 
        1.14745         143.206         34.3887 
        1.15359         142.313         33.9718 
        1.15973         142.009         33.5617 
        1.16584         140.779         33.1602 
        1.17197         140.006         32.7648 
        1.17811         139.287         32.3747 
        1.18424         138.235         31.9921 
        1.19038         137.619         31.6147 
        1.19652         136.916         31.2435 
        1.20267         135.925         30.8783 
        1.20881         135.184          30.519 
        1.21495         134.289         30.1661 
        1.22108          133.62         29.8188 
         1.2272         132.856         29.4779 
        1.23334         132.089         29.1415 
        1.23949         130.711         28.8096 
        1.24562         130.701         28.4839 
        1.25174         129.553         28.1637 
        1.25789         128.994         27.8474 
        1.26402         128.494         27.5366 
        1.27014         127.372         27.2314 
        1.27628         127.039         26.9299 
        1.28244         126.103         26.6323 
        1.28858         125.519         26.3397 
        1.29471         124.618         26.0522 
        1.30084         123.956         25.7692 
        1.30697         123.248         25.4901 
        1.31312         122.946         25.2147 
        1.31925         122.125         24.9442 
        1.32537         121.689         24.6781 
        1.33151         120.434         24.4148 
        1.33765         119.947         24.1556 
        1.34378         119.142         23.9007 
        1.34992         119.002         23.6493 
        1.35606         118.224          23.401 
         1.3622         117.282         23.1567 
        1.36833         116.935         22.9165 
        1.37445         116.055         22.6799 
        1.38059         115.606         22.4459 
        1.38675         114.895         22.2147 
        1.39288         114.208         21.9876 
        1.39901         113.943         21.7639 
        1.40515         113.413         21.5427 
         1.4113         112.138         21.3248 
        1.41742         112.065         21.1107 
        1.42355         111.179         20.8992 
         1.4297         110.652         20.6899 
        1.43585         109.972         20.4836 
        1.44198         109.675         20.2809 
        1.44809         108.799         20.0814 
        1.45423         108.255         19.8838 
        1.46036         107.838         19.6893 
        1.46649         107.275         19.4973 
        1.47263         106.862         19.3077 
        1.47877         106.364         19.1207 
        1.48491         105.596         18.9359 
        1.49104         105.002         18.7539 
        1.49718         104.527         18.5743 
        1.50333         103.908         18.3967 
        1.50947         103.149         18.2217 
         1.5156         103.071         18.0494 
        1.52172         102.216         17.8793 
        1.52787         102.067          17.711 
          1.534         101.554         17.5451 
        1.54013         100.718         17.3815 
        1.54627         100.169         17.2198 
        1.55241         99.6596           17.06 
        1.55855         99.2828         16.9025 
        1.56467         98.6282         16.7475 
         1.5708         98.1566          16.594 
        1.57695         97.8998         16.4421 
        1.58308         97.0505         16.2926 
        1.58922         96.8748         16.1447 
        1.59535         96.4395         15.9988 
         1.6015         95.8019         15.8545 
        1.60764         95.4244         15.7121 
        1.61376         94.7921         15.5718 
        1.61989         94.4007         15.4331 
        1.62604         93.7553         15.2958 
        1.63218          93.627         15.1602 
        1.63831         93.0231         15.0266 
        1.64444          92.604         14.8946 
        1.65059          91.779         14.7639 
        1.65673         91.5268         14.6349 
        1.66285         91.1431         14.5078 
        1.66898         90.6562         14.3821 
        1.67512          90.005         14.2577 
        1.68127         89.5869         14.1347 
         1.6874         89.2167         14.0134 
        1.69353         88.8402         13.8936 
        1.69967         88.2757         13.7749 
        1.70581           87.99         13.6577 
        1.71193         87.6455         13.5423 
        1.71806         86.9334          13.428 
        1.72421         86.7769         13.3147 
        1.73035         86.1531         13.2029 
        1.73649         85.7316         13.0925 
        1.74262         85.3883         12.9833 
        1.74876          84.967         12.8754 
        1.75489         84.4179         12.7689 
        1.76101         84.1311         12.6637 
        1.76715         83.6443         12.5595 
        1.77329         83.2904         12.4563 
        1.77943         82.9589         12.3543 
        1.78557         82.5423         12.2535 
        1.79171         82.0645         12.1539 
        1.79785         81.8239         12.0554 
        1.80399         81.2165         11.9579 
        1.81012         81.0046         11.8617 
        1.81625         80.3799         11.7666 
        1.82239         80.0004         11.6724 
        1.82853         79.6474         11.5793 
        1.83466         79.2667         11.4873 
        1.84078          78.729         11.3964 
        1.84692         78.4829         11.3063 
        1.85306         78.1631         11.2171 
         1.8592         77.5495          11.129 
        1.86533         77.2295         11.0419 
        1.87147          76.838         10.9556 
        1.87761         76.4866         10.8702 
        1.88375         76.3784         10.7859 
        1.88988         75.9684         10.7025 
        1.89601         75.4163           10.62 
        1.90215         75.1252         10.5382 
        1.90829         74.8192         10.4574 
        1.91442         74.3272         10.3774 
        1.92056         74.0236         10.2983 
         1.9267         73.5891           10.22 
        1.93284         73.1245         10.1425 
        1.93897         72.8979         10.0658 
        1.94509         72.3597          9.9902 
        1.95123         72.2088         9.91514 
        1.95737         71.9853          9.8408 
        1.96349         71.5904         9.76742 
        1.96964         71.1854         9.69457 
        1.97578         70.8261         9.62243 
        1.98192         70.6229         9.55118 
        1.98805         70.3006         9.48064 
        1.99419         69.8256         9.41082 
        2.00033         69.5286         9.34166 
        2.00647         69.2466         9.27322 
         2.0126         68.7511         9.20558 
        2.01874         68.4206         9.13852 
        2.02488         68.2789         9.07207 
        2.03101          67.836          9.0064 
        2.03714         67.4465         8.94145 
        2.04328         67.1704         8.87706 
        2.04941          66.801         8.81337 
        2.05554         66.4261         8.75034 
        2.06167         66.3592         8.68785 
        2.06781         65.8859         8.62597 
        2.07396         65.5313          8.5646 
        2.08009          65.353         8.50393 
        2.08622         64.8781         8.44392 
        2.09237         64.6842         8.38437 
        2.09851         64.3402          8.3254 
        2.10464          63.999         8.26708 
        2.11077          63.783          8.2094 
        2.11691         63.3584         8.15214 
        2.12305         63.0141         8.09542 
        2.12918          62.715         8.03939 
        2.13531         62.4725         7.98387 
        2.14145          62.182         7.92876 
         2.1476         62.0159         7.87411 
        2.15372         61.6076         7.82024 
        2.15985         61.3325         7.76683 
        2.16599         61.0676         7.71376 
        2.17213         60.8576         7.66125 
        2.17827         60.4723         7.60924 
         2.1844         60.0122         7.55776 
        2.19054         59.8484         7.50674 
        2.19666         59.6616         7.45627 
         2.2028         59.4252         7.40622 
        2.20893         59.1193          7.3566 
        2.21508         58.8856         7.30738 
        2.22122         58.5728          7.2586 
        2.22736         58.1926         7.21036 
        2.23349          57.986         7.16258 
        2.23962         57.6589          7.1152 
        2.24577         57.3836         7.06822 
         2.2519         57.1811         7.02172 
        2.25802         56.9599         6.97572 
        2.26417          56.554            6.93 
        2.27031         56.3514         6.88465 
        2.27644         55.9858         6.83984 
        2.28257         55.8492         6.79543 
        2.28872          55.448         6.75133 
        2.29486         55.2469         6.70763 
        2.30099          55.028         6.66441 
        2.30712         54.7945         6.62155 
        2.31326         54.4919           6.579 
         2.3194         54.2423         6.53684 
        2.32553         54.0225         6.49513 
        2.33166         53.6896          6.4538 
         2.3378          53.401         6.41277 
        2.34394         53.0651         6.37209 
        2.35007         52.9287         6.33182 
        2.35619         52.8052         6.29195 
        2.36233         52.5467         6.25233 
        2.36848         52.1433         6.21297 
        2.37462         52.0213         6.17403 
        2.38075         51.7053         6.13546 
        2.38689         51.5096         6.09719 
        2.39303         51.3346         6.05925 
        2.39916         51.1266         6.02168 
        2.40529         50.7642         5.98443 
        2.41143         50.5131         5.94747 
        2.41757         50.3317          5.9108 
         2.4237         50.1216         5.87451 
        2.42983         49.8312         5.83853 
        2.43598         49.6227         5.80275 
        2.44211         49.4288         5.76734 
        2.44823          49.125          5.7323 
        2.45437          48.905         5.69746 
        2.46052         48.6379         5.66287 
        2.46665         48.4692         5.62864 
        2.47279         48.2842          5.5947 
        2.47892         47.9819         5.56102 
        2.48507          47.801         5.52758 
         2.4912         47.6226         5.49449 
