# k  (h/Mpc)    Pcb(k)  (Mpc/h)^3    Pcb_linear(k)  (Mpc/h)^3
     0.00783031         10700.4         10767.1 
       0.013688         12215.6         12484.6 
       0.019231         11769.8         11905.8 
      0.0249154         10366.8         10315.4 
      0.0312784         8289.65          8312.1 
      0.0375637         6618.17         6670.08 
      0.0433917          5620.8         5606.54 
      0.0492413         4918.04            4933 
      0.0555754         4516.63         4496.84 
      0.0619321         4099.72          4187.6 
       0.067871         3857.92         3888.34 
      0.0738098         3518.81         3522.35 
      0.0800417         3096.64         3078.09 
      0.0862327         2648.38         2633.67 
      0.0921407         2299.86         2265.14 
      0.0982031         2042.55         1978.56 
       0.104506         1815.81         1783.35 
       0.110769         1707.96          1670.9 
       0.116806         1657.63         1605.05 
       0.122832         1575.17         1546.25 
       0.129052         1493.38         1466.13 
       0.135211         1411.78         1357.81 
       0.141259         1274.85         1231.17 
       0.147318         1143.63         1101.72 
       0.153489         1042.74         985.281 
       0.159709         975.423         895.083 
       0.165845         892.298         834.725 
       0.171974         875.206         797.063 
       0.178125         845.926         771.825 
       0.184229         796.006         748.442 
        0.19034         776.771         718.648 
       0.196428          743.72         679.545 
       0.202534          682.89         632.909 
       0.208729         658.361         583.457 
       0.214876         619.473         538.236 
       0.220989         574.365         501.201 
       0.227147         557.703         473.263 
        0.23329         535.786         453.461 
       0.239377         527.981         438.836 
       0.245482         502.191         425.711 
       0.251667         482.446         411.051 
       0.257832         474.626          393.59 
       0.263955         445.908         373.678 
       0.270079         425.772          352.61 
        0.27624         405.766         332.187 
       0.282372         393.916         314.209 
        0.28843         388.754         299.499 
       0.294538         368.552         287.672 
       0.300721          356.72         277.938 
        0.30691         350.488          269.34 
       0.313033         334.102         260.862 
       0.319153         328.187         251.792 
       0.325316         320.057         241.856 
        0.33145         310.618         231.526 
       0.337538         298.313         221.354 
       0.343633         288.723         211.837 
       0.349808         280.199         203.243 
       0.355968         274.134         195.824 
       0.362074         265.163         189.453 
       0.368217         261.863         183.682 
       0.374374         255.544         178.199 
       0.380519         244.855         172.712 
       0.386598         241.053         167.145 
       0.392688         233.899         161.462 
        0.39888         228.547         155.687 
       0.405048         223.069         150.148 
       0.411186         221.061         145.003 
       0.417313         216.519         140.289 
       0.423458         210.605         135.998 
       0.429607         204.627         132.056 
       0.435692         201.331          128.37 
       0.441815          196.95         124.781 
       0.447964         191.377         121.229 
       0.454126         188.425         117.675 
       0.460267         185.868          114.17 
       0.466387         181.205         110.771 
        0.47254         179.034         107.494 
       0.478662         173.703         104.402 
       0.484765         171.128         101.507 
       0.490885         168.284         98.7874 
       0.497035         165.876         96.1959 
       0.503198         163.908         93.6988 
       0.509342         159.618         91.2786 
       0.515458         157.018         88.9283 
       0.521598         153.246         86.6189 
       0.527764         151.808         84.3504 
       0.533884         150.621         82.1638 
           0.54         147.092         80.0626 
       0.546137         143.651          78.049 
       0.552299         141.872         76.1204 
       0.558452         139.448         74.2747 
       0.564573         138.715         72.5056 
       0.570708         135.006         70.7904 
       0.576825         133.257         69.1323 
       0.582926         131.811         67.5257 
       0.589034          129.55         65.9596 
       0.595184         128.194         64.4243 
       0.601379           125.8         62.9226 
       0.607522         122.951         61.4812 
       0.613639         122.153          60.096 
       0.619772         120.466         58.7583 
       0.625918         119.476         57.4655 
       0.632068          116.59          56.214 
       0.638161         115.686          55.011 
         0.6443         114.646         53.8316 
       0.650464         112.271         52.6785 
       0.656582          111.55         51.5646 
       0.662703         110.401         50.4813 
       0.668861         108.017         49.4231 
       0.675024         107.928         48.3959 
       0.681124         106.081         47.4102 
       0.687237          104.79         46.4517 
       0.693381         103.309         45.5162 
       0.699536         102.362         44.6052 
       0.705665         101.175          43.723 
       0.711789         99.7007         42.8647 
       0.717957           98.53         42.0229 
        0.72409         97.4076         41.2079 
       0.730186         97.2279         40.4192 
       0.736317         95.7856         39.6469 
       0.742472         94.1332         38.8921 
       0.748622         92.7502          38.158 
        0.75476         92.9741         37.4448 
       0.760888         91.8502         36.7514 
       0.767043         90.0551          36.073 
       0.773185         88.9847         35.4134 
       0.779291         88.1005         34.7741 
       0.785407         87.4393         34.1497 
       0.791564         86.7188         33.5366 
       0.797719         85.3254         32.9388 
       0.803834         85.2057         32.3593 
       0.809972         84.3482         31.7916 
       0.816124         82.9287         31.2362 
       0.822261         82.1943         30.6957 
       0.828378         81.9265         30.1695 
       0.834502         80.9896         29.6553 
       0.840667         80.3681         29.1499 
       0.846816         79.4064         28.6577 
       0.852925         78.5555         28.1801 
       0.859047         78.0289         27.7124 
       0.865192         77.2644         27.2538 
       0.871341         76.5224         26.8054 
       0.877463         75.7696         26.3691 
       0.883569         75.7196         25.9437 
       0.889708         74.8851         25.5256 
       0.895864         74.2451         25.1156 
       0.902008         73.3339         24.7155 
       0.908149         72.4568         24.3243 
       0.914301         72.2383         23.9411 
       0.920448         72.1466         23.5664 
       0.926574         70.5659         23.2012 
       0.932687         70.4527         22.8444 
       0.938823         69.9605         22.4939 
       0.944975         69.1667         22.1499 
       0.951105         68.5061         21.8144 
       0.957225          68.266         21.4864 
       0.963368         67.5509         21.1641 
       0.969511         67.1523         20.8484 
       0.975621          66.285         20.5408 
       0.981748         65.9211         20.2386 
       0.987916         65.3288         19.9406 
        0.99406          65.157         19.6498 
        1.00019         64.3187         19.3653 
        1.00632         63.7771         19.0868 
        1.01246         63.4716         18.8133 
        1.01859         63.1274         18.5456 
        1.02471         62.6237         18.2834 
        1.03085         61.9975         18.0254 
        1.03698          61.578          17.773 
        1.04314          61.117         17.5243 
        1.04929         60.7681          17.281 
        1.05541         60.2511         17.0432 
        1.06154         59.8185         16.8094 
        1.06769         59.4168         16.5796 
        1.07382         58.8582         16.3548 
        1.07993         58.6595         16.1348 
        1.08607         58.1791         15.9179 
        1.09222         57.8896         15.7047 
        1.09836         57.4041         15.4958 
        1.10449         57.0356         15.2908 
        1.11063         56.6318         15.0894 
        1.11677          56.378         14.8917 
         1.1229         55.7598         14.6978 
        1.12903          55.543         14.5073 
        1.13518         55.1782         14.3199 
        1.14131         54.7653          14.136 
        1.14745         54.5531         13.9554 
        1.15359         53.8318          13.778 
        1.15973         53.8026         13.6036 
        1.16584         53.4158         13.4329 
        1.17197         53.0264          13.265 
        1.17811         52.6539         13.0994 
        1.18424         52.0948         12.9371 
        1.19038         51.9709         12.7771 
        1.19652         51.7036         12.6198 
        1.20267         51.2755         12.4652 
        1.20881         50.9528         12.3132 
        1.21495         50.6496          12.164 
        1.22108         50.5579         12.0173 
         1.2272         50.0178         11.8734 
        1.23334         49.8638         11.7315 
        1.23949         49.4559         11.5915 
        1.24562          49.106         11.4543 
        1.25174         48.9356         11.3194 
        1.25789         48.6737         11.1863 
        1.26402         48.3316         11.0556 
        1.27014         48.1096         10.9273 
        1.27628         47.7344         10.8007 
        1.28244          47.712         10.6758 
        1.28858         47.2507          10.553 
        1.29471         46.8691         10.4325 
        1.30084         46.4834         10.3139 
        1.30697         46.5243         10.1971 
        1.31312         46.2153         10.0818 
        1.31925         45.8045         9.96871 
        1.32537         45.5779         9.85745 
        1.33151         45.3394          9.7475 
        1.33765         45.1273         9.63929 
        1.34378         44.8087         9.53294 
        1.34992         44.6203         9.42811 
        1.35606         44.2462         9.32464 
         1.3622         44.1408          9.2229 
        1.36833         43.9013         9.12292 
        1.37445         43.4922         9.02448 
        1.38059         43.3461         8.92718 
        1.38675         43.0342         8.83109 
        1.39288         42.9049         8.73679 
        1.39901          42.553         8.64392 
        1.40515         42.3965         8.55218 
         1.4113         42.2423         8.46181 
        1.41742         41.9396         8.37309 
        1.42355         41.7896         8.28547 
         1.4297         41.5907         8.19884 
        1.43585         41.3551         8.11349 
        1.44198         41.0399         8.02967 
        1.44809         40.7521         7.94719 
        1.45423         40.6846         7.86556 
        1.46036         40.5034         7.78523 
        1.46649         40.1668         7.70598 
        1.47263         39.9732         7.62777 
        1.47877          39.808         7.55068 
        1.48491           39.51         7.47453 
        1.49104         39.3637         7.39959 
        1.49718         39.1888         7.32562 
        1.50333         39.0142         7.25254 
        1.50947         38.7519          7.1806 
         1.5156         38.6434         7.10975 
        1.52172         38.3314         7.03985 
        1.52787         38.2262         6.97075 
          1.534         37.9258         6.90266 
        1.54013         37.9493         6.83555 
        1.54627         37.5719         6.76921 
        1.55241         37.4654         6.70374 
        1.55855          37.227         6.63922 
        1.56467         36.9196         6.57573 
         1.5708         36.9698         6.51289 
        1.57695         36.7076         6.45078 
        1.58308         36.4825         6.38962 
        1.58922         36.3092         6.32921 
        1.59535         36.2837          6.2696 
         1.6015         36.1245         6.21067 
        1.60764          35.842         6.15253 
        1.61376         35.6603         6.09529 
        1.61989         35.3869         6.03873 
        1.62604         35.2871         5.98277 
        1.63218         34.9909         5.92755 
        1.63831         34.9679         5.87315 
        1.64444         34.8275         5.81941 
        1.65059         34.5673         5.76621 
        1.65673         34.4404         5.71374 
        1.66285         34.3116         5.66206 
        1.66898         34.1007         5.61101 
        1.67512         33.8764         5.56048 
        1.68127         33.8323         5.51053 
         1.6874         33.6904          5.4613 
        1.69353          33.469          5.4127 
        1.69967         33.3496         5.36457 
        1.70581         33.1515         5.31705 
        1.71193         32.9904         5.27028 
        1.71806         32.8871         5.22397 
        1.72421         32.6774         5.17813 
        1.73035         32.5727         5.13289 
        1.73649         32.3671          5.0882 
        1.74262         32.1643         5.04407 
        1.74876          32.243         5.00044 
        1.75489         31.9385         4.95741 
        1.76101         31.8703          4.9149 
        1.76715         31.6325         4.87283 
        1.77329         31.4299         4.83119 
        1.77943         31.4587         4.79003 
        1.78557         31.2752         4.74941 
        1.79171         31.0786         4.70924 
        1.79785         30.9976         4.66954 
        1.80399         30.7881          4.6303 
        1.81012          30.654         4.59156 
        1.81625         30.4988         4.55328 
        1.82239         30.3648         4.51538 
        1.82853         30.2681         4.47792 
        1.83466         30.0965         4.44093 
        1.84078         29.9583          4.4044 
        1.84692         29.8192         4.36821 
        1.85306         29.6782         4.33239 
         1.8592         29.5152         4.29702 
        1.86533         29.4473         4.26207 
        1.87147         29.2994         4.22746 
        1.87761         29.1781         4.19322 
        1.88375         29.0341         4.15941 
        1.88988         28.8865           4.126 
        1.89601         28.7804         4.09293 
        1.90215         28.6132         4.06021 
        1.90829         28.5097         4.02785 
        1.91442         28.3746         3.99585 
        1.92056         28.2795         3.96422 
         1.9267         28.2033          3.9329 
        1.93284         28.0799          3.9019 
        1.93897         27.9094         3.87129 
        1.94509         27.7857         3.84107 
        1.95123         27.6772          3.8111 
        1.95737         27.5891         3.78142 
        1.96349         27.5009         3.75214 
        1.96964         27.3127         3.72308 
        1.97578         27.1845         3.69431 
        1.98192          27.051         3.66591 
        1.98805         26.9145          3.6378 
        1.99419         26.8377         3.60998 
        2.00033         26.7297         3.58244 
        2.00647         26.6294          3.5552 
         2.0126         26.4701         3.52828 
        2.01874         26.4145          3.5016 
        2.02488         26.2234         3.47517 
        2.03101         26.1683         3.44906 
        2.03714         26.0523         3.42324 
        2.04328          25.952         3.39766 
        2.04941         25.7603         3.37236 
        2.05554         25.7026         3.34734 
        2.06167         25.5861         3.32253 
        2.06781         25.4785         3.29797 
        2.07396         25.3604         3.27363 
        2.08009         25.2367         3.24957 
        2.08622         25.1707         3.22577 
        2.09237         25.0352         3.20217 
        2.09851         24.9688         3.17881 
        2.10464         24.8637         3.15571 
        2.11077         24.7739         3.13287 
        2.11691          24.597          3.1102 
        2.12305         24.5172         3.08776 
        2.12918         24.4309         3.06559 
        2.13531         24.2524         3.04363 
        2.14145         24.2251         3.02184 
         2.1476         24.1219         3.00024 
        2.15372         24.0388         2.97896 
        2.15985         23.8888         2.95786 
        2.16599         23.7623          2.9369 
        2.17213         23.7445         2.91617 
        2.17827         23.6239         2.89564 
         2.1844          23.488         2.87533 
        2.19054         23.4474         2.85521 
        2.19666         23.3036         2.83531 
         2.2028         23.2159         2.81557 
        2.20893         23.1568         2.79602 
        2.21508         23.0624         2.77663 
        2.22122         22.9626         2.75741 
        2.22736         22.8435         2.73842 
        2.23349         22.8045         2.71961 
        2.23962         22.6777         2.70097 
        2.24577         22.5871         2.68248 
         2.2519         22.4594         2.66419 
        2.25802         22.3498         2.64611 
        2.26417          22.247         2.62813 
        2.27031         22.1649         2.61031 
        2.27644         22.1341         2.59271 
        2.28257         22.0361         2.57526 
        2.28872         21.9227         2.55795 
        2.29486         21.8582         2.54079 
        2.30099         21.7525         2.52383 
        2.30712         21.6793         2.50702 
        2.31326         21.5674         2.49033 
         2.3194         21.4809          2.4738 
        2.32553         21.4114         2.45745 
        2.33166         21.3182         2.44125 
         2.3378         21.2158         2.42517 
        2.34394         21.1628         2.40924 
        2.35007         21.0774         2.39347 
        2.35619         20.9866         2.37786 
        2.36233         20.8941         2.36235 
        2.36848         20.8418         2.34695 
        2.37462          20.764         2.33172 
        2.38075         20.6455         2.31663 
        2.38689         20.5742         2.30167 
        2.39303         20.4914         2.28684 
        2.39916          20.386         2.27216 
        2.40529         20.3234          2.2576 
        2.41143         20.2573         2.24317 
        2.41757         20.1431         2.22885 
         2.4237         20.0853         2.21468 
        2.42983         19.9571         2.20064 
        2.43598         19.8957         2.18668 
        2.44211         19.8141         2.17287 
        2.44823         19.7384          2.1592 
        2.45437         19.7012         2.14561 
        2.46052         19.5894         2.13213 
        2.46665         19.5535         2.11879 
        2.47279         19.4218         2.10557 
        2.47892          19.389         2.09245 
        2.48507         19.2911         2.07943 
         2.4912         19.2246         2.06655 
