# k  (h/Mpc)    Pcb(k)  (Mpc/h)^3    Pcb_linear(k)  (Mpc/h)^3
     0.00783031           15461         15682.2 
       0.013688         17363.9         17205.9 
       0.019231           15741         15669.6 
      0.0249154         12836.9         13033.4 
      0.0312784         10132.7         10163.2 
      0.0375637         8123.05         8050.49 
      0.0433917         6764.19         6799.38 
      0.0492413         6068.27         6054.47 
      0.0555754          5451.8         5554.17 
      0.0619321         5173.31         5117.12 
       0.067871         4573.87          4632.2 
      0.0738098         4026.97         4059.61 
      0.0800417          3405.3         3438.76 
      0.0862327         2924.31         2898.54 
      0.0921407         2589.25         2510.95 
      0.0982031         2301.73         2250.74 
       0.104506         2195.42         2094.67 
       0.110769         2073.41         1999.91 
       0.116806         1968.29          1913.3 
       0.122832         1858.28         1798.09 
       0.129052         1676.93         1642.02 
       0.135211         1524.51         1467.59 
       0.141259         1402.32         1303.68 
       0.147318         1283.98         1168.21 
       0.153489          1168.9         1068.88 
       0.159709         1110.51         1004.45 
       0.165845         1073.08         963.503 
       0.171974         1024.29         929.814 
       0.178125         978.616          890.72 
       0.184229         928.445         840.919 
        0.19034         856.606         781.751 
       0.196428         821.084          720.09 
       0.202534         779.097         663.038 
       0.208729         730.206         615.373 
       0.214876         692.629         579.707 
       0.220989           667.2         553.753 
       0.227147         640.582         533.168 
        0.23329         614.885         513.846 
       0.239377         599.785          492.87 
       0.245482          556.25         468.991 
       0.251667         547.776         442.795 
       0.257832          522.86          416.74 
       0.263955          501.56         392.998 
       0.270079         479.245         372.621 
        0.27624         471.353         355.767 
       0.282372         453.824         341.863 
        0.28843          441.31         329.759 
       0.294538         418.815         318.009 
       0.300721         414.813         305.778 
        0.30691         395.283          292.99 
       0.313033         385.825         280.091 
       0.319153         372.327         267.536 
       0.325316         361.467         255.774 
        0.33145         349.224         245.272 
       0.337538         342.855         236.055 
       0.343633         331.427         227.795 
       0.349808         319.257         220.075 
       0.355968          315.39          212.65 
       0.362074         309.377         205.372 
       0.368217         300.202         198.058 
       0.374374          286.99         190.822 
       0.380519         284.423         183.855 
       0.386598         276.705         177.335 
       0.392688         273.113         171.269 
        0.39888          265.68         165.576 
       0.405048         258.974         160.296 
       0.411186         254.032          155.34 
       0.417313         248.665         150.585 
       0.423458         242.982         145.935 
       0.429607         238.679         141.393 
       0.435692         231.692         137.024 
       0.441815         229.191         132.777 
       0.447964         224.245         128.704 
       0.454126          217.17         124.841 
       0.460267          213.61         121.196 
       0.466387         210.767         117.744 
        0.47254         205.938         114.428 
       0.478662           205.3         111.257 
       0.484765         197.693         108.197 
       0.490885         195.254         105.216 
       0.497035         191.855         102.316 
       0.503198         187.869         99.5147 
       0.509342         186.034         96.8299 
       0.515458           183.1         94.2635 
       0.521598         178.788         91.7916 
       0.527764         176.729         89.4109 
       0.533884         174.332         87.1397 
           0.54         171.437         84.9502 
       0.546137         170.157         82.8235 
       0.552299         166.529         80.7539 
       0.558452         165.161         78.7538 
       0.564573         162.571           76.83 
       0.570708         158.837         74.9679 
       0.576825         156.751         73.1758 
       0.582926         154.155         71.4492 
       0.589034         152.587         69.7782 
       0.595184         150.932         68.1512 
       0.601379         148.436          66.566 
       0.607522         146.101         65.0444 
       0.613639         144.743         63.5766 
       0.619772         141.908         62.1501 
       0.625918           140.6         60.7638 
       0.632068         138.587         59.4186 
       0.638161         137.525          58.126 
         0.6443         135.478          56.863 
       0.650464         134.213         55.6335 
       0.656582         131.991         54.4501 
       0.662703          131.33         53.3015 
       0.668861         128.963           52.18 
       0.675024         127.171         51.0903 
       0.681124         126.334         50.0428 
       0.687237         124.378         49.0225 
       0.693381         122.422         48.0258 
       0.699536         121.634         47.0551 
       0.705665         120.696         46.1154 
       0.711789         118.791         45.2023 
       0.717957         118.656         44.3078 
        0.72409         116.642         43.4427 
       0.730186           115.1         42.6061 
       0.736317         113.936         41.7871 
       0.742472         113.105         40.9868 
       0.748622         111.976         40.2084 
        0.75476          110.86         39.4519 
       0.760888         109.607         38.7161 
       0.767043          109.05         37.9962 
       0.773185         108.047         37.2962 
       0.779291         105.965         36.6179 
       0.785407         105.498         35.9555 
       0.791564         104.819         35.3054 
       0.797719         102.642         34.6718 
       0.803834         102.263         34.0578 
       0.809972         101.464         33.4565 
       0.816124           100.8         32.8684 
       0.822261         99.9017         32.2962 
       0.828378          99.027         31.7393 
       0.834502         98.5216         31.1951 
       0.840667         97.0038         30.6603 
       0.846816         95.9326         30.1395 
       0.852925         95.4187         29.6342 
       0.859047         94.3635         29.1394 
       0.865192         93.5673         28.6544 
       0.871341         92.7876         28.1801 
       0.877463         91.6629         27.7188 
       0.883569         91.5846          27.269 
       0.889708         90.5683         26.8269 
       0.895864         89.7124         26.3935 
       0.902008         89.0458         25.9707 
       0.908149         88.6757         25.5574 
       0.914301         87.6355         25.1525 
       0.920448         86.9802         24.7567 
       0.926574         86.2885         24.3709 
       0.932687         86.2908         23.9941 
       0.938823         84.9188          23.624 
       0.944975          84.148         23.2609 
       0.951105          83.556         22.9067 
       0.957225         82.9383         22.5605 
       0.963368         81.9535         22.2203 
       0.969511         81.8934         21.8872 
       0.975621         81.2988         21.5626 
       0.981748         80.8364         21.2439 
       0.987916         79.9754         20.9295 
        0.99406         79.4109         20.6228 
        1.00019         79.1328         20.3228 
        1.00632           78.28          20.029 
        1.01246          77.942         19.7406 
        1.01859         77.1136         19.4584 
        1.02471          76.495          19.182 
        1.03085           75.84         18.9101 
        1.03698         75.6463          18.644 
        1.04314          74.906          18.382 
        1.04929          74.535         18.1256 
        1.05541         73.8056         17.8751 
        1.06154         73.6483         17.6287 
        1.06769         73.2507         17.3866 
        1.07382         72.6505         17.1499 
        1.07993         72.2538         16.9181 
        1.08607         71.6114         16.6897 
        1.09222         71.4901         16.4652 
        1.09836         70.7733         16.2452 
        1.10449         70.4245         16.0294 
        1.11063         69.8348         15.8174 
        1.11677         69.4407         15.6092 
         1.1229         68.8841         15.4052 
        1.12903         68.4567         15.2047 
        1.13518         68.3351         15.0075 
        1.14131         67.8484          14.814 
        1.14745         67.3666          14.624 
        1.15359         66.9889         14.4373 
        1.15973         66.6326         14.2538 
        1.16584         66.0233         14.0743 
        1.17197         65.6566         13.8977 
        1.17811         65.4244         13.7235 
        1.18424         64.8853         13.5528 
        1.19038         64.6767         13.3846 
        1.19652         64.2367         13.2193 
        1.20267         63.5731         13.0568 
        1.20881         63.4248          12.897 
        1.21495         62.8907         12.7402 
        1.22108         62.8382         12.5859 
         1.2272         62.0494         12.4346 
        1.23334         61.8051         12.2855 
        1.23949          61.588         12.1384 
        1.24562         61.0813         11.9942 
        1.25174         60.8504         11.8525 
        1.25789         60.6443         11.7126 
        1.26402         60.0025         11.5753 
        1.27014         59.8104         11.4405 
        1.27628         59.4774         11.3075 
        1.28244         59.1318         11.1763 
        1.28858         58.9909         11.0474 
        1.29471         58.6262         10.9208 
        1.30084         58.2851         10.7963 
        1.30697         57.9132         10.6735 
        1.31312          57.563         10.5525 
        1.31925         57.2503         10.4338 
        1.32537         57.0045          10.317 
        1.33151         56.5177         10.2015 
        1.33765         56.3602         10.0879 
        1.34378         56.0687         9.97627 
        1.34992         55.7326         9.86623 
        1.35606          55.456         9.75762 
         1.3622         55.0855         9.65084 
        1.36833          54.917         9.54592 
        1.37445         54.5221         9.44261 
        1.38059         54.1458         9.34051 
        1.38675         53.9188         9.23968 
        1.39288         53.7006         9.14074 
        1.39901         53.4313         9.04329 
        1.40515         53.0685         8.94704 
         1.4113         52.8553         8.85224 
        1.41742         52.7369         8.75916 
        1.42355         52.3699         8.66725 
         1.4297         52.2261         8.57638 
        1.43585         51.8839         8.48684 
        1.44198         51.4877         8.39893 
        1.44809         51.3157         8.31243 
        1.45423         51.1433         8.22682 
        1.46036         50.8419         8.14258 
        1.46649         50.5935         8.05949 
        1.47263         50.3387         7.97748 
        1.47877         50.0271         7.89666 
        1.48491         49.8909         7.81683 
        1.49104         49.6118         7.73827 
        1.49718          49.281         7.66072 
        1.50333          49.216         7.58412 
        1.50947         48.8798         7.50872 
         1.5156         48.6762         7.43446 
        1.52172         48.4513         7.36119 
        1.52787         48.3119         7.28877 
          1.534          47.904         7.21741 
        1.54013          47.671         7.14708 
        1.54627         47.5987         7.07755 
        1.55241         47.1311         7.00894 
        1.55855         47.0268         6.94133 
        1.56467         46.7706         6.87481 
         1.5708          46.694         6.80896 
        1.57695         46.5109         6.74388 
        1.58308         46.1977          6.6798 
        1.58922         45.9219          6.6165 
        1.59535         45.8404         6.55405 
         1.6015         45.4522         6.49232 
        1.60764         45.3157         6.43141 
        1.61376         45.1143         6.37145 
        1.61989          44.908         6.31221 
        1.62604         44.6594         6.25359 
        1.63218         44.6232         6.19574 
        1.63831         44.2244         6.13876 
        1.64444         44.0788         6.08248 
        1.65059         44.0522         6.02676 
        1.65673         43.7009         5.97181 
        1.66285         43.4193         5.91769 
        1.66898         43.3634         5.86423 
        1.67512         42.9798         5.81132 
        1.68127          42.908         5.75901 
         1.6874         42.6866         5.70747 
        1.69353         42.4624         5.65658 
        1.69967         42.3371          5.6062 
        1.70581         42.2227         5.55645 
        1.71193         42.0243         5.50749 
        1.71806         41.6434         5.45902 
        1.72421         41.6377         5.41103 
        1.73035         41.4257         5.36368 
        1.73649         41.1486          5.3169 
        1.74262         40.9708         5.27071 
        1.74876         40.7718         5.22504 
        1.75489         40.6816         5.18001 
        1.76101         40.5255         5.13551 
        1.76715         40.2719         5.09148 
        1.77329         40.0841         5.04791 
        1.77943         39.8998         5.00483 
        1.78557         39.7166         4.96232 
        1.79171         39.6197         4.92029 
        1.79785         39.3336         4.87874 
        1.80399         39.3344         4.83768 
        1.81012         39.0195         4.79714 
        1.81625         38.8543         4.75709 
        1.82239         38.7185         4.71743 
        1.82853         38.5483         4.67825 
        1.83466         38.2925         4.63954 
        1.84078          38.096         4.60132 
        1.84692         38.0107         4.56346 
        1.85306         37.7981         4.52598 
         1.8592         37.6344         4.48898 
        1.86533         37.4733         4.45241 
        1.87147         37.3199         4.41621 
        1.87761         37.2101          4.3804 
        1.88375         37.0276         4.34502 
        1.88988          36.881         4.31007 
        1.89601         36.7198         4.27549 
        1.90215         36.5815         4.24125 
        1.90829         36.4965         4.20741 
        1.91442          36.308         4.17393 
        1.92056         36.0435         4.14085 
         1.9267         35.9843         4.10809 
        1.93284         35.7075         4.07567 
        1.93897         35.6674         4.04365 
        1.94509         35.5123         4.01205 
        1.95123         35.3441         3.98071 
        1.95737         35.1478         3.94967 
        1.96349         35.0352         3.91905 
        1.96964         34.9001         3.88866 
        1.97578         34.6899         3.85859 
        1.98192         34.5824         3.82889 
        1.98805         34.5006          3.7995 
        1.99419         34.3336         3.77041 
        2.00033         34.1632         3.74162 
        2.00647         34.0667         3.71313 
         2.0126         33.8038         3.68499 
        2.01874         33.7872         3.65709 
        2.02488          33.632         3.62946 
        2.03101         33.4808         3.60217 
        2.03714         33.3491         3.57518 
        2.04328         33.1758         3.54843 
        2.04941         33.0187         3.52198 
        2.05554         32.8863         3.49582 
        2.06167         32.8038         3.46989 
        2.06781         32.6038         3.44422 
        2.07396         32.5402         3.41877 
        2.08009         32.3628         3.39362 
        2.08622         32.1645         3.36875 
        2.09237         32.1076         3.34408 
        2.09851          32.009         3.31966 
        2.10464         31.8433         3.29552 
        2.11077         31.7472         3.27164 
        2.11691         31.5264         3.24796 
        2.12305         31.4157          3.2245 
        2.12918         31.3098         3.20133 
        2.13531         31.1816         3.17839 
        2.14145          31.018         3.15561 
         2.1476         30.8816         3.13304 
        2.15372         30.7418          3.1108 
        2.15985         30.7341         3.08875 
        2.16599         30.5408         3.06685 
        2.17213          30.477         3.04518 
        2.17827         30.2732         3.02373 
         2.1844         30.1992         3.00251 
        2.19054         30.0675         2.98148 
        2.19666         29.8903         2.96068 
         2.2028         29.7978         2.94006 
        2.20893         29.7436         2.91963 
        2.21508         29.6176         2.89937 
        2.22122         29.4553         2.87929 
        2.22736         29.3759         2.85945 
        2.23349         29.2017         2.83979 
        2.23962         29.1034         2.82031 
        2.24577         28.9502           2.801 
         2.2519         28.8374         2.78189 
        2.25802         28.7914         2.76299 
        2.26417         28.6325         2.74421 
        2.27031         28.4904         2.72559 
        2.27644         28.4149          2.7072 
        2.28257         28.3328         2.68898 
        2.28872         28.1901         2.67089 
        2.29486         28.0704         2.65297 
        2.30099         27.9527         2.63525 
        2.30712           27.88         2.61768 
        2.31326         27.7389         2.60025 
         2.3194         27.6279         2.58298 
        2.32553          27.546          2.5659 
        2.33166         27.4362         2.54898 
         2.3378         27.3036         2.53219 
        2.34394         27.2426         2.51554 
        2.35007         27.0945         2.49907 
        2.35619         26.9833         2.48276 
        2.36233         26.8665         2.46656 
        2.36848         26.8127         2.45048 
        2.37462         26.6427         2.43456 
        2.38075         26.6255         2.41881 
        2.38689         26.4707         2.40318 
        2.39303         26.3458         2.38769 
        2.39916         26.2063         2.37235 
        2.40529         26.1668         2.35715 
        2.41143         26.0639         2.34207 
        2.41757         25.9455         2.32712 
         2.4237         25.8926         2.31232 
        2.42983          25.735         2.29766 
        2.43598         25.6793         2.28308 
        2.44211         25.5287         2.26865 
        2.44823         25.4538         2.25438 
        2.45437         25.3042         2.24019 
        2.46052          25.212         2.22612 
        2.46665         25.1545         2.21218 
        2.47279         25.0303         2.19837 
        2.47892         24.9798         2.18467 
        2.48507         24.8365         2.17108 
         2.4912         24.7517         2.15762 
