# k  (h/Mpc)    P(k)  (Mpc/h)^3    P_linear(k)  (Mpc/h)^3
     0.00783031         7883.45         8010.53 
       0.013688         8814.75         8785.15 
       0.019231         8016.03         7998.17 
      0.0249154         6579.39         6651.21 
      0.0312784         5181.39         5185.75 
      0.0375637          4137.4         4107.33 
      0.0433917         3459.61          3468.8 
      0.0492413         3095.52         3088.64 
      0.0555754         2798.35         2833.31 
      0.0619321         2633.94         2610.29 
       0.067871         2344.02         2362.88 
      0.0738098          2059.3         2070.77 
      0.0800417          1740.9         1754.05 
      0.0862327         1486.16         1478.48 
      0.0921407         1304.08         1280.77 
      0.0982031         1160.41         1148.03 
       0.104506         1100.29         1068.42 
       0.110769         1042.64         1020.08 
       0.116806         988.972         975.898 
       0.122832         934.976         917.133 
       0.129052          845.49         837.523 
       0.135211         763.346          748.55 
       0.141259         693.535         664.947 
       0.147318         630.249         595.845 
       0.153489         573.885          545.18 
       0.159709         543.215         512.317 
       0.165845         524.656         491.433 
       0.171974         499.856         474.249 
       0.178125         479.575         454.307 
       0.184229         455.078         428.907 
        0.19034         417.631         398.728 
       0.196428         396.349         367.278 
       0.202534         373.957         338.178 
       0.208729         347.954         313.866 
       0.214876         327.649         295.675 
       0.220989         315.723         282.437 
       0.227147         301.721         271.938 
        0.23329         290.146         262.083 
       0.239377         281.798         251.384 
       0.245482          262.13         239.205 
       0.251667         255.388         225.844 
       0.257832         243.524         212.554 
       0.263955         231.919         200.445 
       0.270079         220.926         190.051 
        0.27624          215.71         181.455 
       0.282372         208.061         174.364 
        0.28843         200.092          168.19 
       0.294538         191.269         162.197 
       0.300721         188.023         155.959 
        0.30691         178.805         149.437 
       0.313033         173.305         142.857 
       0.319153         165.275         136.454 
       0.325316         161.092         130.455 
        0.33145          154.55         125.098 
       0.337538         151.358         120.397 
       0.343633         145.765         116.184 
       0.349808             141         112.246 
       0.355968         138.157         108.459 
       0.362074         134.105         104.748 
       0.368217         129.849         101.017 
       0.374374         125.293         97.3265 
       0.380519         122.696         93.7728 
       0.386598         119.181         90.4472 
       0.392688         116.766          87.354 
        0.39888         113.522           84.45 
       0.405048          110.32          81.757 
       0.411186         107.749          79.229 
       0.417313         105.011         76.8043 
       0.423458         102.466         74.4323 
       0.429607         99.9159         72.1158 
       0.435692         96.4283         69.8872 
       0.441815         95.3592         67.7214 
       0.447964          93.473         65.6438 
       0.454126         89.2101         63.6734 
       0.460267         88.1315         61.8144 
       0.466387         86.5536         60.0536 
        0.47254         84.5056         58.3626 
       0.478662         83.6215         56.7452 
       0.484765          80.852         55.1844 
       0.490885         79.3499         53.6642 
       0.497035         78.2828          52.185 
       0.503198         75.9134         50.7561 
       0.509342          74.355         49.3867 
       0.515458         73.0695         48.0778 
       0.521598         71.7863          46.817 
       0.527764         70.6423         45.6028 
       0.533884         69.5362         44.4444 
           0.54         67.9062         43.3277 
       0.546137         67.1455          42.243 
       0.552299         65.9918         41.1874 
       0.558452         64.3902         40.1673 
       0.564573         63.2162         39.1861 
       0.570708         62.1581         38.2364 
       0.576825         61.2649         37.3223 
       0.582926         59.8249         36.4417 
       0.589034         58.7447         35.5894 
       0.595184         57.9128         34.7595 
       0.601379         56.9428          33.951 
       0.607522         55.6411          33.175 
       0.613639         55.3263         32.4263 
       0.619772          54.123         31.6988 
       0.625918         53.3811         30.9917 
       0.632068          52.733         30.3056 
       0.638161         51.9861         29.6464 
         0.6443         51.2013         29.0021 
       0.650464           50.51         28.3751 
       0.656582         49.7329         27.7715 
       0.662703         48.7369         27.1857 
       0.668861         48.0744         26.6137 
       0.675024         47.4797         26.0579 
       0.681124         46.7768         25.5236 
       0.687237         45.8572         25.0032 
       0.693381         45.3931         24.4949 
       0.699536         44.6703         23.9998 
       0.705665         44.7157         23.5205 
       0.711789         43.5471         23.0548 
       0.717957           43.07         22.5986 
        0.72409         42.4375         22.1573 
       0.730186         41.7566         21.7306 
       0.736317         41.5725         21.3129 
       0.742472         40.9588         20.9047 
       0.748622         40.4314         20.5077 
        0.75476         39.9673         20.1219 
       0.760888         39.3403         19.7466 
       0.767043         38.8733         19.3794 
       0.773185         38.3751         19.0224 
       0.779291         38.0727         18.6764 
       0.785407         37.7056         18.3386 
       0.791564         37.2281          18.007 
       0.797719         36.4772         17.6838 
       0.803834         36.3364         17.3707 
       0.809972         35.6909          17.064 
       0.816124         35.3253         16.7641 
       0.822261         35.0051         16.4722 
       0.828378         34.7903         16.1882 
       0.834502         34.3096         15.9106 
       0.840667         33.9247         15.6378 
       0.846816         33.3997         15.3722 
       0.852925         33.1379         15.1145 
       0.859047         32.6783         14.8621 
       0.865192         32.3964         14.6148 
       0.871341         32.2343         14.3729 
       0.877463          31.605         14.1376 
       0.883569         31.3455         13.9081 
       0.889708         31.1037         13.6827 
       0.895864         30.7758         13.4616 
       0.902008         30.4831          13.246 
       0.908149         30.1825         13.0352 
       0.914301         29.9947         12.8286 
       0.920448         29.6723         12.6268 
       0.926574         29.2851           12.43 
       0.932687         29.0841         12.2378 
       0.938823         28.6509         12.0491 
       0.944975         28.4925         11.8639 
       0.951105         28.1809         11.6832 
       0.957225         27.8391         11.5066 
       0.963368         27.8516         11.3331 
       0.969511         27.5005         11.1632 
       0.975621          27.313         10.9977 
       0.981748         26.9169         10.8351 
       0.987916         26.7041         10.6748 
        0.99406         26.5249         10.5183 
        1.00019         26.2282         10.3653 
        1.00632         26.0512         10.2155 
        1.01246         25.9253         10.0684 
        1.01859         25.4939         9.92447 
        1.02471         25.4336         9.78352 
        1.03085         25.2101         9.64483 
        1.03698         24.8608         9.50912 
        1.04314         24.7027         9.37546 
        1.04929          24.483         9.24468 
        1.05541         24.2357         9.11692 
        1.06154         24.1712         8.99127 
        1.06769         23.9295          8.8678 
        1.07382         23.7603         8.74706 
        1.07993         23.5966         8.62885 
        1.08607         23.3421         8.51233 
        1.09222         23.2097         8.39786 
        1.09836         22.9954         8.28563 
        1.10449         22.8184         8.17558 
        1.11063         22.5291         8.06742 
        1.11677         22.4362         7.96126 
         1.1229         22.2867          7.8572 
        1.12903         22.0141         7.75491 
        1.13518          22.003         7.65437 
        1.14131         21.8364         7.55566 
        1.14745         21.5475         7.45875 
        1.15359         21.5232         7.36353 
        1.15973         21.2503         7.26994 
        1.16584         21.0921         7.17839 
        1.17197         21.0207          7.0883 
        1.17811         20.8139         6.99947 
        1.18424         20.6456         6.91243 
        1.19038         20.5525         6.82662 
        1.19652         20.4706          6.7423 
        1.20267         20.2962          6.6594 
        1.20881         20.1125         6.57792 
        1.21495         19.9741         6.49793 
        1.22108         19.8414         6.41928 
         1.2272         19.6507         6.34211 
        1.23334         19.5841         6.26603 
        1.23949         19.4813         6.19103 
        1.24562         19.2869         6.11745 
        1.25174         19.2145         6.04518 
        1.25789         19.0499         5.97386 
        1.26402         18.9187         5.90382 
        1.27014         18.7266         5.83508 
        1.27628         18.6413         5.76722 
        1.28244         18.5582         5.70031 
        1.28858         18.4544         5.63455 
        1.29471         18.3378         5.56998 
        1.30084         18.2187         5.50648 
        1.30697         18.0904         5.44388 
        1.31312         17.9351         5.38216 
        1.31925         17.8287         5.32159 
        1.32537         17.7398         5.26201 
        1.33151         17.6257         5.20313 
        1.33765         17.5499         5.14519 
        1.34378         17.4029         5.08825 
        1.34992         17.2627         5.03213 
        1.35606         17.1919         4.97673 
         1.3622         17.1055         4.92227 
        1.36833          16.952         4.86876 
        1.37445         16.9388         4.81606 
        1.38059         16.7787         4.76399 
        1.38675         16.5891         4.71256 
        1.39288         16.5809          4.6621 
        1.39901         16.4559          4.6124 
        1.40515         16.3807         4.56331 
         1.4113         16.2814         4.51495 
        1.41742         16.1416         4.46748 
        1.42355         16.1095          4.4206 
         1.4297         16.0214         4.37426 
        1.43585         15.9543         4.32859 
        1.44198         15.8098         4.28375 
        1.44809         15.7094         4.23963 
        1.45423         15.6351         4.19597 
        1.46036         15.5909           4.153 
        1.46649         15.4826         4.11062 
        1.47263         15.3586          4.0688 
        1.47877         15.3214         4.02758 
        1.48491          15.283         3.98686 
        1.49104         15.1604         3.94679 
        1.49718         15.0372         3.90724 
        1.50333         14.9984         3.86817 
        1.50947         14.9154         3.82971 
         1.5156         14.8319         3.79184 
        1.52172         14.7445         3.75447 
        1.52787         14.6818         3.71753 
          1.534         14.5758         3.68113 
        1.54013         14.4786         3.64526 
        1.54627         14.4192          3.6098 
        1.55241         14.3161         3.57481 
        1.55855         14.2519         3.54033 
        1.56467         14.1662         3.50639 
         1.5708         14.1573         3.47281 
        1.57695         14.0197         3.43962 
        1.58308         13.9884         3.40693 
        1.58922         13.9178         3.37465 
        1.59535         13.8218          3.3428 
         1.6015         13.7593         3.31131 
        1.60764           13.72         3.28025 
        1.61376         13.5731         3.24967 
        1.61989         13.5301         3.21945 
        1.62604         13.5086         3.18955 
        1.63218         13.4325         3.16005 
        1.63831         13.3724         3.13099 
        1.64444         13.2755         3.10228 
        1.65059         13.2124         3.07386 
        1.65673         13.1305         3.04583 
        1.66285         13.1116         3.01823 
        1.66898         13.0548         2.99096 
        1.67512         12.9842         2.96398 
        1.68127         12.9235          2.9373 
         1.6874         12.8423         2.91101 
        1.69353         12.7745         2.88506 
        1.69967         12.7095         2.85936 
        1.70581         12.6465         2.83399 
        1.71193          12.609         2.80902 
        1.71806          12.529         2.78429 
        1.72421         12.4758         2.75982 
        1.73035         12.3928         2.73566 
        1.73649         12.3829         2.71181 
        1.74262         12.3228         2.68825 
        1.74876         12.2778         2.66496 
        1.75489         12.1983         2.64199 
        1.76101         12.1306         2.61929 
        1.76715         12.0862         2.59684 
        1.77329         12.0419         2.57462 
        1.77943         11.9709         2.55264 
        1.78557         11.9403         2.53096 
        1.79171         11.8702         2.50952 
        1.79785         11.7924         2.48833 
        1.80399         11.7591         2.46739 
        1.81012         11.7407         2.44671 
        1.81625         11.6775         2.42628 
        1.82239          11.628         2.40606 
        1.82853         11.5386         2.38607 
        1.83466          11.479         2.36633 
        1.84078         11.4329         2.34683 
        1.84692         11.4147         2.32753 
        1.85306         11.3429         2.30841 
         1.8592         11.2987         2.28954 
        1.86533         11.2588         2.27089 
        1.87147         11.2037         2.25243 
        1.87761         11.1708         2.23416 
        1.88375         11.1148         2.21612 
        1.88988         11.0493         2.19829 
        1.89601         11.0064         2.18065 
        1.90215         10.9728         2.16319 
        1.90829         10.9224         2.14593 
        1.91442         10.8815         2.12885 
        1.92056         10.8303         2.11198 
         1.9267         10.7743         2.09527 
        1.93284         10.7246         2.07873 
        1.93897         10.6919         2.06241 
        1.94509         10.6441         2.04629 
        1.95123         10.6098          2.0303 
        1.95737         10.5696         2.01447 
        1.96349         10.5121         1.99886 
        1.96964         10.4638         1.98336 
        1.97578         10.4201         1.96802 
        1.98192           10.38         1.95287 
        1.98805         10.3501         1.93788 
        1.99419         10.3005         1.92304 
        2.00033         10.2195         1.90836 
        2.00647         10.1909         1.89383 
         2.0126          10.178         1.87947 
        2.01874         10.1114         1.86525 
        2.02488         10.0819         1.85115 
        2.03101         10.0489         1.83723 
        2.03714         10.0157         1.82347 
        2.04328         9.94263         1.80983 
        2.04941         9.90591         1.79634 
        2.05554         9.89758         1.78299 
        2.06167         9.84631         1.76977 
        2.06781         9.81583         1.75667 
        2.07396         9.78225         1.74369 
        2.08009         9.74965         1.73087 
        2.08622         9.66498         1.71818 
        2.09237         9.65932          1.7056 
        2.09851         9.61683         1.69314 
        2.10464         9.57135         1.68083 
        2.11077         9.53268         1.66866 
        2.11691         9.49743         1.65657 
        2.12305         9.49079         1.64461 
        2.12918         9.41864         1.63279 
        2.13531         9.38859         1.62109 
        2.14145         9.35027         1.60948 
         2.1476         9.34103         1.59796 
        2.15372         9.28052         1.58662 
        2.15985         9.23457         1.57537 
        2.16599         9.22445          1.5642 
        2.17213         9.16877         1.55315 
        2.17827         9.14873         1.54221 
         2.1844         9.10886         1.53139 
        2.19054         9.08535         1.52066 
        2.19666         9.06658         1.51005 
         2.2028         9.02042         1.49954 
        2.20893         8.97718         1.48912 
        2.21508         8.92165         1.47878 
        2.22122         8.89722         1.46854 
        2.22736         8.87997         1.45842 
        2.23349         8.83475          1.4484 
        2.23962         8.79651         1.43846 
        2.24577         8.77539         1.42861 
         2.2519         8.74529         1.41886 
        2.25802          8.7193         1.40922 
        2.26417         8.69175         1.39965 
        2.27031         8.62987         1.39015 
        2.27644         8.62453         1.38077 
        2.28257         8.58256         1.37148 
        2.28872          8.5644         1.36225 
        2.29486         8.52541         1.35311 
        2.30099         8.50258         1.34407 
        2.30712         8.47161         1.33511 
        2.31326         8.43199         1.32622 
         2.3194         8.41096         1.31741 
        2.32553         8.37226          1.3087 
        2.33166         8.33088         1.30007 
         2.3378         8.30475         1.29151 
        2.34394         8.28811         1.28302 
        2.35007         8.24229         1.27462 
        2.35619         8.19643          1.2663 
        2.36233         8.19359         1.25804 
        2.36848         8.17907         1.24983 
        2.37462         8.14509         1.24172 
        2.38075         8.09086         1.23368 
        2.38689         8.08758         1.22571 
        2.39303         8.04192         1.21781 
        2.39916         8.02372         1.20999 
        2.40529         7.99355         1.20223 
        2.41143         7.97488         1.19454 
        2.41757         7.94254         1.18692 
         2.4237         7.91943         1.17937 
        2.42983          7.8786         1.17189 
        2.43598         7.86445         1.16445 
        2.44211         7.83656         1.15709 
        2.44823         7.80115         1.14982 
        2.45437         7.78915         1.14258 
        2.46052         7.74417          1.1354 
        2.46665         7.71946         1.12829 
        2.47279         7.68347         1.12125 
        2.47892           7.669         1.11426 
        2.48507         7.64304         1.10733 
         2.4912         7.62918         1.10047 
