# k  (h/Mpc)    Pcb(k)  (Mpc/h)^3    Pcb_linear(k)  (Mpc/h)^3
     0.00783031         12480.4         12535.3 
       0.013688         15973.7         16383.2 
       0.019231         17015.7         17281.2 
      0.0249154         16514.1         16531.4 
      0.0312784         14546.9           14744 
      0.0375637         12531.2         12805.7 
      0.0433917         11144.9         11263.8 
      0.0492413         9899.17           10096 
      0.0555754         9103.22         9223.68 
      0.0619321            8238         8618.45 
       0.067871         7892.68         8148.05 
      0.0738098         7463.49         7655.65 
      0.0800417         6885.42         7056.04 
      0.0862327         6205.65         6385.52 
      0.0921407         5606.34         5730.42 
      0.0982031         5087.93         5110.48 
       0.104506         4517.46         4577.41 
       0.110769         4164.06         4182.68 
       0.116806         3978.34         3918.68 
       0.122832          3750.9         3736.75 
       0.129052         3583.06         3590.46 
       0.135211         3497.85         3445.51 
       0.141259         3269.38         3276.34 
       0.147318         3040.11         3073.07 
       0.153489         2863.08         2842.18 
       0.159709         2729.41         2607.57 
       0.165845         2481.22         2397.09 
       0.171974         2404.53         2223.25 
       0.178125         2316.12         2090.38 
       0.184229         2140.99         1994.96 
        0.19034         2114.65         1924.25 
       0.196428         2060.56         1864.36 
       0.202534         1944.51         1802.04 
       0.208729         1910.74         1728.22 
       0.214876          1831.4         1642.64 
       0.220989         1734.42         1549.35 
       0.227147          1686.6         1454.52 
        0.23329         1618.42         1366.79 
       0.239377         1603.42         1292.05 
       0.245482         1526.85         1231.32 
       0.251667         1471.68         1183.04 
       0.257832         1451.85         1144.41 
       0.263955          1387.5         1110.54 
       0.270079         1352.81         1076.66 
        0.27624         1297.83         1039.61 
       0.282372         1281.87         998.826 
        0.28843         1262.97         955.809 
       0.294538         1203.97         911.907 
       0.300721         1179.28         869.602 
        0.30691         1153.29         831.467 
       0.313033         1108.45         798.918 
       0.319153         1096.19         771.363 
       0.325316          1082.5         747.519 
        0.33145         1060.66          726.09 
       0.337538         1026.04         705.535 
       0.343633         1002.12         684.473 
       0.349808         983.056         662.194 
       0.355968         964.647         639.111 
       0.362074           935.3         616.107 
       0.368217          932.88         593.627 
       0.374374         918.687         572.568 
       0.380519         886.247         553.469 
       0.386598         881.102         536.507 
       0.392688         860.533         521.233 
        0.39888         841.211           506.9 
       0.405048          826.47         493.296 
       0.411186         824.032         479.976 
       0.417313         820.325          466.58 
       0.423458         794.804          453.05 
       0.429607         773.548         439.561 
       0.435692         766.837         426.481 
       0.441815         752.749         413.881 
       0.447964         743.167         401.992 
       0.454126         733.769         390.881 
       0.460267         723.932         380.591 
       0.466387         712.885         370.988 
        0.47254         700.802         361.771 
       0.478662         690.897         352.865 
       0.484765         684.364         344.153 
       0.490885          676.65         335.527 
       0.497035         664.488         326.951 
       0.503198         663.815         318.535 
       0.509342         651.118         310.417 
       0.515458         638.649         302.671 
       0.521598         635.162         295.247 
       0.527764         621.584         288.157 
       0.533884         617.085         281.467 
           0.54         611.281         275.067 
       0.546137          601.95         268.856 
       0.552299         599.668         262.771 
       0.558452         591.883         256.832 
       0.564573         586.566         251.057 
       0.570708         581.176         245.403 
       0.576825         569.658         239.909 
       0.582926         567.773         234.591 
       0.589034         559.854         229.449 
       0.595184          554.75          224.47 
       0.601379         546.471         219.651 
       0.607522         537.918          215.04 
       0.613639         536.951          210.59 
       0.619772         533.984          206.25 
       0.625918         524.729         202.011 
       0.632068         521.581         197.879 
       0.638161         516.036         193.889 
         0.6443         510.553         189.972 
       0.650464         505.891         186.144 
       0.656582         502.037         182.447 
       0.662703         496.957         178.854 
       0.668861         490.736         175.345 
       0.675024         487.751         171.941 
       0.681124         480.383         168.673 
       0.687237         479.164          165.49 
       0.693381         472.142         162.378 
       0.699536         470.858         159.338 
       0.705665         465.275         156.383 
       0.711789         464.105           153.5 
       0.717957         457.255         150.666 
        0.72409         453.168         147.918 
       0.730186         454.191         145.256 
       0.736317         446.612         142.649 
       0.742472         442.285         140.101 
       0.748622         439.561         137.622 
        0.75476         436.085         135.212 
       0.760888         433.024         132.865 
       0.767043         430.092         130.565 
       0.773185         427.186         128.325 
       0.779291         421.827         126.149 
       0.785407         419.472         124.019 
       0.791564         416.367         121.924 
       0.797719         410.186         119.879 
       0.803834         412.458         117.894 
       0.809972         405.979         115.947 
       0.816124         402.317         114.041 
       0.822261         399.464         112.184 
       0.828378         397.937         110.376 
       0.834502         391.632         108.607 
       0.840667          391.82         106.866 
       0.846816         385.935         105.169 
       0.852925         386.384          103.52 
       0.859047         382.803         101.904 
       0.865192         380.939         100.317 
       0.871341         375.891         98.7635 
       0.877463         373.784         97.2498 
       0.883569         370.851          95.772 
       0.889708         367.425         94.3176 
       0.895864         364.326           92.89 
       0.902008         362.889         91.4952 
       0.908149         359.825         90.1303 
       0.914301         358.082         88.7913 
       0.920448         355.096         87.4811 
       0.926574         353.009         86.2024 
       0.932687         351.356         84.9522 
       0.938823         347.376         83.7227 
       0.944975         346.366         82.5151 
       0.951105         343.291          81.336 
       0.957225         338.972         80.1822 
       0.963368         339.739         79.0471 
       0.969511         333.574         77.9343 
       0.975621         333.257         76.8492 
       0.981748         331.449         75.7822 
       0.987916         329.357          74.729 
        0.99406         326.348         73.6999 
        1.00019         323.303         72.6926 
        1.00632         323.174         71.7052 
        1.01246         320.326         70.7349 
        1.01859         316.707         69.7843 
        1.02471         314.966         68.8526 
        1.03085         314.153         67.9349 
        1.03698         312.015          67.036 
        1.04314         310.866         66.1498 
        1.04929         308.764         65.2819 
        1.05541         305.113         64.4332 
        1.06154         303.738         63.5976 
        1.06769         300.924         62.7758 
        1.07382         299.827         61.9713 
        1.07993         297.524          61.183 
        1.08607          295.78         60.4052 
        1.09222         293.627         59.6404 
        1.09836         292.638         58.8898 
        1.10449         290.445         58.1532 
        1.11063         288.087         57.4285 
        1.11677         285.502         56.7165 
         1.1229         284.868          56.018 
        1.12903         282.673         55.3308 
        1.13518         280.554         54.6546 
        1.14131         279.854         53.9903 
        1.14745         276.427         53.3374 
        1.15359          274.51         52.6954 
        1.15973         273.562         52.0638 
        1.16584         271.963         51.4455 
        1.17197         270.174         50.8364 
        1.17811         267.768         50.2355 
        1.18424         266.413         49.6461 
        1.19038         265.148         49.0646 
        1.19652          262.08         48.4927 
        1.20267         261.783           47.93 
        1.20881         259.709         47.3765 
        1.21495         258.911         46.8326 
        1.22108         256.906         46.2975 
         1.2272         253.943         45.7721 
        1.23334         253.321         45.2537 
        1.23949         252.027         44.7422 
        1.24562         250.413         44.2401 
        1.25174         248.682         43.7465 
        1.25789         246.524          43.259 
        1.26402          246.31         42.7799 
        1.27014         245.146         42.3093 
        1.27628         242.552         41.8445 
        1.28244         241.322         41.3858 
        1.28858         239.831         40.9346 
        1.29471         238.653         40.4913 
        1.30084         237.449         40.0549 
        1.30697         234.993         39.6244 
        1.31312         233.676         39.1997 
        1.31925         232.457         38.7825 
        1.32537         231.593          38.372 
        1.33151         229.838         37.9659 
        1.33765          228.18          37.566 
        1.34378         226.962         37.1727 
        1.34992         225.238         36.7849 
        1.35606         224.273         36.4018 
         1.3622         222.746         36.0248 
        1.36833         221.311         35.6542 
        1.37445         220.893          35.289 
        1.38059         218.527         34.9279 
        1.38675         217.153          34.571 
        1.39288         216.164         34.2205 
        1.39901         214.424         33.8751 
        1.40515         213.722         33.5338 
         1.4113         211.953         33.1973 
        1.41742          210.29         32.8668 
        1.42355         210.558         32.5402 
         1.4297         208.586         32.2171 
        1.43585         207.351         31.8985 
        1.44198          205.61         31.5855 
        1.44809         204.894         31.2774 
        1.45423         203.727         30.9722 
        1.46036         202.349         30.6717 
        1.46649         201.258         30.3751 
        1.47263          200.34         30.0823 
        1.47877         198.827         29.7934 
        1.48491          197.24          29.508 
        1.49104         195.639         29.2269 
        1.49718         195.052         28.9493 
        1.50333         193.455         28.6748 
        1.50947         192.763         28.4045 
         1.5156         191.591         28.1382 
        1.52172         190.581         27.8752 
        1.52787         189.317         27.6152 
          1.534         188.565         27.3588 
        1.54013         187.217         27.1059 
        1.54627         186.202         26.8558 
        1.55241         185.237         26.6089 
        1.55855         184.393         26.3654 
        1.56467          183.02         26.1257 
         1.5708         181.549         25.8883 
        1.57695         180.873         25.6535 
        1.58308         179.545         25.4222 
        1.58922          178.65         25.1936 
        1.59535         177.151         24.9679 
         1.6015         176.532         24.7447 
        1.60764         175.395         24.5243 
        1.61376         174.038         24.3073 
        1.61989         173.199         24.0928 
        1.62604         172.064         23.8803 
        1.63218         171.281         23.6706 
        1.63831          170.48         23.4639 
        1.64444         169.097         23.2596 
        1.65059         168.371         23.0573 
        1.65673         167.166         22.8576 
        1.66285         166.458         22.6609 
        1.66898         165.401         22.4664 
        1.67512          164.38         22.2739 
        1.68127         163.516         22.0835 
         1.6874         162.479         21.8957 
        1.69353         161.862         21.7102 
        1.69967         160.476         21.5265 
        1.70581         160.079          21.345 
        1.71193          158.74         21.1663 
        1.71806         157.574         20.9892 
        1.72421         156.934         20.8139 
        1.73035         155.934         20.6408 
        1.73649         154.849         20.4696 
        1.74262          154.42         20.3006 
        1.74876         153.497         20.1334 
        1.75489         152.732         19.9684 
        1.76101         151.387         19.8054 
        1.76715         150.507         19.6439 
        1.77329         149.617         19.4841 
        1.77943         148.685          19.326 
        1.78557         148.108         19.1699 
        1.79171         147.317         19.0155 
        1.79785         146.201         18.8628 
        1.80399          145.49         18.7118 
        1.81012         144.529         18.5626 
        1.81625         143.846         18.4152 
        1.82239         142.894         18.2692 
        1.82853         142.168         18.1248 
        1.83466         141.062         17.9822 
        1.84078         140.676         17.8412 
        1.84692         139.954         17.7015 
        1.85306         138.868         17.5632 
         1.8592         138.371         17.4266 
        1.86533         137.095         17.2915 
        1.87147         136.611         17.1577 
        1.87761         135.673         17.0253 
        1.88375         134.636         16.8944 
        1.88988         134.197         16.7651 
        1.89601          133.78          16.637 
        1.90215         133.117         16.5102 
        1.90829          131.68         16.3848 
        1.91442          130.98         16.2607 
        1.92056         130.356          16.138 
         1.9267         129.608         16.0164 
        1.93284         128.752         15.8961 
        1.93897         128.107         15.7772 
        1.94509         127.401         15.6598 
        1.95123         126.754         15.5433 
        1.95737         126.091         15.4279 
        1.96349         125.251          15.314 
        1.96964         124.586         15.2009 
        1.97578         123.874         15.0889 
        1.98192          123.34         14.9783 
        1.98805         122.625         14.8687 
        1.99419         121.508         14.7603 
        2.00033         121.191         14.6529 
        2.00647         120.631         14.5466 
         2.0126         119.802         14.4416 
        2.01874         119.269         14.3374 
        2.02488         118.316         14.2342 
        2.03101         117.948         14.1322 
        2.03714         117.056         14.0313 
        2.04328         116.655         13.9312 
        2.04941         116.158         13.8323 
        2.05554         115.454         13.7343 
        2.06167         114.506         13.6372 
        2.06781         113.922         13.5411 
        2.07396         113.405         13.4457 
        2.08009         112.579         13.3514 
        2.08622         112.091         13.2581 
        2.09237         111.236         13.1656 
        2.09851          110.93         13.0739 
        2.10464          110.25         12.9832 
        2.11077         109.609         12.8936 
        2.11691         109.161         12.8045 
        2.12305         108.517         12.7164 
        2.12918         107.819         12.6292 
        2.13531         107.183         12.5429 
        2.14145          106.67         12.4572 
         2.1476         106.017         12.3722 
        2.15372         105.419         12.2884 
        2.15985         104.799         12.2053 
        2.16599         104.143         12.1228 
        2.17213         103.662         12.0411 
        2.17827         102.973         11.9602 
         2.1844         102.743         11.8801 
        2.19054         101.909         11.8007 
        2.19666         101.261         11.7222 
         2.2028         100.905         11.6443 
        2.20893         100.477         11.5671 
        2.21508         99.7293         11.4905 
        2.22122         99.2697         11.4146 
        2.22736         98.8871         11.3395 
        2.23349          98.174         11.2651 
        2.23962         97.6063         11.1914 
        2.24577         97.1689         11.1183 
         2.2519         96.4841         11.0459 
        2.25802         96.0907         10.9743 
        2.26417         95.4447         10.9031 
        2.27031         94.8466         10.8325 
        2.27644         94.5319         10.7627 
        2.28257         93.9667         10.6935 
        2.28872         93.5438         10.6249 
        2.29486         93.3121         10.5568 
        2.30099         92.3721         10.4895 
        2.30712         92.1396         10.4228 
        2.31326         91.6203         10.3565 
         2.3194         91.0133         10.2908 
        2.32553         90.4699         10.2258 
        2.33166         90.0284         10.1614 
         2.3378         89.6884         10.0975 
        2.34394         89.0741         10.0341 
        2.35007         88.3963         9.97138 
        2.35619         88.1425         9.90925 
        2.36233         87.6658          9.8475 
        2.36848         87.0587         9.78616 
        2.37462         86.8022         9.72547 
        2.38075         86.2232         9.66535 
        2.38689         85.8619          9.6057 
        2.39303         85.3905         9.54656 
        2.39916         84.9628         9.48799 
        2.40529         84.5528         9.42992 
        2.41143          84.134         9.37229 
        2.41757          83.527         9.31512 
         2.4237         83.0693         9.25854 
        2.42983         82.6148         9.20243 
        2.43598         82.3778         9.14665 
        2.44211         81.9534         9.09142 
        2.44823         81.4215         9.03677 
        2.45437         81.0417         8.98243 
        2.46052         80.5451         8.92849 
        2.46665         80.0289         8.87508 
        2.47279         79.7804         8.82214 
        2.47892         79.3667          8.7696 
        2.48507         78.9922         8.71744 
         2.4912         78.3744          8.6658 
