# k  (h/Mpc)    P(k)  (Mpc/h)^3    P_linear(k)  (Mpc/h)^3
     0.00783031         6591.38         6637.56 
       0.013688          8162.7         8326.65 
       0.019231         8497.05         8589.71 
      0.0249154         8126.96         8120.92 
      0.0312784         7179.66         7228.69 
      0.0375637         6247.49         6324.58 
      0.0433917         5605.47         5625.07 
      0.0492413         5040.92         5092.28 
      0.0555754          4651.8         4669.99 
      0.0619321         4220.28         4335.79 
       0.067871         3981.92         4042.44 
      0.0738098         3694.81         3732.05 
      0.0800417         3361.75         3382.84 
      0.0862327         3004.12         3032.69 
      0.0921407         2706.87         2723.84 
      0.0982031         2466.73         2455.52 
       0.104506         2223.27         2238.72 
       0.110769         2073.29         2080.35 
       0.116806         1987.85         1965.62 
       0.122832         1868.09         1868.97 
       0.129052         1775.39         1770.45 
       0.135211         1694.37         1663.97 
       0.141259          1566.4          1549.9 
       0.147318          1437.2         1432.36 
       0.153489         1342.51          1318.6 
       0.159709         1269.41         1218.35 
       0.165845         1162.88         1137.71 
       0.171974         1132.95          1074.7 
       0.178125         1088.09          1024.8 
       0.184229         1018.01         982.537 
        0.19034         993.971         941.806 
       0.196428         957.433         899.063 
       0.202534         892.722         852.926 
       0.208729         868.362         804.122 
       0.214876         828.849         756.477 
       0.220989         772.825         712.703 
       0.227147         753.475         674.184 
        0.23329         724.505         641.841 
       0.239377         709.688         614.984 
       0.245482          674.95          591.61 
       0.251667         648.682         569.678 
       0.257832         640.732         547.999 
       0.263955         605.631         525.867 
       0.270079         584.142         503.135 
        0.27624         558.337         480.278 
       0.282372         544.458         458.432 
        0.28843         539.217          438.46 
       0.294538         512.118         420.382 
       0.300721         495.034         404.167 
        0.30691         487.108         389.673 
       0.313033         466.488         376.485 
       0.319153          458.47         363.902 
       0.325316         447.658          351.42 
        0.33145         436.766         339.032 
       0.337538         421.288         326.812 
       0.343633         408.271         314.869 
       0.349808         397.398           303.3 
       0.355968         389.034         292.501 
       0.362074         378.221         282.597 
       0.368217         373.675         273.411 
       0.374374         365.609         264.844 
       0.380519         350.925         256.756 
       0.386598         345.828          249.06 
       0.392688           337.7         241.536 
        0.39888         329.396         234.041 
       0.405048         323.328         226.755 
       0.411186         320.527          219.73 
       0.417313         314.467         213.013 
       0.423458          305.85         206.621 
       0.429607         298.753         200.571 
       0.435692         293.382         194.914 
       0.441815             288         189.505 
       0.447964         280.406           184.3 
       0.454126          276.26         179.265 
       0.460267           272.7         174.403 
       0.466387         267.487          169.69 
        0.47254         264.054         165.088 
       0.478662         256.492         160.664 
       0.484765         253.463          156.42 
       0.490885         249.999         152.335 
       0.497035         246.658           148.4 
       0.503198         243.819         144.626 
       0.509342         237.344         141.011 
       0.515458         234.575         137.542 
       0.521598         229.357          134.17 
       0.527764         226.801         130.889 
       0.533884         226.109         127.732 
           0.54         220.939         124.672 
       0.546137         216.046         121.698 
       0.552299         214.483         118.809 
       0.558452         210.767         116.025 
       0.564573         209.354         113.354 
       0.570708         204.767         110.768 
       0.576825         201.927         108.273 
       0.582926         199.788         105.864 
       0.589034         197.049         103.524 
       0.595184         195.495         101.239 
       0.601379         191.387         99.0058 
       0.607522         188.151          96.856 
       0.613639         186.729         94.7776 
       0.619772         184.782         92.7552 
       0.625918         183.181          90.789 
       0.632068         179.186         88.8812 
       0.638161         177.292         87.0481 
         0.6443         176.431         85.2554 
       0.650464         173.136         83.5079 
       0.656582          172.18          81.822 
       0.662703          170.44         80.1816 
       0.668861         167.076         78.5763 
       0.675024         167.059         77.0134 
       0.681124         164.453         75.5088 
       0.687237         162.173         74.0419 
       0.693381          161.03         72.6079 
       0.699536         159.045         71.2103 
       0.705665         157.067         69.8561 
       0.711789         155.221         68.5389 
       0.717957         153.593         67.2471 
        0.72409         152.392         65.9959 
       0.730186         152.024         64.7843 
       0.736317         149.409         63.5965 
       0.742472         147.484         62.4343 
       0.748622         145.292         61.3024 
        0.75476         145.601         60.2012 
       0.760888         144.156          59.129 
       0.767043         141.714         58.0789 
       0.773185          140.24         57.0567 
       0.779291         138.623         56.0653 
       0.785407         137.446         55.0962 
       0.791564         136.697         54.1441 
       0.797719         134.938         53.2152 
       0.803834         134.561         52.3141 
       0.809972         133.642         51.4308 
       0.816124         131.787         50.5661 
       0.822261         130.442         49.7238 
       0.828378         130.227         48.9032 
       0.834502          128.11         48.1007 
       0.840667          127.59         47.3111 
       0.846816         126.415         46.5415 
       0.852925         125.069         45.7941 
       0.859047         124.199         45.0616 
       0.865192         123.103         44.3429 
       0.871341         121.751         43.6395 
       0.877463         120.932         42.9547 
       0.883569         120.725         42.2864 
       0.889708          119.66          41.629 
       0.895864         118.501          40.984 
       0.902008         117.418         40.3541 
       0.908149         115.921          39.738 
       0.914301         115.966         39.1338 
       0.920448         115.319         38.5428 
       0.926574         113.261         37.9661 
       0.932687         113.133         37.4026 
       0.938823         112.196         36.8485 
       0.944975         110.953         36.3045 
       0.951105         110.103         35.7735 
       0.957225         110.008         35.2541 
       0.963368         108.693         34.7433 
       0.969511         107.834         34.2427 
       0.975621         106.966         33.7546 
       0.981748         106.082         33.2749 
       0.987916         105.456         32.8016 
        0.99406         105.009         32.3393 
        1.00019         103.811         31.8868 
        1.00632         103.218         31.4435 
        1.01246         102.512          31.008 
        1.01859         102.013         30.5815 
        1.02471         101.117         30.1636 
        1.03085         100.229         29.7521 
        1.03698         99.6383         29.3492 
        1.04314           98.94          28.952 
        1.04929         98.5581         28.5632 
        1.05541         97.8339         28.1831 
        1.06154         97.2306          27.809 
        1.06769         96.3328         27.4412 
        1.07382         95.5631         27.0813 
        1.07993         95.2471         26.7287 
        1.08607         94.4303         26.3809 
        1.09222         94.1633          26.039 
        1.09836         93.1436         25.7036 
        1.10449         92.6807         25.3746 
        1.11063         92.0115         25.0509 
        1.11677         91.4737         24.7331 
         1.1229         90.7472         24.4213 
        1.12903         90.4652         24.1147 
        1.13518         90.0077         23.8131 
        1.14131         89.2923         23.5169 
        1.14745         88.6604         23.2259 
        1.15359         87.6813         22.9398 
        1.15973         87.5719         22.6584 
        1.16584         86.9772          22.383 
        1.17197         86.3527         22.1118 
        1.17811         85.7899         21.8443 
        1.18424         85.0568         21.5821 
        1.19038         85.0182         21.3234 
        1.19652          84.414          21.069 
        1.20267         83.7583         20.8188 
        1.20881         83.2627         20.5728 
        1.21495         82.8473         20.3311 
        1.22108         82.4495         20.0934 
         1.2272          81.655           19.86 
        1.23334         81.4155         19.6299 
        1.23949         80.8876         19.4028 
        1.24562         80.2493           19.18 
        1.25174          79.772          18.961 
        1.25789         79.7699         18.7448 
        1.26402         79.0325         18.5324 
        1.27014         78.6804         18.3237 
        1.27628         77.9529         18.1177 
        1.28244         77.7566         17.9145 
        1.28858          77.251         17.7146 
        1.29471         76.8219         17.5183 
        1.30084         76.1509         17.3251 
        1.30697         76.1842         17.1345 
        1.31312         75.5055         16.9466 
        1.31925         75.0217         16.7621 
        1.32537         74.6272         16.5805 
        1.33151         74.3965         16.4009 
        1.33765         73.8265         16.2242 
        1.34378         73.5587         16.0504 
        1.34992         73.1487          15.879 
        1.35606         72.6274         15.7098 
         1.3622         72.3456         15.5433 
        1.36833         71.7796         15.3797 
        1.37445         71.2298         15.2185 
        1.38059         71.1216         15.0592 
        1.38675         70.3727         14.9017 
        1.39288         70.3905         14.7472 
        1.39901         69.6992         14.5949 
        1.40515         69.4897         14.4444 
         1.4113         69.2347         14.2961 
        1.41742          68.788         14.1505 
        1.42355         68.3788         14.0066 
         1.4297         68.0078         13.8643 
        1.43585          67.546          13.724 
        1.44198         67.2049         13.5863 
        1.44809          66.801         13.4506 
        1.45423         66.4954         13.3164 
        1.46036         66.0619         13.1842 
        1.46649         65.9067         13.0537 
        1.47263          65.511          12.925 
        1.47877         65.2477          12.798 
        1.48491         64.8753         12.6725 
        1.49104         64.3201          12.549 
        1.49718           64.11         12.4271 
        1.50333         63.7906         12.3065 
        1.50947         63.5045         12.1878 
         1.5156         63.2278         12.0709 
        1.52172         62.7681         11.9555 
        1.52787         62.3803         11.8414 
          1.534         62.1771         11.7289 
        1.54013          61.955          11.618 
        1.54627         61.3719         11.5083 
        1.55241         61.0757            11.4 
        1.55855         60.9256         11.2933 
        1.56467         60.3966         11.1882 
         1.5708         60.2939         11.0842 
        1.57695         59.9259         10.9814 
        1.58308         59.5628         10.8801 
        1.58922         59.2869           10.78 
        1.59535          59.102         10.6812 
         1.6015         59.0088         10.5835 
        1.60764         58.5743         10.4871 
        1.61376         58.1913         10.3921 
        1.61989         57.7712         10.2983 
        1.62604          57.583         10.2054 
        1.63218          57.311         10.1137 
        1.63831          57.123         10.0234 
        1.64444         56.8037          9.9341 
        1.65059         56.5507          9.8457 
        1.65673         56.1088         9.75848 
        1.66285         55.9746         9.67256 
        1.66898         55.4561         9.58764 
        1.67512           55.37         9.50359 
        1.68127         55.0882         9.42047 
         1.6874         54.7453         9.33852 
        1.69353         54.5797         9.25761 
        1.69967         54.3465         9.17746 
        1.70581         53.9805         9.09829 
        1.71193         53.7299         9.02036 
        1.71806          53.452         8.94318 
        1.72421         53.2556         8.86675 
        1.73035         52.9994          8.7913 
        1.73649         52.6414         8.71674 
        1.74262         52.2776         8.64311 
        1.74876         52.1932         8.57028 
        1.75489         51.8239         8.49844 
        1.76101         51.5905         8.42745 
        1.76715         51.5927         8.35717 
        1.77329         51.0204         8.28761 
        1.77943          51.018         8.21881 
        1.78557         50.7672          8.1509 
        1.79171         50.4684         8.08374 
        1.79785         50.2137         8.01733 
        1.80399         49.9455         7.95168 
        1.81012         49.7572         7.88685 
        1.81625         49.4294         7.82278 
        1.82239         49.2199         7.75932 
        1.82853         49.0489          7.6966 
        1.83466         48.7629         7.63463 
        1.84078         48.5251         7.57341 
        1.84692         48.2694         7.51277 
        1.85306          48.037         7.45271 
         1.8592         47.9078         7.39341 
        1.86533         47.6164         7.33478 
        1.87147         47.3775         7.27673 
        1.87761         47.1039         7.21928 
        1.88375         46.9675         7.16252 
        1.88988         46.7739         7.10643 
        1.89601         46.4794         7.05091 
        1.90215         46.2625         6.99594 
        1.90829         46.0656         6.94158 
        1.91442         45.8013          6.8878 
        1.92056         45.6146         6.83463 
         1.9267         45.4719         6.78198 
        1.93284         45.2015         6.72985 
        1.93897          45.068         6.67836 
        1.94509          44.685         6.62753 
        1.95123         44.5311         6.57709 
        1.95737         44.2579         6.52715 
        1.96349         44.1647         6.47785 
        1.96964         43.9138         6.42892 
        1.97578         43.7306         6.38047 
        1.98192          43.501         6.33262 
        1.98805         43.2945         6.28526 
        1.99419         43.1304         6.23837 
        2.00033         42.9598         6.19195 
        2.00647         42.7888         6.14601 
         2.0126         42.5153         6.10061 
        2.01874         42.2983          6.0556 
        2.02488         42.0933         6.01101 
        2.03101          41.934         5.96695 
        2.03714         41.7269         5.92337 
        2.04328         41.5721         5.88018 
        2.04941         41.3322         5.83745 
        2.05554         41.2183         5.79518 
        2.06167         41.0272         5.75327 
        2.06781         40.7569         5.71177 
        2.07396         40.6049         5.67063 
        2.08009         40.4643         5.62995 
        2.08622         40.2465         5.58973 
        2.09237         40.0666         5.54982 
        2.09851         39.8601         5.51029 
        2.10464         39.6648         5.47121 
        2.11077         39.5302         5.43256 
        2.11691          39.259         5.39419 
        2.12305         39.0917          5.3562 
        2.12918         38.9592         5.31866 
        2.13531         38.8104         5.28148 
        2.14145          38.616         5.24457 
         2.1476         38.4066         5.20797 
        2.15372         38.3233          5.1719 
        2.15985         38.0337         5.13614 
        2.16599         37.8819         5.10061 
        2.17213         37.7236         5.06546 
        2.17827         37.5313         5.03065 
         2.1844         37.3626          4.9962 
        2.19054         37.1913         4.96205 
        2.19666         36.9935         4.92828 
         2.2028         36.8529         4.89479 
        2.20893         36.6914         4.86159 
        2.21508         36.5612         4.82867 
        2.22122         36.3487         4.79604 
        2.22736         36.1283         4.76378 
        2.23349         36.0175         4.73182 
        2.23962         35.8725         4.70014 
        2.24577         35.7287         4.66873 
         2.2519          35.509         4.63764 
        2.25802         35.3985         4.60689 
        2.26417         35.1984         4.57633 
        2.27031         35.0953         4.54602 
        2.27644         34.9919         4.51607 
        2.28257          34.681         4.48639 
        2.28872          34.668         4.45693 
        2.29486         34.4496         4.42773 
        2.30099         34.2516         4.39886 
        2.30712         34.1586         4.37023 
        2.31326         33.9736         4.34181 
         2.3194         33.8077         4.31365 
        2.32553         33.6905          4.2858 
        2.33166         33.5243          4.2582 
         2.3378         33.4031          4.2308 
        2.34394         33.2225         4.20364 
        2.35007         33.1086         4.17676 
        2.35619         32.9941         4.15014 
        2.36233         32.7679         4.12369 
        2.36848         32.6491         4.09742 
        2.37462         32.5405         4.07144 
        2.38075         32.3731          4.0457 
        2.38689         32.2309         4.02016 
        2.39303          32.163         3.99485 
        2.39916         31.8854         3.96979 
        2.40529         31.7405         3.94494 
        2.41143         31.6678         3.92028 
        2.41757         31.5447         3.89583 
         2.4237         31.3903         3.87163 
        2.42983         31.2603         3.84764 
        2.43598         31.1303         3.82378 
        2.44211         31.0003         3.80017 
        2.44823         30.7982         3.77681 
        2.45437         30.7588         3.75358 
        2.46052         30.5537         3.73053 
        2.46665         30.4135         3.70771 
        2.47279         30.2218          3.6851 
        2.47892         30.1753         3.66265 
        2.48507         30.0419         3.64037 
         2.4912         29.9414         3.61832 
