# k  (h/Mpc)    Pcb(k)  (Mpc/h)^3    Pcb_linear(k)  (Mpc/h)^3
     0.00783031         6953.29         6989.24 
       0.013688         8813.25         8986.18 
       0.019231         9295.63         9396.12 
      0.0249154         8945.89         8940.69 
      0.0312784         7891.08          7949.2 
      0.0375637         6806.59         6895.04 
      0.0433917         6038.06         6060.66 
      0.0492413         5369.17          5426.7 
      0.0555754         4929.51         4947.59 
      0.0619321         4479.97         4608.75 
       0.067871         4272.94         4342.73 
      0.0738098         4018.35         4067.41 
      0.0800417         3703.84         3739.15 
      0.0862327         3332.81          3378.8 
      0.0921407          3000.6         3031.04 
      0.0982031         2710.23         2704.21 
       0.104506         2405.94         2423.76 
       0.110769         2211.75         2215.18 
       0.116806         2105.95         2073.79 
       0.122832         1980.95         1973.96 
       0.129052         1899.76         1891.69 
       0.135211         1840.75         1810.19 
       0.141259         1725.12         1717.14 
       0.147318         1598.98         1607.96 
       0.153489         1497.96         1486.17 
       0.159709         1410.52         1363.87 
       0.165845         1278.81         1254.82 
       0.171974         1233.26         1164.77 
       0.178125         1175.18         1095.45 
       0.184229          1094.9         1044.78 
        0.19034         1073.71         1006.21 
       0.196428         1042.29          972.84 
       0.202534         980.859         938.234 
       0.208729         962.386         898.098 
       0.214876         923.014         852.614 
       0.220989         861.811         803.894 
       0.227147         837.552         754.952 
        0.23329         801.343         709.937 
       0.239377         782.221         671.567 
       0.245482          741.31         640.137 
       0.251667         712.505         614.762 
       0.257832         705.108         594.009 
       0.263955         669.171         575.509 
       0.270079         648.224          557.02 
        0.27624         621.794         537.062 
       0.282372         608.066         515.514 
        0.28843          602.58         493.138 
       0.294538         571.563         470.556 
       0.300721         552.304         448.929 
        0.30691         542.739         429.423 
       0.313033         519.157         412.688 
       0.319153         510.481         398.327 
       0.325316         499.804         385.732 
        0.33145         488.552         374.263 
       0.337538          471.85         363.239 
       0.343633         458.024         352.018 
       0.349808         446.332         340.288 
       0.355968         437.414         328.296 
       0.362074         424.886         316.449 
       0.368217         420.468         304.959 
       0.374374         411.451         294.187 
       0.380519         395.028         284.396 
       0.386598         389.812          275.63 
       0.392688         381.038          267.65 
        0.39888         371.537         260.118 
       0.405048         365.123         252.929 
       0.411186         362.483         245.903 
       0.417313         356.319         238.899 
       0.423458           346.5         231.865 
       0.429607         338.381         224.911 
       0.435692         332.456         218.213 
       0.441815         326.639         211.759 
       0.447964         318.641         205.663 
       0.454126          314.17         199.957 
       0.460267         310.005          194.63 
       0.466387         304.362         189.627 
        0.47254         300.521         184.823 
       0.478662         292.345          180.18 
       0.484765         289.097         175.639 
       0.490885         285.414         171.165 
       0.497035         281.369          166.75 
       0.503198         278.865          162.43 
       0.509342         271.465         158.264 
       0.515458         268.362         154.291 
       0.521598         262.702         150.489 
       0.527764         259.646         146.844 
       0.533884         259.044         143.386 
           0.54         253.547          140.07 
       0.546137          248.04         136.856 
       0.552299         246.656         133.715 
       0.558452         242.492          130.65 
       0.564573         240.796          127.67 
       0.570708         235.929         124.762 
       0.576825         232.561         121.947 
       0.582926         230.198         119.229 
       0.589034         227.169         116.596 
       0.595184         225.573         114.039 
       0.601379         221.099         111.559 
       0.607522         217.322         109.186 
       0.613639         215.832         106.899 
       0.619772         213.922          104.67 
       0.625918         211.966         102.493 
       0.632068         207.525         100.368 
       0.638161         205.633         98.3175 
         0.6443         204.537         96.3073 
       0.650464         200.866         94.3468 
       0.656582         199.634         92.4574 
       0.662703         197.857          90.622 
       0.668861         194.128         88.8285 
       0.675024         194.009         87.0849 
       0.681124         191.211         85.4082 
       0.687237         188.821         83.7742 
       0.693381         187.328         82.1765 
       0.699536         185.121         80.6182 
       0.705665         183.046         79.1065 
       0.711789         181.102         77.6339 
       0.717957          179.15         76.1873 
        0.72409         177.769         74.7849 
       0.730186         177.627         73.4261 
       0.736317         174.603         72.0941 
       0.742472         172.401         70.7911 
       0.748622         169.928         69.5231 
        0.75476         170.476         68.2902 
       0.760888         168.634         67.0902 
       0.767043         166.001         65.9151 
       0.773185         164.438          64.771 
       0.779291         162.505         63.6609 
       0.785407          161.39          62.575 
       0.791564         160.299         61.5075 
       0.797719         158.238         60.4653 
       0.803834         158.113         59.4538 
       0.809972         157.034         58.4619 
       0.816124         154.822         57.4907 
       0.822261         153.346         56.5444 
       0.828378         153.234         55.6226 
       0.834502         150.722         54.7209 
       0.840667         150.275         53.8338 
       0.846816          148.85         52.9691 
       0.852925         147.361         52.1292 
       0.859047         146.186          51.306 
       0.865192         145.283         50.4981 
       0.871341         143.619         49.7073 
       0.877463         142.629         48.9371 
       0.883569         142.473         48.1853 
       0.889708         141.247         47.4456 
       0.895864         139.885         46.7197 
       0.902008         138.677         46.0107 
       0.908149         136.968         45.3169 
       0.914301         137.077         44.6364 
       0.920448         136.282         43.9707 
       0.926574         134.077          43.321 
       0.932687         133.916          42.686 
       0.938823         132.877         42.0615 
       0.944975         131.479         41.4482 
       0.951105         130.492         40.8495 
       0.957225         130.336         40.2637 
       0.963368         128.848         39.6876 
       0.969511         127.846         39.1228 
       0.975621         126.833         38.5722 
       0.981748         125.866         38.0308 
       0.987916         125.186         37.4965 
        0.99406         124.626         36.9746 
        1.00019         123.356         36.4638 
        1.00632           122.7         35.9631 
        1.01246         121.882         35.4712 
        1.01859          121.24         34.9894 
        1.02471         120.303         34.5172 
        1.03085         119.252         34.0522 
        1.03698          118.55         33.5968 
        1.04314         117.827         33.1478 
        1.04929         117.431         32.7082 
        1.05541         116.605         32.2784 
        1.06154         115.856         31.8554 
        1.06769         114.863         31.4393 
        1.07382         114.035         31.0321 
        1.07993         113.603         30.6331 
        1.08607          112.64         30.2395 
        1.09222         112.313         29.8525 
        1.09836         111.142         29.4728 
        1.10449         110.578         29.1001 
        1.11063         109.913         28.7336 
        1.11677         109.194         28.3736 
         1.1229         108.428         28.0204 
        1.12903         108.062         27.6729 
        1.13518         107.447         27.3311 
        1.14131          106.73         26.9954 
        1.14745          106.03         26.6655 
        1.15359         104.887          26.341 
        1.15973         104.691         26.0219 
        1.16584         104.004         25.7096 
        1.17197         103.405          25.402 
        1.17811         102.666         25.0985 
        1.18424         101.958         24.8009 
        1.19038         101.874         24.5072 
        1.19652          101.07         24.2185 
        1.20267         100.386         23.9345 
        1.20881         99.8149         23.6552 
        1.21495         99.3257         23.3807 
        1.22108         98.8259         23.1107 
         1.2272         97.9167         22.8457 
        1.23334         97.7011         22.5842 
        1.23949         97.0958         22.3262 
        1.24562         96.2991          22.073 
        1.25174          95.741         21.8241 
        1.25789         95.6745         21.5783 
        1.26402         94.8948         21.3368 
        1.27014         94.4719         21.0996 
        1.27628         93.5843         20.8653 
        1.28244         93.4193         20.6342 
        1.28858         92.7478         20.4069 
        1.29471         92.2275         20.1835 
        1.30084         91.5519         19.9637 
        1.30697         91.5389         19.7469 
        1.31312          90.764          19.533 
        1.31925         90.2513         19.3229 
        1.32537         89.7785         19.1162 
        1.33151         89.5756         18.9118 
        1.33765         88.8251         18.7105 
        1.34378         88.5457         18.5125 
        1.34992         88.1148         18.3173 
        1.35606         87.5119         18.1245 
         1.3622         87.2061         17.9349 
        1.36833         86.4613         17.7484 
        1.37445         85.8813         17.5647 
        1.38059          85.689          17.383 
        1.38675         84.8754         17.2035 
        1.39288         84.8448         17.0273 
        1.39901         84.0113         16.8536 
        1.40515         83.7788          16.682 
         1.4113         83.4569         16.5129 
        1.41742         82.9083         16.3467 
        1.42355         82.5148         16.1826 
         1.4297         82.0284         16.0202 
        1.43585         81.5294         15.8601 
        1.44198           81.16         15.7029 
        1.44809         80.6474          15.548 
        1.45423         80.3035         15.3948 
        1.46036         79.7173         15.2438 
        1.46649         79.4854         15.0949 
        1.47263         79.0942         14.9478 
        1.47877         78.7773         14.8028 
        1.48491         78.2971         14.6595 
        1.49104         77.6951         14.5184 
        1.49718         77.4643          14.379 
        1.50333          77.038         14.2413 
        1.50947         76.7842         14.1056 
         1.5156         76.4383          13.972 
        1.52172          75.872         13.8401 
        1.52787         75.4165         13.7096 
          1.534         75.1762          13.581 
        1.54013         74.9058         13.4541 
        1.54627         74.2329         13.3287 
        1.55241         73.8784         13.2049 
        1.55855         73.6598         13.0828 
        1.56467         72.9773         12.9626 
         1.5708         72.8767         12.8435 
        1.57695         72.4618         12.7258 
        1.58308         72.0774         12.6099 
        1.58922         71.7655         12.4953 
        1.59535          71.556         12.3822 
         1.6015         71.3778         12.2704 
        1.60764          70.923           12.16 
        1.61376         70.4409         12.0512 
        1.61989         69.8977         11.9438 
        1.62604         69.7194         11.8373 
        1.63218         69.4278         11.7323 
        1.63831         69.1672         11.6288 
        1.64444         68.8461         11.5265 
        1.65059         68.4617         11.4252 
        1.65673         67.9513         11.3252 
        1.66285         67.6985         11.2267 
        1.66898         67.1946         11.1294 
        1.67512         67.1034          11.033 
        1.68127         66.7639         10.9377 
         1.6874         66.3276         10.8437 
        1.69353         66.1028         10.7509 
        1.69967         65.8148          10.659 
        1.70581         65.4452         10.5682 
        1.71193         65.1285         10.4788 
        1.71806         64.7248         10.3902 
        1.72421         64.5719         10.3025 
        1.73035         64.2804         10.2159 
        1.73649         63.8546         10.1304 
        1.74262          63.381         10.0459 
        1.74876         63.2876         9.96227 
        1.75489         62.8263         9.87979 
        1.76101         62.5529         9.79828 
        1.76715         62.5448         9.71758 
        1.77329         61.8988         9.63769 
        1.77943         61.8352         9.55867 
        1.78557         61.5801         9.48066 
        1.79171         61.2005         9.40351 
        1.79785          60.914          9.3272 
        1.80399         60.5907         9.25176 
        1.81012         60.3312         9.17727 
        1.81625         60.0385         9.10363 
        1.82239         59.7766         9.03069 
        1.82853          59.467         8.95859 
        1.83466         59.2067         8.88735 
        1.84078          58.891         8.81696 
        1.84692         58.6413         8.74723 
        1.85306         58.3522         8.67817 
         1.8592         58.1722         8.60996 
        1.86533          57.771         8.54253 
        1.87147         57.5372         8.47575 
        1.87761         57.2165         8.40965 
        1.88375         56.9932         8.34435 
        1.88988         56.7743          8.2798 
        1.89601         56.4316         8.21591 
        1.90215         56.1534         8.15265 
        1.90829         55.9777         8.09008 
        1.91442         55.6502         8.02817 
        1.92056          55.418         7.96696 
         1.9267         55.1868         7.90634 
        1.93284         54.9601         7.84631 
        1.93897         54.7349         7.78702 
        1.94509         54.2927         7.72847 
        1.95123         54.0825         7.67038 
        1.95737         53.7859         7.61285 
        1.96349         53.6374         7.55606 
        1.96964         53.3363         7.49968 
        1.97578          53.114         7.44386 
        1.98192         52.8536         7.38873 
        1.98805         52.6283         7.33414 
        1.99419         52.3815         7.28011 
        2.00033         52.1997          7.2266 
        2.00647         51.9619         7.17364 
         2.0126         51.6248         7.12131 
        2.01874         51.4352         7.06941 
        2.02488         51.1587           7.018 
        2.03101         50.9727         6.96719 
        2.03714         50.7268         6.91693 
        2.04328          50.506         6.86711 
        2.04941         50.2178         6.81783 
        2.05554         50.1155         6.76906 
        2.06167         49.9154         6.72071 
        2.06781         49.4779         6.67283 
        2.07396         49.2964         6.62535 
        2.08009         49.1724         6.57841 
        2.08622         48.9198         6.53198 
        2.09237         48.6845         6.48592 
        2.09851         48.4437         6.44029 
        2.10464         48.2258         6.39517 
        2.11077         48.0459         6.35055 
        2.11691         47.7216         6.30625 
        2.12305         47.5153         6.26238 
        2.12918         47.3465         6.21903 
        2.13531         47.1999         6.17609 
        2.14145         46.9024         6.13346 
         2.1476         46.7137         6.09118 
        2.15372          46.606         6.04951 
        2.15985         46.2319         6.00819 
        2.16599         46.0819         5.96714 
        2.17213         45.8741         5.92653 
        2.17827         45.6302         5.88629 
         2.1844         45.4116         5.84648 
        2.19054         45.2261         5.80701 
        2.19666         44.9864         5.76797 
         2.2028         44.7691         5.72925 
        2.20893          44.578         5.69087 
        2.21508         44.4185         5.65281 
        2.22122         44.2038         5.61507 
        2.22736         43.9197         5.57777 
        2.23349         43.8154         5.54081 
        2.23962         43.5897         5.50417 
        2.24577         43.4157         5.46783 
         2.2519         43.1473         5.43186 
        2.25802         43.0513         5.39629 
        2.26417         42.8199         5.36093 
        2.27031         42.6451         5.32586 
        2.27644          42.529          5.2912 
        2.28257         42.1036         5.25686 
        2.28872         42.1642         5.22275 
        2.29486         41.8923         5.18896 
        2.30099         41.6408         5.15554 
        2.30712         41.5597          5.1224 
        2.31326         41.2735         5.08949 
         2.3194         41.0665         5.05689 
        2.32553         40.9554         5.02464 
        2.33166         40.7006         4.99268 
         2.3378         40.5446         4.96095 
        2.34394         40.3748         4.92949 
        2.35007           40.19         4.89835 
        2.35619         40.1202         4.86752 
        2.36233         39.7846         4.83688 
        2.36848         39.6706         4.80644 
        2.37462         39.5048         4.77633 
        2.38075         39.3762         4.74651 
        2.38689         39.2151         4.71691 
        2.39303         39.0404         4.68758 
        2.39916         38.7349         4.65853 
        2.40529         38.5896         4.62972 
        2.41143         38.4465         4.60114 
        2.41757         38.3346         4.57279 
         2.4237         38.1438         4.54473 
        2.42983         37.9527         4.51691 
        2.43598         37.8177         4.48925 
        2.44211         37.6482         4.46187 
        2.44823         37.4039         4.43478 
        2.45437         37.3377         4.40784 
        2.46052         37.0852          4.3811 
        2.46665         36.9419         4.35463 
        2.47279         36.7086         4.32839 
        2.47892         36.6368         4.30235 
        2.48507         36.4955          4.2765 
         2.4912         36.3249         4.25091 
