# k  (h/Mpc)    Pcb(k)  (Mpc/h)^3    Pcb_linear(k)  (Mpc/h)^3
     0.00783031         1974.52         1987.05 
       0.013688         2523.99         2555.67 
       0.019231         2657.11         2672.66 
      0.0249154         2544.27         2543.33 
      0.0312784         2255.97         2261.41 
      0.0375637         1952.36         1961.58 
      0.0433917         1726.05         1724.25 
      0.0492413         1539.37         1543.91 
      0.0555754         1410.82         1407.62 
      0.0619321         1295.63         1311.23 
       0.067871         1230.45         1235.56 
      0.0738098         1154.04         1157.23 
      0.0800417         1063.69         1063.84 
      0.0862327         958.178         961.321 
      0.0921407         860.187         862.379 
      0.0982031         772.278         769.394 
       0.104506         687.131         689.601 
       0.110769         629.511         630.258 
       0.116806         595.197         590.031 
       0.122832          561.95         561.627 
       0.129052         540.423         538.222 
       0.135211         519.804         515.034 
       0.141259         489.987         488.561 
       0.147318         455.598         457.496 
       0.153489          424.08         422.846 
       0.159709          393.07         388.048 
       0.165845         357.541         357.021 
       0.171974         339.206         331.401 
       0.178125         319.837         311.678 
       0.184229         302.082          297.26 
        0.19034         293.895         286.288 
       0.196428         284.013         276.793 
       0.202534         269.702         266.947 
       0.208729         261.815         255.528 
       0.214876         250.739         242.587 
       0.220989         233.214         228.725 
       0.227147         224.091           214.8 
        0.23329          212.53         201.992 
       0.239377         203.257         191.075 
       0.245482         193.008         182.133 
       0.251667         184.596         174.913 
       0.257832         181.381         169.008 
       0.263955         173.195         163.745 
       0.270079         167.638         158.484 
        0.27624         160.763         152.806 
       0.282372         155.323         146.675 
        0.28843         152.088         140.309 
       0.294538         144.847         133.883 
       0.300721         137.853          127.73 
        0.30691         134.419          122.18 
       0.313033         128.811         117.419 
       0.319153         126.326         113.333 
       0.325316         121.109         109.749 
        0.33145         117.483         106.486 
       0.337538         114.268         103.349 
       0.343633         111.169         100.157 
       0.349808         107.559         96.8195 
       0.355968         104.241         93.4074 
       0.362074         101.999         90.0367 
       0.368217         98.8955         86.7676 
       0.374374         96.5408         83.7028 
       0.380519         92.3718         80.9169 
       0.386598         89.8817         78.4229 
       0.392688         87.3548         76.1524 
        0.39888         85.7743         74.0094 
       0.405048         83.8411          71.964 
       0.411186         81.8175          69.965 
       0.417313         79.6006          67.972 
       0.423458          77.408         65.9707 
       0.429607         76.0428         63.9921 
       0.435692         74.6688         62.0865 
       0.441815         71.8981         60.2502 
       0.447964          69.786         58.5158 
       0.454126         68.5464         56.8922 
       0.460267         67.9167         55.3766 
       0.466387         66.0721         53.9533 
        0.47254         65.1788         52.5863 
       0.478662         63.1038         51.2652 
       0.484765         61.8995         49.9731 
       0.490885         60.1953         48.7001 
       0.497035         59.4069         47.4442 
       0.503198         57.9962          46.215 
       0.509342          56.504         45.0297 
       0.515458         55.8249         43.8994 
       0.521598         54.5035         42.8175 
       0.527764         53.7984         41.7805 
       0.533884         52.7372         40.7966 
           0.54         51.6461         39.8532 
       0.546137         50.1683         38.9387 
       0.552299         49.3612         38.0451 
       0.558452         48.3863         37.1728 
       0.564573          48.014          36.325 
       0.570708         46.6864         35.4976 
       0.576825         46.1266         34.6968 
       0.582926          45.393         33.9232 
       0.589034         44.5283         33.1743 
       0.595184         43.9591         32.4468 
       0.601379         42.7939         31.7411 
       0.607522         42.1847          31.066 
       0.613639         41.5697         30.4151 
       0.619772         40.8755          29.781 
       0.625918         40.1057         29.1615 
       0.632068          39.783          28.557 
       0.638161         38.9852         27.9736 
         0.6443         38.4363         27.4016 
       0.650464         37.5172         26.8438 
       0.656582         37.3079         26.3062 
       0.662703          36.885          25.784 
       0.668861         35.9372         25.2737 
       0.675024         35.5675         24.7776 
       0.681124         35.3089         24.3005 
       0.687237         34.6102         23.8356 
       0.693381         33.9603         23.3811 
       0.699536         33.8156         22.9377 
       0.705665          33.201         22.5076 
       0.711789         32.6421         22.0886 
       0.717957         32.0295          21.677 
        0.72409         31.7586          21.278 
       0.730186         31.6122         20.8914 
       0.736317          30.988         20.5124 
       0.742472         30.6091         20.1417 
       0.748622         30.1472         19.7809 
        0.75476         29.4499         19.4301 
       0.760888         29.3711         19.0887 
       0.767043         28.8897         18.7543 
       0.773185          28.615         18.4288 
       0.779291         28.3135          18.113 
       0.785407         27.8528          17.804 
       0.791564         27.7101         17.5003 
       0.797719         27.1396         17.2037 
       0.803834         27.0122         16.9159 
       0.809972         26.5271         16.6337 
       0.816124         26.2601         16.3574 
       0.822261         25.9857         16.0882 
       0.828378         25.7251         15.8259 
       0.834502         25.4769         15.5693 
       0.840667         25.2156         15.3169 
       0.846816         24.6829         15.0709 
       0.852925         24.6269         14.8319 
       0.859047         24.3538         14.5977 
       0.865192         24.0229         14.3679 
       0.871341         23.7236         14.1428 
       0.877463         23.4957         13.9237 
       0.883569         23.3724         13.7098 
       0.889708         23.0123         13.4994 
       0.895864          22.732         13.2928 
       0.902008         22.4796         13.0911 
       0.908149          22.225         12.8937 
       0.914301          22.122         12.7001 
       0.920448         21.7977         12.5107 
       0.926574         21.6372         12.3258 
       0.932687          21.371         12.1451 
       0.938823         21.1161         11.9675 
       0.944975         20.9572          11.793 
       0.951105         20.7473         11.6226 
       0.957225         20.6277         11.4559 
       0.963368         20.3208          11.292 
       0.969511         20.1311         11.1313 
       0.975621         19.9544         10.9747 
       0.981748         19.7143         10.8206 
       0.987916         19.5935         10.6686 
        0.99406         19.3779         10.5201 
        1.00019         19.2412         10.3748 
        1.00632         19.0799         10.2323 
        1.01246         18.9094         10.0924 
        1.01859         18.6891         9.95527 
        1.02471         18.5041         9.82093 
        1.03085         18.4369         9.68861 
        1.03698         18.2721         9.55904 
        1.04314          18.054         9.43131 
        1.04929          17.846         9.30624 
        1.05541         17.7833         9.18395 
        1.06154         17.6356         9.06358 
        1.06769         17.4885          8.9452 
        1.07382         17.2436         8.82934 
        1.07993         17.1097         8.71581 
        1.08607         17.0377         8.60382 
        1.09222         16.8373         8.49371 
        1.09836         16.7564         8.38567 
        1.10449          16.562         8.27965 
        1.11063         16.4893         8.17537 
        1.11677         16.3953         8.07293 
         1.1229         16.2345         7.97244 
        1.12903         16.1185         7.87358 
        1.13518         15.9152         7.77633 
        1.14131         15.8448          7.6808 
        1.14745         15.6308         7.58693 
        1.15359         15.5174         7.49462 
        1.15973         15.3969         7.40383 
        1.16584         15.2829         7.31496 
        1.17197         15.1543         7.22744 
        1.17811         15.0452         7.14109 
        1.18424         14.9499         7.05641 
        1.19038         14.8725         6.97287 
        1.19652         14.7361         6.89073 
        1.20267         14.6405         6.80992 
        1.20881         14.4851         6.73043 
        1.21495         14.3821         6.65235 
        1.22108         14.3377         6.57553 
         1.2272         14.2153         6.50011 
        1.23334         14.1414         6.42571 
        1.23949         14.0092         6.35231 
        1.24562         13.8938         6.28026 
        1.25174         13.8256         6.20945 
        1.25789         13.6764         6.13952 
        1.26402         13.6402         6.07081 
        1.27014         13.5669         6.00332 
        1.27628         13.3938         5.93666 
        1.28244         13.3921         5.87089 
        1.28858         13.2625         5.80622 
        1.29471         13.0962         5.74267 
        1.30084          13.026         5.68013 
        1.30697         13.0182         5.61844 
        1.31312         12.8762         5.55758 
        1.31925         12.8119         5.49782 
        1.32537         12.7276           5.439 
        1.33151         12.6386         5.38083 
        1.33765         12.5488         5.32356 
        1.34378          12.526         5.26724 
        1.34992         12.4027          5.2117 
        1.35606         12.2966         5.15684 
         1.3622         12.2117         5.10288 
        1.36833         12.1717         5.04983 
        1.37445         12.0981         4.99756 
        1.38059         12.0243         4.94587 
        1.38675         11.9426          4.8948 
        1.39288         11.8312         4.84466 
        1.39901         11.7779         4.79525 
        1.40515         11.7024         4.74642 
         1.4113         11.6161         4.69829 
        1.41742         11.5765         4.65102 
        1.42355         11.4674         4.60431 
         1.4297          11.425         4.55811 
        1.43585         11.3666         4.51257 
        1.44198         11.3026         4.46782 
        1.44809         11.2315         4.42377 
        1.45423         11.1424         4.38016 
        1.46036         11.0913         4.33722 
        1.46649         11.0201         4.29484 
        1.47263         10.9742           4.253 
        1.47877         10.9003         4.21173 
        1.48491         10.8503         4.17095 
        1.49104         10.7606         4.13081 
        1.49718         10.7292         4.09116 
        1.50333         10.6591         4.05197 
        1.50947         10.5832         4.01338 
         1.5156         10.5534         3.97535 
        1.52172         10.4873         3.93782 
        1.52787         10.4336         3.90069 
          1.534         10.3741          3.8641 
        1.54013         10.3258         3.82801 
        1.54627         10.2558         3.79232 
        1.55241         10.1741         3.75708 
        1.55855         10.1659         3.72235 
        1.56467         10.0952         3.68815 
         1.5708         10.0506         3.65428 
        1.57695         9.97301         3.62079 
        1.58308         9.91242         3.58781 
        1.58922         9.87882         3.55521 
        1.59535         9.82083         3.52303 
         1.6015         9.74134         3.49121 
        1.60764         9.71315         3.45979 
        1.61376         9.68243         3.42886 
        1.61989         9.59363         3.39827 
        1.62604         9.57213           3.368 
        1.63218         9.52776         3.33811 
        1.63831         9.46953         3.30866 
        1.64444         9.39394         3.27955 
        1.65059         9.35442         3.25073 
        1.65673         9.32967         3.22229 
        1.66285         9.28066         3.19426 
        1.66898         9.23541         3.16657 
        1.67512         9.17813         3.13915 
        1.68127         9.11318         3.11203 
         1.6874         9.09276         3.08529 
        1.69353         9.03079         3.05889 
        1.69967         9.00119         3.03273 
        1.70581          8.9387         3.00689 
        1.71193         8.91886         2.98146 
        1.71806         8.87433         2.95626 
        1.72421          8.8126         2.93131 
        1.73035         8.78043         2.90667 
        1.73649         8.74446         2.88233 
        1.74262         8.66781         2.85828 
        1.74876         8.67385         2.83449 
        1.75489         8.61776         2.81103 
        1.76101         8.55413         2.78784 
        1.76715         8.54167         2.76487 
        1.77329         8.50243         2.74215 
        1.77943         8.43382         2.71966 
        1.78557         8.43382         2.69747 
        1.79171         8.38755         2.67551 
        1.79785         8.35127          2.6538 
        1.80399         8.27567         2.63234 
        1.81012         8.26364         2.61114 
        1.81625          8.2079         2.59019 
        1.82239         8.17938         2.56944 
        1.82853         8.13043         2.54892 
        1.83466         8.08013         2.52866 
        1.84078         8.06513         2.50863 
        1.84692         8.03228         2.48879 
        1.85306         7.99653         2.46914 
         1.8592         7.96978         2.44973 
        1.86533          7.9382         2.43055 
        1.87147         7.88868         2.41155 
        1.87761         7.87086         2.39274 
        1.88375         7.82028         2.37416 
        1.88988         7.78157          2.3558 
        1.89601         7.76553         2.33762 
        1.90215         7.70621         2.31962 
        1.90829         7.69128         2.30182 
        1.91442         7.64388          2.2842 
        1.92056         7.64004         2.26679 
         1.9267            7.58         2.24954 
        1.93284         7.57757         2.23246 
        1.93897         7.52438         2.21559 
        1.94509         7.47499         2.19893 
        1.95123         7.46681          2.1824 
        1.95737         7.43787         2.16603 
        1.96349         7.37954         2.14987 
        1.96964         7.35812         2.13383 
        1.97578         7.33159         2.11795 
        1.98192         7.29477         2.10226 
        1.98805         7.27224         2.08673 
        1.99419         7.25226         2.07136 
        2.00033         7.20281         2.05614 
        2.00647         7.19073         2.04107 
         2.0126         7.15822         2.02618 
        2.01874         7.12438         2.01141 
        2.02488         7.09985         1.99678 
        2.03101         7.05472         1.98233 
        2.03714          7.0248         1.96803 
        2.04328         7.00675         1.95385 
        2.04941         6.96752         1.93983 
        2.05554         6.95777         1.92596 
        2.06167         6.92653          1.9122 
        2.06781         6.89225         1.89858 
        2.07396         6.86357         1.88507 
        2.08009         6.83799         1.87171 
        2.08622          6.8212          1.8585 
        2.09237         6.80317         1.84539 
        2.09851         6.75027         1.83241 
        2.10464          6.7355         1.81958 
        2.11077         6.70963         1.80688 
        2.11691         6.69901         1.79428 
        2.12305         6.65488         1.78179 
        2.12918         6.63651         1.76946 
        2.13531         6.60579         1.75724 
        2.14145         6.58541         1.74511 
         2.1476         6.55934         1.73308 
        2.15372         6.52855         1.72123 
        2.15985         6.51399         1.70947 
        2.16599         6.48876         1.69779 
        2.17213         6.47824         1.68623 
        2.17827         6.42991         1.67479 
         2.1844         6.40997         1.66346 
        2.19054         6.39265         1.65223 
        2.19666         6.36598         1.64112 
         2.2028         6.32982         1.63011 
        2.20893         6.32416         1.61919 
        2.21508         6.30175         1.60835 
        2.22122         6.25149         1.59762 
        2.22736         6.24348           1.587 
        2.23349         6.22048         1.57649 
        2.23962         6.20817         1.56606 
        2.24577         6.16752         1.55572 
         2.2519         6.16557         1.54549 
        2.25802         6.11345         1.53537 
        2.26417         6.10736         1.52531 
        2.27031         6.08194         1.51533 
        2.27644         6.05854         1.50547 
        2.28257         6.03741          1.4957 
        2.28872         6.02411           1.486 
        2.29486         5.99742         1.47638 
        2.30099         5.97539         1.46687 
        2.30712         5.95411         1.45744 
        2.31326         5.93182         1.44808 
         2.3194         5.90834          1.4388 
        2.32553         5.88293         1.42963 
        2.33166         5.86967         1.42053 
         2.3378         5.84925         1.41151 
        2.34394         5.82648         1.40256 
        2.35007         5.79911          1.3937 
        2.35619         5.79378         1.38492 
        2.36233         5.75774         1.37621 
        2.36848         5.74928         1.36754 
        2.37462         5.72685         1.35898 
        2.38075         5.71614         1.35049 
        2.38689          5.6936         1.34207 
        2.39303         5.66494         1.33373 
        2.39916         5.65271         1.32546 
        2.40529         5.62517         1.31726 
        2.41143         5.61448         1.30913 
        2.41757         5.59778         1.30107 
         2.4237         5.57115         1.29308 
        2.42983         5.56254         1.28517 
        2.43598         5.54608          1.2773 
        2.44211          5.5221         1.26951 
        2.44823         5.49133          1.2618 
        2.45437         5.47872         1.25413 
        2.46052         5.46437         1.24653 
        2.46665         5.45116         1.23899 
        2.47279         5.41906         1.23153 
        2.47892         5.40457         1.22412 
        2.48507         5.39394         1.21676 
         2.4912         5.37195         1.20948 
