# k  (h/Mpc)    Pcb(k)  (Mpc/h)^3    Pcb_linear(k)  (Mpc/h)^3
     0.00783031         9194.75         9263.73 
       0.013688         10096.8         10298.3 
       0.019231          9310.6         9401.48 
      0.0249154         7805.06         7755.39 
      0.0312784         5912.97          5907.5 
      0.0375637         4507.17         4521.89 
      0.0433917          3724.1         3701.45 
      0.0492413         3237.74         3235.99 
      0.0555754         3000.21          2976.2 
      0.0619321         2758.64         2803.95 
       0.067871         2602.65         2611.18 
      0.0738098         2347.85         2343.89 
      0.0800417         2023.71         2004.36 
      0.0862327         1683.61         1667.18 
      0.0921407         1426.26         1398.43 
      0.0982031         1246.45         1203.15 
       0.104506         1106.88         1084.67 
       0.110769         1053.05         1029.44 
       0.116806         1034.68         1004.48 
       0.122832         993.383         977.902 
       0.129052         944.041         927.851 
       0.135211         881.564         850.796 
       0.141259         784.371         758.466 
       0.147318         691.628         666.066 
       0.153489         620.674         586.977 
       0.159709         574.439          530.37 
       0.165845         527.405         496.911 
       0.171974         520.986         479.632 
       0.178125         506.186         469.621 
       0.184229         481.844         458.299 
        0.19034         468.607         439.826 
       0.196428         445.363         413.035 
       0.202534         404.929         380.555 
       0.208729          385.49         346.901 
       0.214876         360.064         317.522 
       0.220989         332.071          294.99 
       0.227147         322.061         279.402 
        0.23329         309.934         269.378 
       0.239377         305.334         262.277 
       0.245482         291.539         255.309 
       0.251667         279.635         246.413 
       0.257832         274.332         234.998 
       0.263955         256.281         221.774 
       0.270079         242.718         208.023 
        0.27624         230.665         195.157 
       0.282372         222.399         184.363 
        0.28843         218.948         175.975 
       0.294538         208.123         169.537 
       0.300721         200.762         164.303 
        0.30691         197.348         159.497 
       0.313033         188.385         154.437 
       0.319153         184.777         148.763 
       0.325316         178.709         142.445 
        0.33145         172.383         135.933 
       0.337538         165.264         129.668 
       0.343633         159.797         123.988 
       0.349808         154.471         119.009 
       0.355968         150.763         114.819 
       0.362074         146.629         111.237 
       0.368217         143.733         107.939 
       0.374374          139.85          104.71 
       0.380519         133.966          101.38 
       0.386598         131.251         97.9628 
       0.392688         126.841         94.4763 
        0.39888         124.444         90.9789 
       0.405048         121.109         87.6892 
       0.411186         119.039         84.6854 
       0.417313         116.091         81.9707 
       0.423458         112.956         79.5126 
       0.429607         109.997         77.2361 
       0.435692         108.357         75.0767 
       0.441815         105.201         72.9454 
       0.447964         101.974         70.8137 
       0.454126         100.078         68.6773 
       0.460267         99.0028         66.5832 
       0.466387         96.1575         64.5735 
        0.47254         95.0451         62.6541 
       0.478662         91.7828          60.857 
       0.484765         90.2144         59.1828 
       0.490885         88.1269         57.6064 
       0.497035         87.2476         56.0939 
       0.503198         85.5516         54.6253 
       0.509342         83.3116         53.1952 
       0.515458         81.8101         51.8037 
       0.521598         79.6542         50.4371 
       0.527764         78.8894         49.1006 
       0.533884         78.1528         47.8194 
           0.54         75.9427         46.5949 
       0.546137         74.1146         45.4252 
       0.552299         72.6902         44.3037 
       0.558452         71.4596         43.2282 
       0.564573         71.0545          42.194 
       0.570708         68.9767         41.1889 
       0.576825         68.2073          40.216 
       0.582926         67.3681         39.2731 
       0.589034         66.0818         38.3546 
       0.595184         65.1337         37.4561 
       0.601379         63.7558         36.5796 
       0.607522         62.2725         35.7397 
       0.613639         61.8262          34.934 
       0.619772         60.5534         34.1554 
       0.625918         60.1407          33.402 
       0.632068         58.7853         32.6718 
       0.638161         57.9939          31.969 
         0.6443         57.5492         31.2798 
       0.650464         56.1188         30.6062 
       0.656582         55.9081         29.9562 
       0.662703         55.0546         29.3245 
       0.668861         53.8436         28.7081 
       0.675024         53.6562         28.1101 
       0.681124         52.7721         27.5365 
       0.687237         51.9367         26.9785 
       0.693381          51.151         26.4338 
       0.699536         50.6358         25.9034 
       0.705665         49.9895         25.3895 
       0.711789         49.1994         24.8896 
       0.717957         48.4866         24.3995 
        0.72409         47.9248          23.925 
       0.730186         47.6002         23.4661 
       0.736317         46.8344         23.0167 
       0.742472         46.0816         22.5777 
       0.748622         45.4598         22.1509 
        0.75476           45.11         21.7363 
       0.760888          44.807         21.3332 
       0.767043         43.8318         20.9388 
       0.773185         43.1817         20.5554 
       0.779291         42.7703         20.1838 
       0.785407         42.3823         19.8208 
       0.791564         42.1446         19.4645 
       0.797719          41.292         19.1171 
       0.803834         41.0966         18.7803 
       0.809972         40.6289         18.4505 
       0.816124         40.0677         18.1279 
       0.822261          39.498         17.8139 
       0.828378         39.3718         17.5083 
       0.834502         38.8963         17.2097 
       0.840667         38.5185         16.9161 
       0.846816         38.0855         16.6303 
       0.852925         37.6207          16.353 
       0.859047         37.4589         16.0815 
       0.865192         36.8963         15.8152 
       0.871341         36.5142         15.5549 
       0.877463         36.0688         15.3016 
       0.883569           36.01         15.0547 
       0.889708         35.5393          14.812 
       0.895864         35.2404          14.574 
       0.902008         34.8812         14.3418 
       0.908149         34.3859         14.1148 
       0.914301         34.1503         13.8924 
       0.920448         34.0476          13.675 
       0.926574         33.4666          13.463 
       0.932687         33.1799         13.2561 
       0.938823         32.8306         13.0527 
       0.944975         32.4581         12.8532 
       0.951105          32.243         12.6586 
       0.957225         31.9875         12.4683 
       0.963368         31.7242         12.2814 
       0.969511         31.4196         12.0983 
       0.975621         31.1469         11.9199 
       0.981748         30.8793         11.7447 
       0.987916         30.5502         11.5719 
        0.99406         30.3457         11.4032 
        1.00019         30.0304         11.2383 
        1.00632          29.824         11.0768 
        1.01246         29.5685         10.9183 
        1.01859         29.3336         10.7631 
        1.02471          29.083         10.6111 
        1.03085           28.84         10.4615 
        1.03698         28.7123         10.3152 
        1.04314         28.4163          10.171 
        1.04929         28.0783           10.03 
        1.05541          28.029          9.8922 
        1.06154         27.7301         9.75666 
        1.06769         27.4429         9.62347 
        1.07382         27.2297         9.49321 
        1.07993         27.1066         9.36566 
        1.08607         26.8256         9.23995 
        1.09222         26.6722         9.11641 
        1.09836         26.4648         8.99529 
        1.10449         26.3069         8.87652 
        1.11063         26.0543         8.75977 
        1.11677         25.9992         8.64517 
         1.1229         25.7121         8.53283 
        1.12903         25.5096         8.42239 
        1.13518         25.4241         8.31382 
        1.14131         25.1991         8.20724 
        1.14745         24.9982         8.10259 
        1.15359         24.6962         7.99975 
        1.15973         24.6875         7.89866 
        1.16584         24.4508         7.79978 
        1.17197          24.217         7.70246 
        1.17811         24.0621         7.60651 
        1.18424         23.7868         7.51247 
        1.19038         23.6501         7.41976 
        1.19652           23.54         7.32866 
        1.20267         23.3828         7.23909 
        1.20881         23.2173         7.15104 
        1.21495         23.1685          7.0646 
        1.22108         23.0431          6.9796 
         1.2272         22.7596         6.89621 
        1.23334         22.6847           6.814 
        1.23949         22.5138         6.73293 
        1.24562         22.3713         6.65341 
        1.25174         22.2279         6.57529 
        1.25789         22.0572         6.49819 
        1.26402         21.9541         6.42247 
        1.27014         21.8389         6.34814 
        1.27628         21.6429         6.27477 
        1.28244         21.6677         6.20241 
        1.28858         21.3941          6.1313 
        1.29471          21.229         6.06146 
        1.30084         21.1041         5.99278 
        1.30697         21.0305         5.92506 
        1.31312         20.8878          5.8583 
        1.31925         20.7197         5.79277 
        1.32537         20.5552         5.72832 
        1.33151         20.4292         5.66461 
        1.33765         20.4119         5.60192 
        1.34378         20.2987          5.5403 
        1.34992         20.1013         5.47956 
        1.35606         19.9152         5.41961 
         1.3622         19.8864         5.36067 
        1.36833         19.8164         5.30274 
        1.37445         19.6328          5.2457 
        1.38059         19.4933         5.18933 
        1.38675         19.4571         5.13365 
        1.39288          19.302         5.07901 
        1.39901         19.1638          5.0252 
        1.40515         19.0729         4.97205 
         1.4113         19.0143         4.91968 
        1.41742         18.8891         4.86828 
        1.42355         18.7113         4.81751 
         1.4297         18.6861         4.76731 
        1.43585         18.5793         4.71786 
        1.44198         18.4706         4.66929 
        1.44809         18.3397          4.6215 
        1.45423         18.2841          4.5742 
        1.46036         18.2002         4.52765 
        1.46649         18.0681         4.48173 
        1.47263          17.975         4.43642 
        1.47877         17.8421         4.39175 
        1.48491         17.7608         4.34763 
        1.49104         17.6637         4.30421 
        1.49718         17.6536         4.26135 
        1.50333         17.5353           4.219 
        1.50947         17.3589         4.17732 
         1.5156         17.3596         4.13626 
        1.52172         17.2457         4.09576 
        1.52787         17.1973         4.05572 
          1.534         17.0484         4.01626 
        1.54013         17.0454         3.97737 
        1.54627         16.9041         3.93893 
        1.55241          16.822         3.90099 
        1.55855         16.7181          3.8636 
        1.56467         16.6048          3.8268 
         1.5708         16.5959         3.79038 
        1.57695         16.4895         3.75438 
        1.58308         16.3673         3.71893 
        1.58922         16.3095         3.68391 
        1.59535         16.2433         3.64936 
         1.6015         16.1893         3.61521 
        1.60764         16.0768          3.5815 
        1.61376         15.9977         3.54832 
        1.61989         15.8878         3.51554 
        1.62604          15.825          3.4831 
        1.63218         15.7106         3.45108 
        1.63831         15.6695         3.41955 
        1.64444         15.6216         3.38839 
        1.65059         15.5216         3.35755 
        1.65673         15.4643         3.32713 
        1.66285         15.3961         3.29717 
        1.66898         15.3231         3.26757 
        1.67512         15.2693         3.23828 
        1.68127         15.1907         3.20932 
         1.6874         15.1332         3.18078 
        1.69353         15.0258          3.1526 
        1.69967         14.9389          3.1247 
        1.70581         14.9134         3.09714 
        1.71193         14.8396         3.07003 
        1.71806         14.7691         3.04318 
        1.72421         14.7179          3.0166 
        1.73035         14.6378         2.99037 
        1.73649         14.5242         2.96445 
        1.74262         14.5056         2.93887 
        1.74876         14.4712         2.91357 
        1.75489         14.3535         2.88862 
        1.76101         14.3077         2.86397 
        1.76715         14.2085         2.83957 
        1.77329         14.1589         2.81543 
        1.77943         14.1187         2.79156 
        1.78557         14.0806           2.768 
        1.79171         13.9974         2.74471 
        1.79785         13.9148         2.72168 
        1.80399         13.8315         2.69892 
        1.81012         13.8109         2.67645 
        1.81625         13.7269         2.65425 
        1.82239         13.6725         2.63227 
        1.82853         13.6209         2.61054 
        1.83466         13.5547         2.58908 
        1.84078         13.4852         2.56789 
        1.84692         13.4383          2.5469 
        1.85306         13.4055         2.52612 
         1.8592         13.3671          2.5056 
        1.86533         13.3058         2.48532 
        1.87147         13.2187         2.46524 
        1.87761         13.1737         2.44538 
        1.88375         13.1083         2.42576 
        1.88988         13.0567         2.40638 
        1.89601          13.011         2.38719 
        1.90215         12.9429          2.3682 
        1.90829         12.9073         2.34943 
        1.91442          12.825         2.33086 
        1.92056         12.7918          2.3125 
         1.9267         12.7454         2.29433 
        1.93284         12.7112         2.27634 
        1.93897         12.6335         2.25857 
        1.94509          12.595         2.24104 
        1.95123         12.5191         2.22364 
        1.95737         12.4523         2.20642 
        1.96349         12.4361         2.18943 
        1.96964         12.3933         2.17256 
        1.97578         12.3511         2.15586 
        1.98192         12.2818         2.13938 
        1.98805         12.2346         2.12306 
        1.99419         12.1887         2.10692 
        2.00033         12.1244         2.09093 
        2.00647         12.0772         2.07512 
         2.0126         12.0145         2.05949 
        2.01874         11.9836           2.044 
        2.02488         11.9265         2.02866 
        2.03101         11.8901         2.01351 
        2.03714         11.8376         1.99852 
        2.04328         11.7951         1.98367 
        2.04941         11.7342         1.96898 
        2.05554         11.7185         1.95445 
        2.06167         11.6786         1.94005 
        2.06781         11.6423         1.92579 
        2.07396         11.5833         1.91165 
        2.08009         11.5312         1.89768 
        2.08622         11.4943         1.88387 
        2.09237         11.4485         1.87016 
        2.09851         11.4023         1.85659 
        2.10464         11.3499         1.84318 
        2.11077         11.3128         1.82992 
        2.11691          11.266         1.81675 
        2.12305         11.2211         1.80372 
        2.12918         11.1782         1.79084 
        2.13531         11.1484         1.77809 
        2.14145         11.0975         1.76544 
         2.1476         11.0356         1.75289 
        2.15372         11.0434         1.74053 
        2.15985         10.9732         1.72827 
        2.16599         10.9297          1.7161 
        2.17213         10.8967         1.70406 
        2.17827          10.847         1.69214 
         2.1844         10.8054         1.68034 
        2.19054         10.7979         1.66865 
        2.19666         10.7378         1.65708 
         2.2028         10.7047         1.64562 
        2.20893         10.6474         1.63426 
        2.21508         10.6125         1.62299 
        2.22122         10.5711         1.61183 
        2.22736         10.5412          1.6008 
        2.23349         10.4961         1.58987 
        2.23962         10.4667         1.57903 
        2.24577         10.4431         1.56829 
         2.2519         10.3827         1.55766 
        2.25802         10.3395         1.54715 
        2.26417         10.3461         1.53671 
        2.27031         10.2757         1.52635 
        2.27644         10.2501         1.51612 
        2.28257         10.2055         1.50598 
        2.28872         10.1798         1.49592 
        2.29486         10.1635         1.48595 
        2.30099         10.0971         1.47609 
        2.30712         10.0705         1.46631 
        2.31326         10.0257         1.45661 
         2.3194         10.0019           1.447 
        2.32553         9.94696          1.4375 
        2.33166         9.90534         1.42808 
         2.3378         9.89937         1.41874 
        2.34394         9.84684         1.40947 
        2.35007         9.82634         1.40031 
        2.35619         9.79256         1.39123 
        2.36233         9.73988         1.38221 
        2.36848         9.70447         1.37326 
        2.37462         9.68027          1.3644 
        2.38075         9.62716         1.35563 
        2.38689         9.62278         1.34693 
        2.39303         9.57561         1.33831 
        2.39916         9.54338         1.32977 
        2.40529         9.50747         1.32131 
        2.41143         9.47474         1.31291 
        2.41757          9.4287         1.30458 
         2.4237         9.40837         1.29634 
        2.42983         9.38158         1.28818 
        2.43598         9.35514         1.28006 
        2.44211          9.3182         1.27202 
        2.44823         9.27178         1.26407 
        2.45437         9.26791         1.25617 
        2.46052         9.21677         1.24833 
        2.46665         9.20048         1.24057 
        2.47279         9.16667         1.23288 
        2.47892         9.13401         1.22525 
        2.48507         9.10813         1.21767 
         2.4912          9.0541         1.21018 
