# k  (h/Mpc)    Pcb(k)  (Mpc/h)^3    Pcb_linear(k)  (Mpc/h)^3
     0.00783031         4716.01         4736.73 
       0.013688         6306.22         6416.02 
       0.019231         6940.82         7007.42 
      0.0249154         6945.74          6952.9 
      0.0312784         6406.22         6458.31 
      0.0375637         5740.94         5818.35 
      0.0433917         5230.59         5259.07 
      0.0492413         4741.28         4802.15 
      0.0555754         4402.35         4433.84 
      0.0619321         4039.27         4160.45 
       0.067871         3869.75         3944.24 
      0.0738098         3664.91         3725.52 
      0.0800417         3418.79         3469.18 
      0.0862327         3125.56         3186.53 
      0.0921407         2853.43         2907.63 
      0.0982031          2609.8         2636.39 
       0.104506         2346.15          2392.9 
       0.110769         2165.64         2201.72 
       0.116806          2063.3         2064.43 
       0.122832         1939.02         1963.19 
       0.129052         1861.69         1880.26 
       0.135211         1804.11          1803.3 
       0.141259         1702.11         1720.92 
       0.147318         1588.87          1626.7 
       0.153489         1502.12         1520.84 
       0.159709         1421.68          1411.5 
       0.165845         1297.44         1309.92 
       0.171974         1252.11         1221.84 
       0.178125         1193.52         1150.31 
       0.184229         1113.45         1095.45 
        0.19034         1089.85          1052.9 
       0.196428         1057.47         1017.41 
       0.202534         999.427         983.247 
       0.208729         981.263         945.873 
       0.214876         946.941         904.297 
       0.220989         885.921          859.21 
       0.227147          864.86         812.508 
        0.23329         829.854          767.76 
       0.239377         807.554         727.893 
       0.245482         766.375         693.858 
       0.251667          736.47         665.529 
       0.257832         729.052          642.32 
       0.263955           692.8         622.385 
       0.270079         673.142         603.522 
        0.27624         646.046         584.049 
       0.282372         632.502          563.32 
        0.28843         628.003         541.542 
       0.294538         597.434             519 
       0.300721         576.342         496.628 
        0.30691         567.128          475.75 
       0.313033         544.129         457.247 
       0.319153         534.769         441.136 
       0.325316         522.112         427.015 
        0.33145         511.045         414.505 
       0.337538         494.606         402.879 
       0.343633         480.377         391.429 
       0.349808         468.463         379.587 
       0.355968         459.109         367.429 
       0.362074         448.014         355.188 
       0.368217         442.252         342.996 
       0.374374         433.283         331.291 
       0.380519         416.324         320.392 
       0.386598          410.26         310.546 
       0.392688         402.036         301.589 
        0.39888         392.298         293.243 
       0.405048         386.172         285.472 
       0.411186         382.683         278.011 
       0.417313         375.734         270.649 
       0.423458         365.816         263.274 
       0.429607          358.72         255.879 
       0.435692         351.876         248.644 
       0.441815         345.868         241.567 
       0.447964         337.361         234.764 
       0.454126          332.29         228.335 
       0.460267         328.635          222.35 
       0.466387         323.015         216.758 
        0.47254         319.253         211.435 
       0.478662         310.249         206.367 
       0.484765         306.914         201.457 
       0.490885         303.046         196.613 
       0.497035         299.681         191.806 
       0.503198         295.866         187.076 
       0.509342         288.114         182.466 
       0.515458          285.61         178.015 
       0.521598         279.394         173.718 
       0.527764         276.212         169.605 
       0.533884         275.945         165.716 
           0.54         269.794         161.996 
       0.546137         263.955         158.405 
       0.552299         262.668         154.918 
       0.558452         258.332         151.534 
       0.564573         256.646          148.24 
       0.570708         251.456         145.002 
       0.576825         247.999         141.844 
       0.582926         245.429         138.779 
       0.589034         242.597         135.807 
       0.595184         240.916         132.915 
       0.601379         235.555         130.103 
       0.607522         232.366          127.41 
       0.613639         230.518         124.818 
       0.619772         228.348         122.303 
       0.625918         226.461         119.857 
       0.632068         221.762         117.473 
       0.638161         219.205         115.165 
         0.6443         218.516         112.892 
       0.650464         214.922         110.664 
       0.656582         213.701          108.51 
       0.662703         211.778         106.416 
       0.668861         207.883         104.372 
       0.675024         207.887         102.388 
       0.681124         204.759          100.48 
       0.687237         201.759         98.6192 
       0.693381         201.011         96.7979 
       0.699536         198.381         95.0188 
       0.705665         195.768         93.2909 
       0.711789         193.766          91.607 
       0.717957         191.881         89.9529 
        0.72409         190.983          88.349 
       0.730186         189.981         86.7943 
       0.736317         186.777         85.2691 
       0.742472         184.741         83.7757 
       0.748622         182.212           82.32 
        0.75476         182.229         80.9028 
       0.760888         180.764         79.5217 
       0.767043         178.147         78.1681 
       0.773185         176.237         76.8495 
       0.779291         174.462         75.5694 
       0.785407         172.742         74.3172 
       0.791564         172.117          73.086 
       0.797719         170.344         71.8838 
       0.803834         169.388         70.7167 
       0.809972         168.769         69.5716 
       0.816124         166.655         68.4498 
       0.822261         164.716          67.356 
       0.828378         164.647         66.2897 
       0.834502         161.701          65.246 
       0.840667         161.289         64.2182 
       0.846816         159.989         63.2157 
       0.852925         158.435         62.2413 
       0.859047         157.244         61.2856 
       0.865192         155.904          60.347 
       0.871341         154.191         59.4278 
       0.877463         153.369         58.5322 
       0.883569         153.028         57.6575 
       0.889708         151.924         56.7965 
       0.895864         150.334         55.9511 
       0.902008         149.345          55.125 
       0.908149         147.457         54.3163 
       0.914301         147.549         53.5228 
       0.920448         146.365         52.7461 
       0.926574         144.354         51.9878 
       0.932687          143.93         51.2463 
       0.938823         142.717         50.5167 
       0.944975         141.179         49.7998 
       0.951105         140.318         49.0997 
       0.957225         140.378         48.4143 
       0.963368         138.681         47.7399 
       0.969511         137.443         47.0785 
       0.975621          136.62         46.4332 
       0.981748         135.492         45.7986 
       0.987916         134.586          45.172 
        0.99406          134.07         44.5596 
        1.00019         132.706         43.9599 
        1.00632          132.19          43.372 
        1.01246         131.143          42.794 
        1.01859         130.492         42.2277 
        1.02471         129.283         41.6724 
        1.03085          128.37         41.1253 
        1.03698         127.683         40.5892 
        1.04314         126.884         40.0606 
        1.04929         126.402         39.5428 
        1.05541         125.535         39.0363 
        1.06154         124.773         38.5375 
        1.06769         123.507         38.0468 
        1.07382         122.732         37.5664 
        1.07993         122.306         37.0954 
        1.08607          121.16         36.6307 
        1.09222         120.911         36.1736 
        1.09836         119.623         35.7249 
        1.10449         119.045         35.2844 
        1.11063         118.167          34.851 
        1.11677         117.684         34.4251 
         1.1229         116.728         34.0071 
        1.12903         116.494         33.5958 
        1.13518         115.851          33.191 
        1.14131         115.084         32.7932 
        1.14745         113.948         32.4022 
        1.15359         113.078         32.0176 
        1.15973         112.749         31.6392 
        1.16584         112.014         31.2686 
        1.17197         111.163         30.9035 
        1.17811         110.613         30.5432 
        1.18424          109.73         30.1897 
        1.19038         109.723         29.8409 
        1.19652         108.942         29.4978 
        1.20267         108.103         29.1601 
        1.20881         107.413         28.8278 
        1.21495         107.051         28.5013 
        1.22108         106.285           28.18 
         1.2272         105.549         27.8644 
        1.23334         105.055          27.553 
        1.23949         104.547         27.2456 
        1.24562          103.63         26.9439 
        1.25174         103.051         26.6472 
        1.25789         103.215         26.3541 
        1.26402         102.194          26.066 
        1.27014         101.622         25.7829 
        1.27628         100.776         25.5032 
        1.28244          100.42         25.2272 
        1.28858         99.9047         24.9557 
        1.29471          99.396         24.6888 
        1.30084         98.6658         24.4261 
        1.30697         98.6502         24.1669 
        1.31312         97.6863         23.9111 
        1.31925         97.2378         23.6599 
        1.32537         96.6664         23.4125 
        1.33151         96.3962         23.1679 
        1.33765         95.6116         22.9269 
        1.34378         95.4336         22.6898 
        1.34992          94.745          22.456 
        1.35606         94.1718          22.225 
         1.3622         93.6408         21.9977 
        1.36833         93.0038         21.7742 
        1.37445          92.365         21.5539 
        1.38059         92.1426          21.336 
        1.38675         91.3251         21.1206 
        1.39288         91.2306         20.9091 
        1.39901         90.4133         20.7006 
        1.40515         90.1894         20.4945 
         1.4113         89.8117         20.2913 
        1.41742         89.3418         20.0917 
        1.42355         88.5779         19.8944 
         1.4297         88.1485         19.6992 
        1.43585         87.6245         19.5067 
        1.44198         87.1599         19.3176 
        1.44809         86.7297         19.1313 
        1.45423         86.2563         18.9468 
        1.46036         85.7027         18.7652 
        1.46649         85.6346         18.5858 
        1.47263         85.0198         18.4087 
        1.47877         84.6677         18.2339 
        1.48491         84.2484         18.0612 
        1.49104         83.5989         17.8911 
        1.49718         83.2276         17.7231 
        1.50333          82.927          17.557 
        1.50947         82.3929         17.3934 
         1.5156         82.0357         17.2321 
        1.52172         81.5084         17.0729 
        1.52787         81.0647         16.9154 
          1.534         80.8197         16.7601 
        1.54013         80.4282         16.6069 
        1.54627         79.7844         16.4554 
        1.55241         79.3664         16.3058 
        1.55855         79.1633         16.1583 
        1.56467         78.5134          16.013 
         1.5708         78.3028         15.8691 
        1.57695         77.9168         15.7267 
        1.58308         77.3794         15.5865 
        1.58922         77.0923         15.4478 
        1.59535         76.8084          15.311 
         1.6015         76.6486         15.1756 
        1.60764         76.1658         15.0419 
        1.61376         75.6784         14.9102 
        1.61989         75.0851           14.78 
        1.62604         74.8722         14.6511 
        1.63218         74.5565         14.5238 
        1.63831         74.3056         14.3984 
        1.64444         73.7623         14.2744 
        1.65059          73.592         14.1515 
        1.65673         72.9287         14.0303 
        1.66285         72.8014         13.9108 
        1.66898         72.0691         13.7927 
        1.67512         72.0963         13.6757 
        1.68127         71.6077           13.56 
         1.6874         71.2029         13.4459 
        1.69353         70.9471         13.3332 
        1.69967         70.6337         13.2215 
        1.70581         70.1685         13.1112 
        1.71193         69.8688         13.0026 
        1.71806         69.5478         12.8949 
        1.72421         69.2622         12.7883 
        1.73035         68.9107          12.683 
        1.73649         68.5431         12.5789 
        1.74262          68.023         12.4761 
        1.74876         67.7012         12.3744 
        1.75489         67.3863          12.274 
        1.76101         67.0874         12.1748 
        1.76715         67.0043         12.0766 
        1.77329         66.3793         11.9793 
        1.77943         66.3572         11.8831 
        1.78557         66.0174         11.7881 
        1.79171         65.5836         11.6941 
        1.79785          65.273         11.6011 
        1.80399         64.9605         11.5091 
        1.81012         64.6557         11.4183 
        1.81625         64.2981         11.3285 
        1.82239         64.0278         11.2396 
        1.82853         63.8547         11.1516 
        1.83466          63.389         11.0647 
        1.84078         63.0476         10.9788 
        1.84692         62.7377         10.8937 
        1.85306         62.4752         10.8094 
         1.8592         62.2739         10.7262 
        1.86533         61.8958         10.6438 
        1.87147         61.6497         10.5623 
        1.87761         61.2408         10.4815 
        1.88375         61.1406         10.4017 
        1.88988         60.7769         10.3229 
        1.89601         60.4209         10.2448 
        1.90215         60.2038         10.1674 
        1.90829         59.8804          10.091 
        1.91442          59.592         10.0152 
        1.92056         59.2537         9.94039 
         1.9267         59.0303         9.86623 
        1.93284         58.7702         9.79278 
        1.93897         58.4952         9.72023 
        1.94509         58.0622         9.64857 
        1.95123         57.8254         9.57746 
        1.95737         57.5227         9.50702 
        1.96349         57.2548         9.43747 
        1.96964         57.0655         9.36842 
        1.97578          56.861         9.30004 
        1.98192          56.542         9.23248 
        1.98805         56.2637         9.16559 
        1.99419         56.0879         9.09937 
        2.00033         55.7955         9.03377 
        2.00647          55.509         8.96884 
         2.0126          55.218         8.90466 
        2.01874         54.8543         8.84102 
        2.02488         54.7231         8.77795 
        2.03101         54.4022         8.71562 
        2.03714         54.1503         8.65395 
        2.04328         53.9576         8.59281 
        2.04941         53.6513         8.53232 
        2.05554         53.5135         8.47246 
        2.06167         53.2416          8.4131 
        2.06781         52.9451          8.3543 
        2.07396         52.7354         8.29599 
        2.08009         52.5234         8.23833 
        2.08622          52.221         8.18129 
        2.09237         52.0254         8.12469 
        2.09851         51.6913         8.06861 
        2.10464         51.4346         8.01316 
        2.11077         51.2623          7.9583 
        2.11691         50.9602         7.90383 
        2.12305         50.8212         7.84988 
        2.12918         50.5064         7.79656 
        2.13531         50.2986         7.74374 
        2.14145         50.1017         7.69129 
         2.1476          49.797         7.63927 
        2.15372         49.6556         7.58799 
        2.15985         49.3171         7.53713 
        2.16599         49.2046          7.4866 
        2.17213         48.8891         7.43659 
        2.17827         48.6647         7.38706 
         2.1844         48.3977         7.33802 
        2.19054         48.2031         7.28941 
        2.19666         47.9459         7.24131 
         2.2028         47.7766         7.19361 
        2.20893         47.5366         7.14632 
        2.21508         47.3108          7.0994 
        2.22122         47.0819          7.0529 
        2.22736          46.855          7.0069 
        2.23349         46.6413         6.96133 
        2.23962          46.485         6.91615 
        2.24577         46.2587         6.87133 
         2.2519         46.0258         6.82697 
        2.25802         45.8236         6.78308 
        2.26417         45.5921         6.73945 
        2.27031         45.4885         6.69616 
        2.27644         45.2204         6.65339 
        2.28257         44.8779           6.611 
        2.28872         44.8109         6.56889 
        2.29486         44.5849         6.52717 
        2.30099         44.2966         6.48589 
        2.30712         44.1793         6.44496 
        2.31326         43.9405         6.40431 
         2.3194          43.785         6.36404 
        2.32553         43.5543         6.32418 
        2.33166         43.2844         6.28469 
         2.3378         43.2082         6.24548 
        2.34394         42.9404         6.20659 
        2.35007         42.7235         6.16809 
        2.35619         42.6194         6.12997 
        2.36233         42.4019         6.09209 
        2.36848         42.1822         6.05444 
        2.37462         42.0384          6.0172 
        2.38075         41.8423         5.98031 
        2.38689         41.6391          5.9437 
        2.39303         41.5322          5.9074 
        2.39916         41.1719         5.87144 
        2.40529         40.9525         5.83579 
        2.41143         40.9022         5.80042 
        2.41757          40.729         5.76532 
         2.4237         40.5142         5.73057 
        2.42983         40.3391         5.69612 
        2.43598          40.215         5.66186 
        2.44211         40.0098         5.62795 
        2.44823         39.7593         5.59438 
        2.45437          39.635           5.561 
        2.46052         39.4273         5.52787 
        2.46665         39.2017         5.49507 
        2.47279          38.983         5.46255 
        2.47892         38.9382         5.43026 
        2.48507         38.7047         5.39822 
         2.4912         38.5953         5.36649 
