# k  (h/Mpc)    Pcb(k)  (Mpc/h)^3    Pcb_linear(k)  (Mpc/h)^3
     0.00783031         1030.55         1041.63 
       0.013688          1112.8         1114.76 
       0.019231         1000.43         999.783 
      0.0249154         818.856         821.065 
      0.0312784         631.736          630.05 
      0.0375637           491.4         488.812 
      0.0433917         404.813         403.991 
      0.0492413         354.282         353.201 
      0.0555754         319.941         320.875 
      0.0619321         297.597         296.337 
       0.067871         270.243         270.918 
      0.0738098         239.667         240.139 
      0.0800417          204.18         204.702 
      0.0862327         172.037         171.615 
      0.0921407         146.825         146.099 
      0.0982031         128.037         127.687 
       0.104506         117.212         116.064 
       0.110769         110.423         109.623 
       0.116806         105.579         105.354 
       0.122832         101.067         100.576 
       0.129052         93.7379         93.7252 
       0.135211          85.201         85.0678 
       0.141259         76.4316          75.845 
       0.147318         68.1259         67.2511 
       0.153489         60.8912         60.1828 
       0.159709         55.8868         55.1441 
       0.165845         52.9473         51.9622 
       0.171974         50.4352         49.9115 
       0.178125         48.8419         48.2209 
       0.184229         46.9159          46.287 
        0.19034         44.1038         43.7923 
       0.196428         41.3771         40.8067 
       0.202534          38.494         37.6166 
       0.208729          35.301         34.5653 
       0.214876         32.6425         32.0103 
       0.220989         30.8313         30.0458 
       0.227147         29.1919         28.5879 
        0.23329         28.0551         27.4807 
       0.239377         27.1504         26.5182 
       0.245482         25.9322         25.5131 
       0.251667         25.0055          24.364 
       0.257832         23.6875         23.0932 
       0.263955          22.429         21.7821 
       0.270079         21.1689         20.5236 
        0.27624         20.1551         19.3937 
       0.282372         19.2266         18.4426 
        0.28843         18.3397         17.6659 
       0.294538         17.6466         17.0021 
       0.300721         17.1308         16.3961 
        0.30691         16.4171         15.8013 
       0.313033         15.8084         15.1961 
       0.319153         15.0562          14.568 
       0.325316         14.6056         13.9302 
        0.33145          13.954         13.3141 
       0.337538         13.3934         12.7457 
       0.343633         12.8189         12.2317 
       0.349808         12.4029         11.7687 
       0.355968         11.9852          11.354 
       0.362074         11.5756         10.9741 
       0.368217         11.2024         10.6086 
       0.374374         10.7996         10.2476 
       0.380519         10.4759         9.88985 
       0.386598         10.1467         9.54017 
       0.392688         9.84182         9.19973 
        0.39888         9.47733         8.87064 
       0.405048         9.17484         8.56367 
       0.411186         8.89813         8.27996 
       0.417313         8.60191         8.01684 
       0.423458         8.35977         7.76852 
       0.429607         8.09902         7.53126 
       0.435692         7.85126          7.3046 
       0.441815         7.63135         7.08222 
       0.447964         7.44841         6.86439 
       0.454126         7.18487         6.65307 
       0.460267         7.00152         6.45075 
       0.466387           6.771         6.25815 
        0.47254         6.60895         6.07417 
       0.478662         6.45671         5.90065 
       0.484765          6.2444         5.73587 
       0.490885         6.09013          5.5774 
       0.497035         5.98597         5.42393 
       0.503198         5.80041         5.27536 
       0.509342         5.65233         5.13191 
       0.515458         5.50496         4.99353 
       0.521598         5.37387          4.8593 
       0.527764         5.21783         4.72957 
       0.533884         5.12712           4.606 
           0.54         4.98936         4.48744 
       0.546137         4.87814           4.373 
       0.552299         4.76942         4.26232 
       0.558452         4.62978         4.15575 
       0.564573         4.54331          4.0533 
       0.570708         4.43673         3.95393 
       0.576825          4.3219         3.85795 
       0.582926         4.23446          3.7652 
       0.589034         4.11416         3.67533 
       0.595184          4.0379         3.58786 
       0.601379         3.94043         3.50281 
       0.607522         3.87451         3.42134 
       0.613639         3.80566         3.34289 
       0.619772         3.69541         3.26673 
       0.625918          3.6447         3.19278 
       0.632068         3.57987         3.12103 
       0.638161         3.48636         3.05208 
         0.6443         3.41306         2.98471 
       0.650464         3.33322         2.91913 
       0.656582         3.28947           2.856 
       0.662703         3.22118         2.79473 
       0.668861         3.16347         2.73493 
       0.675024         3.09361         2.67684 
       0.681124         3.02949         2.62103 
       0.687237         2.97955         2.56671 
       0.693381          2.9253         2.51367 
       0.699536         2.84574         2.46204 
       0.705665         2.80258         2.41209 
       0.711789         2.75332         2.36357 
       0.717957         2.69737         2.31606 
        0.72409          2.6477         2.27012 
       0.730186         2.60085         2.22571 
       0.736317         2.57178         2.18225 
       0.742472         2.52515          2.1398 
       0.748622         2.47184         2.09851 
        0.75476         2.42332         2.05841 
       0.760888         2.38111         2.01941 
       0.767043         2.35055         1.98127 
       0.773185         2.29861          1.9442 
       0.779291         2.26946         1.90828 
       0.785407         2.22784         1.87322 
       0.791564         2.19536         1.83883 
       0.797719         2.15902         1.80531 
       0.803834         2.13115         1.77285 
       0.809972         2.09509         1.74106 
       0.816124         2.05391         1.70999 
       0.822261         2.01305         1.67976 
       0.828378         1.98658         1.65036 
       0.834502         1.96598         1.62163 
       0.840667         1.92044         1.59341 
       0.846816         1.88956         1.56593 
       0.852925         1.87226         1.53928 
       0.859047         1.84126         1.51319 
       0.865192         1.81265         1.48762 
       0.871341         1.78929         1.46262 
       0.877463         1.76297         1.43831 
       0.883569          1.7288         1.41461 
       0.889708         1.70361         1.39132 
       0.895864         1.67626          1.3685 
       0.902008         1.65176         1.34624 
       0.908149         1.63306         1.32449 
       0.914301          1.6004         1.30318 
       0.920448         1.57955         1.28236 
       0.926574         1.55519         1.26207 
       0.932687         1.53326         1.24226 
       0.938823         1.51662          1.2228 
       0.944975         1.49529         1.20372 
       0.951105         1.47573         1.18511 
       0.957225         1.46297         1.16693 
       0.963368         1.43922         1.14907 
       0.969511          1.4161         1.13158 
       0.975621         1.39465         1.11455 
       0.981748         1.38033         1.09783 
       0.987916         1.35945         1.08134 
        0.99406         1.33639         1.06526 
        1.00019         1.32429         1.04953 
        1.00632         1.30454         1.03414 
        1.01246         1.28839         1.01903 
        1.01859         1.27217         1.00424 
        1.02471         1.25442        0.989774 
        1.03085         1.23957        0.975538 
        1.03698         1.22146        0.961612 
        1.04314         1.20865        0.947898 
        1.04929         1.19241        0.934483 
        1.05541         1.17858        0.921381 
        1.06154         1.16216        0.908497 
        1.06769          1.1509         0.89584 
        1.07382         1.13337        0.883466 
        1.07993         1.11721        0.871352 
        1.08607         1.11001        0.859416 
        1.09222         1.09282         0.84769 
        1.09836         1.08331        0.836197 
        1.10449         1.07036         0.82493 
        1.11063         1.05263        0.813857 
        1.11677         1.04098        0.802991 
         1.1229          1.0299        0.792342 
        1.12903         1.01701        0.781876 
        1.13518         1.00643         0.77159 
        1.14131         0.99212        0.761494 
        1.14745        0.975507        0.751585 
        1.15359        0.969007        0.741849 
        1.15973        0.953924        0.732281 
        1.16584         0.94914        0.722925 
        1.17197        0.937034        0.713719 
        1.17811        0.928484        0.704644 
        1.18424        0.918143        0.695754 
        1.19038        0.905739        0.686991 
        1.19652        0.894796        0.678382 
        1.20267        0.887799         0.66992 
        1.20881        0.875789        0.661605 
        1.21495        0.868132        0.653443 
        1.22108        0.858406         0.64542 
         1.2272         0.85157        0.637551 
        1.23334        0.839554        0.629794 
        1.23949        0.829792        0.622148 
        1.24562        0.822995         0.61465 
        1.25174        0.814082        0.607286 
        1.25789        0.805523        0.600021 
        1.26402        0.794805        0.592887 
        1.27014        0.787198        0.585886 
        1.27628         0.78238        0.578977 
        1.28244        0.770571        0.572166 
        1.28858        0.764082        0.565473 
        1.29471        0.755868        0.558902 
        1.30084        0.746512        0.552441 
        1.30697        0.740718        0.546072 
        1.31312        0.729965        0.539793 
        1.31925        0.725124        0.533633 
        1.32537        0.717499        0.527574 
        1.33151        0.712097        0.521588 
        1.33765        0.703287        0.515698 
        1.34378        0.695864         0.50991 
        1.34992        0.690509        0.504207 
        1.35606        0.681287        0.498578 
         1.3622        0.676751        0.493045 
        1.36833        0.669179        0.487609 
        1.37445        0.660889        0.482257 
        1.38059        0.656391         0.47697 
        1.38675        0.652936        0.471748 
        1.39288        0.644537        0.466625 
        1.39901        0.637877         0.46158 
        1.40515        0.632127        0.456599 
         1.4113        0.625881        0.451692 
        1.41742        0.620159        0.446876 
        1.42355        0.616965        0.442121 
         1.4297        0.608378        0.437421 
        1.43585        0.603221        0.432791 
        1.44198        0.600087        0.428245 
        1.44809        0.592346        0.423773 
        1.45423        0.587339        0.419348 
        1.46036        0.581722        0.414994 
        1.46649        0.576729          0.4107 
        1.47263        0.571064        0.406464 
        1.47877        0.565509        0.402288 
        1.48491        0.560698        0.398165 
        1.49104        0.555142        0.394108 
        1.49718        0.551536        0.390104 
        1.50333         0.54521         0.38615 
        1.50947        0.541597        0.382258 
         1.5156        0.536448        0.378425 
        1.52172        0.531441        0.374644 
        1.52787        0.526099        0.370908 
          1.534        0.522258        0.367227 
        1.54013        0.516971        0.363599 
        1.54627         0.51275        0.360014 
        1.55241        0.507786        0.356476 
        1.55855        0.503979         0.35299 
        1.56467        0.500984        0.349561 
         1.5708        0.494673        0.346167 
        1.57695        0.492342        0.342814 
        1.58308        0.487906        0.339512 
        1.58922        0.483239        0.336251 
        1.59535        0.479482        0.333034 
         1.6015        0.475034        0.329854 
        1.60764        0.471878        0.326717 
        1.61376        0.467544         0.32363 
        1.61989        0.463825        0.320579 
        1.62604        0.459254        0.317561 
        1.63218        0.456908        0.314584 
        1.63831        0.452657        0.311651 
        1.64444        0.448758        0.308755 
        1.65059         0.44514        0.305888 
        1.65673        0.440555        0.303061 
        1.66285         0.43794        0.300277 
        1.66898        0.436093        0.297527 
        1.67512        0.430417        0.294806 
        1.68127        0.426933        0.292116 
         1.6874        0.425248        0.289466 
        1.69353        0.420717         0.28685 
        1.69967        0.416965         0.28426 
        1.70581        0.414718        0.281704 
        1.71193        0.411075        0.279188 
        1.71806        0.408187        0.276697 
        1.72421        0.404816        0.274232 
        1.73035        0.401002        0.271799 
        1.73649        0.399155        0.269397 
        1.74262        0.395793        0.267025 
        1.74876         0.39212         0.26468 
        1.75489         0.38861        0.262368 
        1.76101        0.386299        0.260084 
        1.76715        0.383376        0.257824 
        1.77329        0.380963        0.255588 
        1.77943        0.377042        0.253378 
        1.78557        0.374273        0.251196 
        1.79171        0.372308         0.24904 
        1.79785        0.369044        0.246909 
        1.80399        0.366616        0.244803 
        1.81012        0.364061        0.242725 
        1.81625        0.361213        0.240671 
        1.82239        0.359025        0.238638 
        1.82853        0.355036        0.236629 
        1.83466        0.352943        0.234645 
        1.84078        0.349909        0.232686 
        1.84692        0.348292        0.230746 
        1.85306        0.346136        0.228826 
         1.8592        0.343324         0.22693 
        1.86533           0.341        0.225057 
        1.87147        0.338503        0.223203 
        1.87761        0.335832        0.221368 
        1.88375        0.333095        0.219557 
        1.88988        0.331509        0.217767 
        1.89601        0.328498        0.215996 
        1.90215         0.32642        0.214244 
        1.90829        0.323728        0.212512 
        1.91442         0.32186        0.210798 
        1.92056        0.319649        0.209105 
         1.9267        0.316978        0.207429 
        1.93284        0.315519         0.20577 
        1.93897        0.312523        0.204132 
        1.94509        0.311003        0.202516 
        1.95123         0.30843        0.200913 
        1.95737         0.30659        0.199325 
        1.96349        0.304002         0.19776 
        1.96964        0.302554        0.196206 
        1.97578        0.300067        0.194668 
        1.98192         0.29855         0.19315 
        1.98805        0.296132        0.191648 
        1.99419        0.294551        0.190161 
        2.00033        0.293106         0.18869 
        2.00647        0.290388        0.187234 
         2.0126        0.288534        0.185796 
        2.01874        0.286898        0.184371 
        2.02488        0.285245         0.18296 
        2.03101        0.282391        0.181565 
        2.03714        0.280308        0.180187 
        2.04328         0.27971        0.178821 
        2.04941        0.277296        0.177471 
        2.05554        0.275397        0.176135 
        2.06167        0.273676        0.174812 
        2.06781        0.271508        0.173501 
        2.07396        0.269635        0.172202 
        2.08009        0.268201        0.170919 
        2.08622        0.266445         0.16965 
        2.09237        0.265183        0.168391 
        2.09851        0.263441        0.167145 
        2.10464        0.261869        0.165914 
        2.11077        0.260248        0.164696 
        2.11691        0.258071        0.163488 
        2.12305        0.256633        0.162292 
        2.12918         0.25535         0.16111 
        2.13531        0.253161        0.159941 
        2.14145        0.252262         0.15878 
         2.1476        0.250193        0.157629 
        2.15372        0.249241        0.156495 
        2.15985        0.246974        0.155371 
        2.16599        0.245096        0.154255 
        2.17213        0.244178        0.153152 
        2.17827        0.243004        0.152059 
         2.1844        0.241563        0.150977 
        2.19054        0.239985        0.149906 
        2.19666        0.238204        0.148847 
         2.2028        0.237071        0.147797 
        2.20893        0.235778        0.146756 
        2.21508        0.234174        0.145724 
        2.22122        0.231795        0.144702 
        2.22736        0.231109        0.143692 
        2.23349        0.230203        0.142691 
        2.23962         0.22867          0.1417 
        2.24577        0.226705        0.140717 
         2.2519        0.225774        0.139744 
        2.25802        0.224168        0.138783 
        2.26417        0.222928        0.137827 
        2.27031        0.221543         0.13688 
        2.27644        0.220475        0.135944 
        2.28257         0.21927        0.135018 
        2.28872        0.217749        0.134097 
        2.29486        0.216505        0.133186 
        2.30099        0.215111        0.132285 
        2.30712         0.21408        0.131392 
        2.31326        0.212824        0.130505 
         2.3194        0.212241        0.129627 
        2.32553        0.210752        0.128759 
        2.33166          0.2096        0.127899 
         2.3378        0.208418        0.127046 
        2.34394        0.206457          0.1262 
        2.35007        0.205695        0.125362 
        2.35619        0.204713        0.124534 
        2.36233        0.202958        0.123711 
        2.36848        0.202269        0.122894 
        2.37462        0.200861        0.122085 
        2.38075         0.20024        0.121285 
        2.38689         0.19881        0.120491 
        2.39303        0.197949        0.119705 
        2.39916        0.196354        0.118926 
        2.40529        0.195646        0.118154 
        2.41143        0.194534        0.117388 
        2.41757        0.193609        0.116629 
         2.4237        0.192516        0.115878 
        2.42983        0.191382        0.115134 
        2.43598        0.190585        0.114394 
        2.44211         0.18961        0.113662 
        2.44823        0.188465        0.112937 
        2.45437        0.187109        0.112218 
        2.46052        0.186453        0.111503 
        2.46665          0.1852        0.110796 
        2.47279        0.184257        0.110096 
        2.47892        0.183232        0.109401 
        2.48507        0.182346        0.108711 
         2.4912         0.18149        0.108029 
