# k  (h/Mpc)    P(k)  (Mpc/h)^3    P_linear(k)  (Mpc/h)^3
     0.00783031         14153.9         14376.2 
       0.013688         17916.1         17778.8 
       0.019231         17881.9         17860.8 
      0.0249154         15987.1         16323.4 
      0.0312784         13844.5         13995.5 
      0.0375637         11916.9         11920.1 
      0.0433917         10302.9         10490.1 
      0.0492413         9429.97         9513.67 
      0.0555754          8508.1         8790.98 
      0.0619321         8166.12         8184.04 
       0.067871         7348.17         7570.17 
      0.0738098         6672.15         6863.45 
      0.0800417            5852         6068.99 
      0.0862327         5219.04         5322.37 
      0.0921407         4734.47         4728.08 
      0.0982031         4256.93         4273.47 
       0.104506         4049.76         3954.11 
       0.110769          3803.7         3741.07 
       0.116806         3606.54         3573.84 
       0.122832         3434.12         3394.84 
       0.129052         3155.19         3171.85 
       0.135211         2938.66         2917.25 
       0.141259          2765.6          2659.7 
       0.147318         2576.15         2423.75 
       0.153489         2358.39         2227.43 
       0.159709          2242.5         2080.77 
       0.165845         2176.34         1978.09 
       0.171974         2072.69          1900.1 
       0.178125         1980.91         1827.63 
       0.184229         1896.63         1747.59 
        0.19034         1778.22         1654.22 
       0.196428          1729.7         1551.59 
       0.202534         1653.99         1447.93 
       0.208729         1569.31         1351.74 
       0.214876         1499.84         1271.62 
       0.220989         1451.45         1208.52 
       0.227147          1392.1         1158.64 
        0.23329         1341.79         1116.88 
       0.239377         1320.54         1077.45 
       0.245482         1236.61         1035.67 
       0.251667          1226.9         989.597 
       0.257832         1176.25         941.093 
       0.263955         1135.24          893.29 
       0.270079         1094.51         848.803 
        0.27624         1081.43         809.442 
       0.282372          1036.9         776.147 
        0.28843         1026.38          748.03 
       0.294538         975.062         722.796 
       0.300721         971.125         698.457 
        0.30691         930.385         673.934 
       0.313033         912.038         648.904 
       0.319153         893.401         623.499 
       0.325316         864.598         598.301 
        0.33145         843.337         574.596 
       0.337538         829.414          553.01 
       0.343633         808.527         533.599 
       0.349808          780.43         515.866 
       0.355968         775.759         499.587 
       0.362074         766.457         484.234 
       0.368217         743.339          469.06 
       0.374374         712.769         453.958 
       0.380519         713.051         438.977 
       0.386598         693.371         424.495 
       0.392688         690.736         410.604 
        0.39888         670.575          397.29 
       0.405048         659.811         384.957 
       0.411186         650.441         373.536 
       0.417313         637.205         362.797 
       0.423458         625.427          352.52 
       0.429607         616.775         342.565 
       0.435692         602.405         332.917 
       0.441815         597.562         323.417 
       0.447964         585.117         314.145 
       0.454126         576.179         305.178 
       0.460267          564.03         296.626 
       0.466387         558.057         288.533 
        0.47254         549.874         280.809 
       0.478662          547.21         273.473 
       0.484765         529.617          266.45 
       0.490885         525.636         259.652 
       0.497035         515.455         253.026 
       0.503198         510.382         246.563 
       0.509342         506.085         240.301 
       0.515458         501.985          234.27 
       0.521598         489.389         228.439 
       0.527764         480.723          222.81 
       0.533884         478.719         217.435 
           0.54          472.64         212.264 
       0.546137         469.986         207.261 
       0.552299         461.545         202.408 
       0.558452          459.29         197.715 
       0.564573         452.843         193.179 
       0.570708         446.373          188.76 
       0.576825          435.35         184.485 
       0.582926         435.383         180.356 
       0.589034         431.349         176.357 
       0.595184          427.48         172.465 
       0.601379         421.229         168.672 
       0.607522         415.497         165.029 
       0.613639         414.307         161.509 
       0.619772          404.65         158.083 
       0.625918         403.474         154.749 
       0.632068         397.189         151.509 
       0.638161         395.712         148.391 
         0.6443         388.841         145.339 
       0.650464         386.097         142.364 
       0.656582         383.644         139.495 
       0.662703         382.147         136.705 
       0.668861         375.457         133.977 
       0.675024         372.065         131.323 
       0.681124         369.347         128.768 
       0.687237         365.733         126.278 
       0.693381         360.789         123.843 
       0.699536         356.585         121.469 
       0.705665         354.314         119.169 
       0.711789         352.356          116.93 
       0.717957         349.334         114.735 
        0.72409         346.734         112.609 
       0.730186         342.291          110.55 
       0.736317         339.245         108.531 
       0.742472           337.6         106.557 
       0.748622         333.904         104.634 
        0.75476         330.132         102.763 
       0.760888         326.754         100.941 
       0.767043         327.268         99.1561 
       0.773185         323.146          97.419 
       0.779291         318.365         95.7339 
       0.785407         317.418         94.0867 
       0.791564         313.425         92.4684 
       0.797719         311.134         90.8895 
       0.803834          308.42          89.358 
       0.809972         307.524         87.8568 
       0.816124         306.742         86.3872 
       0.822261         302.508         84.9557 
       0.828378          300.19         83.5614 
       0.834502         298.165         82.1976 
       0.840667         295.155         80.8558 
       0.846816         293.515         79.5481 
       0.852925          291.64         78.2779 
       0.859047         289.657         77.0332 
       0.865192         286.251         75.8117 
       0.871341          284.08         74.6163 
       0.877463         282.912         73.4524 
       0.883569         281.374         72.3165 
       0.889708         278.428         71.1992 
       0.895864         276.047         70.1028 
       0.902008         274.465         69.0321 
       0.908149         272.627         67.9846 
       0.914301         269.446         66.9574 
       0.920448          267.92         65.9526 
       0.926574         265.117         64.9721 
       0.932687         265.481         64.0139 
       0.938823         262.271         63.0717 
       0.944975         261.419         62.1465 
       0.951105         259.379         61.2434 
       0.957225          257.45           60.36 
       0.963368         254.138         59.4911 
       0.969511         253.208         58.6394 
       0.975621          250.95         57.8092 
       0.981748         250.822          56.993 
       0.987916         248.695         56.1877 
        0.99406         245.333          55.401 
        1.00019         245.095         54.6311 
        1.00632         243.467         53.8767 
        1.01246         241.407         53.1356 
        1.01859         241.624         52.4097 
        1.02471          237.95         51.6985 
        1.03085         236.125         50.9981 
        1.03698         235.253         50.3123 
        1.04314         232.923         49.6363 
        1.04929         231.547         48.9744 
        1.05541         231.807         48.3274 
        1.06154         228.315         47.6907 
        1.06769         227.916         47.0645 
        1.07382         226.164         46.4518 
        1.07993         224.434         45.8515 
        1.08607         223.875         45.2594 
        1.09222         222.135         44.6773 
        1.09836         220.482         44.1062 
        1.10449         218.142         43.5459 
        1.11063         216.375         42.9948 
        1.11677         216.005         42.4535 
         1.1229         214.318         41.9225 
        1.12903         213.214         41.4003 
        1.13518         211.814         40.8865 
        1.14131         210.049         40.3819 
        1.14745         209.978         39.8862 
        1.15359         208.054         39.3987 
        1.15973         206.521         38.9193 
        1.16584          204.96         38.4501 
        1.17197         204.709          37.988 
        1.17811         202.535         37.5321 
        1.18424         201.454         37.0851 
        1.19038         200.795         36.6441 
        1.19652         199.138         36.2105 
        1.20267         198.751          35.784 
        1.20881         196.763         35.3645 
        1.21495         195.731         34.9524 
        1.22108          194.49          34.547 
         1.2272         193.017          34.149 
        1.23334         192.362         33.7565 
        1.23949         190.888         33.3692 
        1.24562         190.018         32.9891 
        1.25174         188.437         32.6156 
        1.25789         187.166         32.2468 
        1.26402          185.78         31.8843 
        1.27014         184.531         31.5284 
        1.27628         183.813         31.1769 
        1.28244         183.614         30.8301 
        1.28858         181.598         30.4891 
        1.29471         180.202         30.1541 
        1.30084         179.604         29.8245 
        1.30697         178.094         29.4993 
        1.31312          176.93         29.1785 
        1.31925         176.248         28.8636 
        1.32537         175.397         28.5537 
        1.33151         173.644         28.2472 
        1.33765          172.71         27.9455 
        1.34378         172.024         27.6488 
        1.34992         171.214         27.3562 
        1.35606         171.039         27.0673 
         1.3622         169.259         26.7831 
        1.36833         167.627         26.5037 
        1.37445         166.972         26.2284 
        1.38059         165.807         25.9562 
        1.38675         165.211         25.6873 
        1.39288          164.21         25.4232 
        1.39901         163.946         25.1631 
        1.40515         162.084          24.906 
         1.4113         161.191         24.6526 
        1.41742         160.118         24.4037 
        1.42355         159.331         24.1578 
         1.4297         158.351         23.9146 
        1.43585         157.374         23.6749 
        1.44198         156.576         23.4394 
        1.44809         155.924         23.2075 
        1.45423         154.971          22.978 
        1.46036         153.901          22.752 
        1.46649         152.767          22.529 
        1.47263         151.895         22.3088 
        1.47877         151.223         22.0916 
        1.48491         149.634         21.8771 
        1.49104         149.679         21.6658 
        1.49718         148.096         21.4572 
        1.50333         147.534         21.2511 
        1.50947         146.867         21.0481 
         1.5156         145.783          20.848 
        1.52172         144.971         20.6506 
        1.52787         143.833         20.4554 
          1.534          143.39         20.2629 
        1.54013         142.478         20.0732 
        1.54627         141.676         19.8855 
        1.55241         140.712         19.7002 
        1.55855         139.943         19.5176 
        1.56467         139.069         19.3378 
         1.5708         138.269         19.1597 
        1.57695         137.707         18.9837 
        1.58308         136.962         18.8102 
        1.58922         136.293         18.6389 
        1.59535          135.12         18.4697 
         1.6015         134.711         18.3025 
        1.60764         133.881         18.1373 
        1.61376          133.05         17.9747 
        1.61989         132.196          17.814 
        1.62604         131.343         17.6549 
        1.63218         130.925         17.4978 
        1.63831         129.916         17.3431 
        1.64444         129.435         17.1901 
        1.65059         128.804         17.0386 
        1.65673         127.557         16.8892 
        1.66285         127.303          16.742 
        1.66898         126.446         16.5964 
        1.67512          126.04         16.4524 
        1.68127         124.897         16.3099 
         1.6874         123.943         16.1695 
        1.69353         123.735         16.0307 
        1.69967         122.967         15.8933 
        1.70581         122.208         15.7576 
        1.71193         121.457          15.624 
        1.71806         120.961         15.4917 
        1.72421         120.157         15.3606 
        1.73035         120.007         15.2312 
        1.73649         119.094         15.1034 
        1.74262         118.172         14.9771 
        1.74876         117.843         14.8522 
        1.75489         116.863          14.729 
        1.76101         116.162         14.6072 
        1.76715         115.678         14.4866 
        1.77329         115.395         14.3673 
        1.77943         114.278         14.2492 
        1.78557         113.875         14.1327 
        1.79171         113.062         14.0175 
        1.79785         112.427         13.9035 
        1.80399         111.736         13.7908 
        1.81012         111.257         13.6796 
        1.81625         110.631         13.5696 
        1.82239         110.246         13.4606 
        1.82853         109.475          13.353 
        1.83466         108.744         13.2466 
        1.84078         108.366         13.1415 
        1.84692         107.486         13.0373 
        1.85306         107.178         12.9342 
         1.8592         106.452         12.8324 
        1.86533         105.648         12.7317 
        1.87147         105.221         12.6319 
        1.87761         104.627         12.5333 
        1.88375         103.794         12.4357 
        1.88988         103.475         12.3394 
        1.89601         102.805          12.244 
        1.90215         102.335         12.1495 
        1.90829         101.779         12.0561 
        1.91442         101.259         11.9637 
        1.92056         100.559         11.8724 
         1.9267         100.284         11.7819 
        1.93284         99.6709         11.6922 
        1.93897         99.0478         11.6037 
        1.94509          98.607         11.5164 
        1.95123         98.0505         11.4296 
        1.95737          97.528         11.3438 
        1.96349         96.9732          11.259 
        1.96964         96.1492         11.1749 
        1.97578         95.7272         11.0916 
        1.98192         95.5388         11.0093 
        1.98805         94.6559         10.9278 
        1.99419         94.4041         10.8472 
        2.00033         93.8054         10.7673 
        2.00647         93.3802         10.6883 
         2.0126         92.7816         10.6102 
        2.01874         92.1893         10.5328 
        2.02488         91.7816         10.4561 
        2.03101         91.1085         10.3802 
        2.03714         90.6127         10.3053 
        2.04328         90.2932         10.2309 
        2.04941         89.7591         10.1574 
        2.05554         89.2305         10.0847 
        2.06167         88.8446         10.0125 
        2.06781         88.2185          9.9411 
        2.07396            87.8         9.87027 
        2.08009         87.4947         9.80025 
        2.08622         86.9294           9.731 
        2.09237         86.4167         9.66228 
        2.09851         86.0155         9.59422 
        2.10464          85.545         9.52693 
        2.11077          85.216         9.46037 
        2.11691         84.8267          9.3943 
        2.12305         84.0754         9.32886 
        2.12918         83.6196          9.2642 
        2.13531         83.3994         9.20016 
        2.14145         82.5745         9.13657 
         2.1476         82.2086         9.07352 
        2.15372         81.9496         9.01137 
        2.15985         81.5208         8.94976 
        2.16599         81.0297         8.88854 
        2.17213         80.5624         8.82796 
        2.17827         80.1906         8.76797 
         2.1844         79.6872         8.70859 
        2.19054         79.5046         8.64974 
        2.19666         78.9487         8.59153 
         2.2028         78.6561         8.53379 
        2.20893         78.0991         8.47657 
        2.21508         77.6955          8.4198 
        2.22122         77.3064         8.36354 
        2.22736         76.9271         8.30792 
        2.23349         76.5268         8.25281 
        2.23962         76.1157         8.19818 
        2.24577         75.7714           8.144 
         2.2519         75.3978         8.09039 
        2.25802         74.8954         8.03734 
        2.26417         74.5056         7.98463 
        2.27031         74.2158         7.93234 
        2.27644         73.7348         7.88067 
        2.28257         73.2829         7.82947 
        2.28872         72.9776         7.77863 
        2.29486         72.4216         7.72825 
        2.30099         72.1077         7.67843 
        2.30712         71.8731         7.62902 
        2.31326         71.4857         7.57996 
         2.3194         71.0565         7.53137 
        2.32553         70.7005         7.48329 
        2.33166         70.3504         7.43565 
         2.3378         69.8412         7.38836 
        2.34394         69.5285         7.34147 
        2.35007         69.1742         7.29505 
        2.35619         68.8494          7.2491 
        2.36233         68.5009         7.20343 
        2.36848         68.1309         7.15806 
        2.37462         67.6654         7.11319 
        2.38075          67.534         7.06874 
        2.38689         67.0511         7.02463 
        2.39303         66.6922         6.98092 
        2.39916         66.3378         6.93762 
        2.40529         66.1623         6.89469 
        2.41143         65.6972          6.8521 
        2.41757         65.4324         6.80985 
         2.4237         65.1313         6.76803 
        2.42983         64.6714         6.72658 
        2.43598         64.4073         6.68536 
        2.44211         64.1143         6.64455 
        2.44823         63.7642         6.60418 
        2.45437          63.282         6.56404 
        2.46052          63.058         6.52419 
        2.46665         62.8142         6.48475 
        2.47279         62.3952         6.44565 
        2.47892         62.1232         6.40685 
        2.48507         61.7213         6.36833 
         2.4912         61.4716          6.3302 
