# k  (h/Mpc)    Pcb(k)  (Mpc/h)^3    Pcb_linear(k)  (Mpc/h)^3
     0.00783031         12318.8         12401.3 
       0.013688         13569.1         13877.4 
       0.019231         12753.9         12905.1 
      0.0249154         11057.8         10989.8 
      0.0312784         8752.87         8772.49 
      0.0375637         6983.85         7037.64 
      0.0433917         5957.48         5941.41 
      0.0492413         5231.76         5247.14 
      0.0555754         4796.28         4774.71 
      0.0619321          4311.7         4404.63 
       0.067871         4007.11            4035 
      0.0738098         3609.55         3604.57 
      0.0800417         3147.54         3117.49 
      0.0862327         2686.34         2661.78 
      0.0921407         2349.29         2304.39 
      0.0982031         2109.85         2038.22 
       0.104506         1894.17         1860.31 
       0.110769         1790.22         1751.82 
       0.116806         1729.36         1674.43 
       0.122832         1626.48         1592.51 
       0.129052         1520.97         1485.25 
       0.135211         1424.34         1356.62 
       0.141259         1279.71         1222.22 
       0.147318         1151.28         1096.84 
       0.153489         1058.11         991.894 
       0.159709         1000.68          914.26 
       0.165845         921.559         861.982 
       0.171974         905.485         825.331 
       0.178125           871.4         794.066 
       0.184229         812.744         760.349 
        0.19034         786.911         719.942 
       0.196428         749.752         673.734 
       0.202534         687.065         625.323 
       0.208729         665.054         579.036 
       0.214876         628.271         539.652 
       0.220989         586.347         508.385 
       0.227147         571.057         484.068 
        0.23329           548.8         464.678 
       0.239377         540.236         447.497 
       0.245482         511.578          430.04 
       0.251667         489.768         410.934 
       0.257832         480.264         390.499 
       0.263955         451.096         369.815 
       0.270079         431.068         350.014 
        0.27624         411.965         332.041 
       0.282372         401.073         316.595 
        0.28843         396.236          303.58 
       0.294538         375.698         292.174 
       0.300721         363.787         281.607 
        0.30691         356.634         271.344 
       0.313033         339.416         261.091 
       0.319153         333.078         250.695 
       0.325316         325.129         240.265 
        0.33145         315.616         230.253 
       0.337538         303.123         220.951 
       0.343633         293.722         212.453 
       0.349808         285.251         204.655 
       0.355968         279.319         197.568 
       0.362074          269.67         191.018 
       0.368217         266.445         184.711 
       0.374374         260.077         178.546 
       0.380519         249.114         172.486 
       0.386598         245.275          166.62 
       0.392688         238.016         160.936 
        0.39888         232.564         155.422 
       0.405048         226.918         150.259 
       0.411186         225.123         145.445 
       0.417313         220.668         140.934 
       0.423458         214.657         136.659 
       0.429607         208.268         132.568 
       0.435692         205.031         128.659 
       0.441815         200.626         124.845 
       0.447964         194.973         121.129 
       0.454126         192.084         117.525 
       0.460267         189.368         114.075 
       0.466387         184.545         110.788 
        0.47254         182.359         107.635 
       0.478662         177.147         104.643 
       0.484765          174.39         101.793 
       0.490885         171.599         99.0505 
       0.497035         168.983         96.3931 
       0.503198         167.189         93.8182 
       0.509342         162.901          91.336 
       0.515458         160.094         88.9477 
       0.521598         156.329          86.632 
       0.527764         154.889         84.3895 
       0.533884         153.543         82.2471 
           0.54         150.133         80.1883 
       0.546137          146.61         78.1995 
       0.552299         144.772         76.2736 
       0.558452         142.366         74.4159 
       0.564573         141.645         72.6277 
       0.570708         137.858         70.8929 
       0.576825         136.049         69.2188 
       0.582926         134.643         67.6024 
       0.589034         132.287         66.0353 
       0.595184          130.89         64.5081 
       0.601379         128.584           63.02 
       0.607522         125.521         61.5923 
       0.613639         124.801         60.2165 
       0.619772         123.175         58.8806 
       0.625918         122.055         57.5831 
       0.632068         119.141         56.3239 
       0.638161         118.352          55.113 
         0.6443         117.145         53.9287 
       0.650464         114.795         52.7748 
       0.656582         113.979         51.6631 
       0.662703         112.934         50.5836 
       0.668861         110.437         49.5295 
       0.675024         110.301         48.5051 
       0.681124         108.483         47.5204 
       0.687237         107.298         46.5614 
       0.693381         105.572         45.6246 
       0.699536         104.762         44.7119 
       0.705665         103.547         43.8282 
       0.711789         101.973         42.9692 
       0.717957         100.873         42.1276 
        0.72409         99.6229         41.3133 
       0.730186         99.5328         40.5257 
       0.736317         98.1273         39.7545 
       0.742472         96.3832         39.0008 
       0.748622         95.0004         38.2676 
        0.75476         95.2605         37.5549 
       0.760888         94.0298         36.8617 
       0.767043         92.2372         36.1833 
       0.773185         91.1495         35.5234 
       0.779291         90.2904         34.8839 
       0.785407         89.6562         34.2593 
       0.791564         88.8267         33.6461 
       0.797719         87.3676         33.0483 
       0.803834         87.3542          32.469 
       0.809972         86.4286         31.9015 
       0.816124         84.9244         31.3465 
       0.822261          84.258         30.8062 
       0.828378         83.9332         30.2804 
       0.834502         83.0719         29.7664 
       0.840667         82.4333         29.2612 
       0.846816         81.3379         28.7692 
       0.852925         80.5867         28.2916 
       0.859047         79.9422          27.824 
       0.865192         79.2394         27.3654 
       0.871341         78.5297         26.9169 
       0.877463         77.7186         26.4806 
       0.883569         77.6826          26.055 
       0.889708         76.8419         25.6367 
       0.895864         76.1354         25.2265 
       0.902008         75.1879         24.8263 
       0.908149         74.3276         24.4349 
       0.914301          74.065         24.0515 
       0.920448         74.0241         23.6766 
       0.926574         72.4153         23.3111 
       0.932687         72.3117         22.9542 
       0.938823         71.8196         22.6034 
       0.944975         71.0629         22.2593 
       0.951105         70.3619         21.9235 
       0.957225         70.0803         21.5953 
       0.963368          69.367         21.2728 
       0.969511         68.9686         20.9569 
       0.975621         67.9967         20.6491 
       0.981748         67.7152         20.3467 
       0.987916         67.0929         20.0486 
        0.99406         66.9084         19.7575 
        1.00019         66.1157         19.4729 
        1.00632         65.5192         19.1941 
        1.01246         65.2212         18.9204 
        1.01859         64.8379         18.6525 
        1.02471         64.3745         18.3902 
        1.03085         63.7231          18.132 
        1.03698          63.251         17.8793 
        1.04314         62.8316         17.6304 
        1.04929         62.4963         17.3869 
        1.05541         61.9157         17.1489 
        1.06154         61.4471         16.9149 
        1.06769         61.0701         16.6848 
        1.07382         60.5618         16.4598 
        1.07993         60.3241         16.2395 
        1.08607         59.8514         16.0223 
        1.09222         59.5039         15.8089 
        1.09836         59.0357         15.5996 
        1.10449          58.651         15.3943 
        1.11063         58.2341         15.1926 
        1.11677          57.996         14.9945 
         1.1229         57.3277         14.8004 
        1.12903         57.1063         14.6095 
        1.13518         56.6748         14.4218 
        1.14131          56.329         14.2375 
        1.14745         56.1282         14.0566 
        1.15359         55.3941         13.8788 
        1.15973         55.3302          13.704 
        1.16584         54.9589          13.533 
        1.17197         54.5894         13.3647 
        1.17811         54.1805         13.1987 
        1.18424         53.6554         13.0361 
        1.19038         53.5017         12.8757 
        1.19652           53.24         12.7181 
        1.20267         52.7842         12.5632 
        1.20881         52.4389         12.4109 
        1.21495         52.1373         12.2613 
        1.22108         52.0195         12.1143 
         1.2272          51.529           11.97 
        1.23334         51.3582         11.8277 
        1.23949         50.9161         11.6874 
        1.24562         50.5417         11.5498 
        1.25174          50.432         11.4147 
        1.25789         50.1172         11.2812 
        1.26402          49.766         11.1502 
        1.27014         49.4855         11.0216 
        1.27628         49.1885         10.8946 
        1.28244         49.1549         10.7694 
        1.28858         48.6846         10.6463 
        1.29471         48.2839         10.5254 
        1.30084         47.9169         10.4066 
        1.30697         47.8884         10.2894 
        1.31312         47.6403         10.1738 
        1.31925         47.1795         10.0603 
        1.32537         46.9721         9.94873 
        1.33151          46.753         9.83843 
        1.33765         46.5004         9.72986 
        1.34378         46.1697         9.62315 
        1.34992         45.9891         9.51797 
        1.35606         45.6367         9.41413 
         1.3622         45.5013         9.31204 
        1.36833         45.2384          9.2117 
        1.37445         44.8777          9.1129 
        1.38059         44.6925         9.01524 
        1.38675         44.3905         8.91879 
        1.39288         44.2296         8.82413 
        1.39901         43.8941          8.7309 
        1.40515         43.6932          8.6388 
         1.4113          43.542         8.54807 
        1.41742         43.2419           8.459 
        1.42355          43.107         8.37103 
         1.4297         42.8895         8.28405 
        1.43585         42.6933         8.19834 
        1.44198         42.3311         8.11417 
        1.44809         42.0329         8.03135 
        1.45423         41.9899         7.94938 
        1.46036         41.7924         7.86871 
        1.46649         41.4387         7.78913 
        1.47263         41.2285         7.71059 
        1.47877         41.0575         7.63317 
        1.48491         40.7286         7.55669 
        1.49104         40.6446         7.48142 
        1.49718         40.4206         7.40713 
        1.50333          40.265         7.33373 
        1.50947         39.9988         7.26147 
         1.5156         39.8896         7.19029 
        1.52172          39.565         7.12007 
        1.52787         39.4534         7.05065 
          1.534         39.1467         6.98223 
        1.54013         39.1623          6.9148 
        1.54627         38.7677         6.84813 
        1.55241         38.6996         6.78234 
        1.55855         38.4186          6.7175 
        1.56467         38.1003         6.65369 
         1.5708         38.1754         6.59053 
        1.57695         37.8724         6.52809 
        1.58308          37.683         6.46661 
        1.58922         37.4825         6.40588 
        1.59535         37.4786         6.34595 
         1.6015         37.2872         6.28671 
        1.60764          37.026         6.22825 
        1.61376         36.8291          6.1707 
        1.61989         36.5443         6.11383 
        1.62604         36.4404         6.05754 
        1.63218         36.1614         6.00201 
        1.63831         36.1139          5.9473 
        1.64444         35.9686         5.89325 
        1.65059         35.7207         5.83974 
        1.65673         35.5806         5.78696 
        1.66285         35.4192         5.73497 
        1.66898         35.2271         5.68361 
        1.67512         34.9736         5.63278 
        1.68127         34.9689         5.58253 
         1.6874         34.8113           5.533 
        1.69353         34.5679          5.4841 
        1.69967         34.4389         5.43568 
        1.70581         34.2775         5.38786 
        1.71193         34.0629         5.34081 
        1.71806         33.9794         5.29421 
        1.72421         33.7421         5.24808 
        1.73035         33.6744         5.20255 
        1.73649         33.4513         5.15757 
        1.74262         33.2611         5.11316 
        1.74876         33.3049         5.06924 
        1.75489         33.0095         5.02593 
        1.76101         32.9556         4.98314 
        1.76715         32.6991         4.94078 
        1.77329         32.5159         4.89887 
        1.77943         32.5057         4.85743 
        1.78557          32.317         4.81653 
        1.79171         32.1199         4.77609 
        1.79785           32.03          4.7361 
        1.80399         31.8275         4.69659 
        1.81012         31.6688         4.65758 
        1.81625         31.5479         4.61903 
        1.82239         31.3841         4.58085 
        1.82853         31.2961         4.54313 
        1.83466         31.1047         4.50587 
        1.84078         30.9755         4.46907 
        1.84692         30.8528         4.43262 
        1.85306         30.7062         4.39653 
         1.8592         30.5009          4.3609 
        1.86533         30.4506         4.32569 
        1.87147         30.2903         4.29082 
        1.87761         30.1844         4.25632 
        1.88375         30.0313         4.22225 
        1.88988         29.8492         4.18858 
        1.89601          29.781         4.15526 
        1.90215         29.5968         4.12228 
        1.90829         29.4925         4.08967 
        1.91442         29.3509         4.05741 
        1.92056         29.2462         4.02553 
         1.9267         29.1519         3.99395 
        1.93284         29.0517          3.9627 
        1.93897         28.8475         3.93184 
        1.94509         28.7554         3.90138 
        1.95123         28.6133         3.87116 
        1.95737         28.5467         3.84124 
        1.96349         28.4373         3.81172 
        1.96964         28.2623         3.78242 
        1.97578         28.1337         3.75341 
        1.98192         27.9837         3.72477 
        1.98805         27.8336         3.69643 
        1.99419         27.7697         3.66837 
        2.00033         27.6543          3.6406 
        2.00647           27.53         3.61312 
         2.0126         27.4034         3.58597 
        2.01874          27.335         3.55906 
        2.02488          27.139          3.5324 
        2.03101         27.0908         3.50606 
        2.03714         26.9635         3.48001 
        2.04328         26.8732          3.4542 
        2.04941         26.6459         3.42868 
        2.05554         26.6045         3.40342 
        2.06167         26.4698         3.37839 
        2.06781         26.3744         3.35361 
        2.07396         26.2431         3.32904 
        2.08009         26.1271         3.30476 
        2.08622         26.0563         3.28075 
        2.09237         25.9205         3.25693 
        2.09851         25.8284         3.23334 
        2.10464         25.7453         3.21003 
        2.11077         25.6424         3.18697 
        2.11691         25.4725         3.16409 
        2.12305          25.377         3.14143 
        2.12918         25.3128         3.11905 
        2.13531         25.0772         3.09689 
        2.14145         25.0734         3.07489 
         2.1476         24.9654         3.05308 
        2.15372          24.888         3.03158 
        2.15985         24.7291         3.01028 
        2.16599         24.5982         2.98912 
        2.17213         24.6015         2.96818 
        2.17827         24.4623         2.94745 
         2.1844         24.3296         2.92694 
        2.19054         24.2723         2.90661 
        2.19666         24.1329         2.88651 
         2.2028         24.0216         2.86658 
        2.20893         23.9686         2.84682 
        2.21508         23.8759         2.82723 
        2.22122         23.7715         2.80782 
        2.22736         23.6381         2.78863 
        2.23349         23.6102         2.76963 
        2.23962         23.4853         2.75079 
        2.24577         23.3926         2.73211 
         2.2519          23.263         2.71363 
        2.25802         23.1478         2.69535 
        2.26417         23.0287         2.67719 
        2.27031         22.9531         2.65918 
        2.27644         22.9216         2.64138 
        2.28257         22.8207         2.62375 
        2.28872         22.6849         2.60625 
        2.29486         22.6364         2.58892 
        2.30099         22.5453         2.57177 
        2.30712         22.4502         2.55477 
        2.31326         22.3347          2.5379 
         2.3194         22.2381         2.52119 
        2.32553         22.1779         2.50466 
        2.33166         22.0688         2.48828 
         2.3378         21.9794         2.47203 
        2.34394         21.9239         2.45591 
        2.35007         21.8214         2.43997 
        2.35619         21.7169         2.42418 
        2.36233         21.6435          2.4085 
        2.36848         21.5905         2.39292 
        2.37462         21.4981         2.37751 
        2.38075           21.39         2.36226 
        2.38689         21.3201         2.34712 
        2.39303          21.209         2.33212 
        2.39916         21.1177         2.31726 
        2.40529         21.0523         2.30254 
        2.41143         21.0023         2.28794 
        2.41757         20.8727         2.27345 
         2.4237         20.8012         2.25912 
        2.42983         20.6694         2.24491 
        2.43598         20.6259         2.23078 
        2.44211         20.5193          2.2168 
        2.44823         20.4556         2.20297 
        2.45437          20.407         2.18923 
        2.46052         20.2878         2.17558 
        2.46665         20.2629         2.16208 
        2.47279         20.1189          2.1487 
        2.47892          20.109         2.13542 
        2.48507         19.9845         2.12224 
         2.4912         19.9095          2.1092 
