# k  (h/Mpc)    P(k)  (Mpc/h)^3    P_linear(k)  (Mpc/h)^3
     0.00783031         9284.41         9350.62 
       0.013688         11265.1         11520.1 
       0.019231           11428         11570.3 
      0.0249154           10579         10557.7 
      0.0312784         8925.51         8981.74 
      0.0375637         7437.51         7526.74 
      0.0433917         6479.27         6490.47 
      0.0492413          5726.7         5773.88 
      0.0555754         5267.64         5272.98 
      0.0619321         4787.56          4918.8 
       0.067871          4542.6         4607.46 
      0.0738098         4214.68          4249.3 
      0.0800417         3799.21         3812.47 
      0.0862327         3335.78         3354.29 
      0.0921407         2951.35         2946.72 
      0.0982031         2645.66         2600.91 
       0.104506         2351.66         2338.11 
       0.110769         2190.09         2166.55 
       0.116806         2111.33         2060.12 
       0.122832         2001.23         1979.61 
       0.129052         1911.81         1893.13 
       0.135211         1834.38         1785.42 
       0.141259         1687.19         1655.81 
       0.147318         1537.12         1512.99 
       0.153489         1419.62         1371.28 
       0.159709          1332.5         1247.98 
       0.165845         1212.56          1153.9 
       0.171974         1181.04         1087.32 
       0.178125          1137.7         1041.54 
       0.184229         1066.39         1007.06 
        0.19034         1047.27         973.524 
       0.196428         1012.37         934.034 
       0.202534         941.895         885.846 
       0.208729         916.194         830.317 
       0.214876         869.094         773.709 
       0.220989         808.548         721.446 
       0.227147         784.765         676.868 
        0.23329         752.603         641.894 
       0.239377         740.418         615.589 
       0.245482         704.236         594.865 
       0.251667           678.3         576.199 
       0.257832         670.466         556.931 
       0.263955         634.139         535.465 
       0.270079         610.736         511.474 
        0.27624          583.62         485.978 
       0.282372         569.164             461 
        0.28843         562.462         438.331 
       0.294538         533.067         418.544 
       0.300721         516.687          401.82 
        0.30691         507.826         387.902 
       0.313033         485.394         375.848 
       0.319153         477.784         364.452 
       0.325316         468.097         352.725 
        0.33145         456.596         340.444 
       0.337538         439.793         327.672 
       0.343633         426.467          314.77 
       0.349808         415.134         302.125 
       0.355968         406.679         290.437 
       0.362074         393.633         280.058 
       0.368217         390.103         270.795 
       0.374374         381.824         262.516 
       0.380519         366.397         254.872 
       0.386598         361.741         247.587 
       0.392688          352.69         240.328 
        0.39888         343.878         232.841 
       0.405048         337.078         225.359 
       0.411186         335.046         218.009 
       0.417313         329.325         210.936 
       0.423458         320.098         204.274 
       0.429607         311.644         198.097 
       0.435692         306.531         192.443 
       0.441815         300.937         187.157 
       0.447964         293.493         182.131 
       0.454126         289.566         177.252 
       0.460267         285.314          172.48 
       0.466387         279.499         167.793 
        0.47254         275.895         163.139 
       0.478662         268.609         158.614 
       0.484765         265.289         154.269 
       0.490885         261.872         150.119 
       0.497035         257.565         146.159 
       0.503198         255.729           142.4 
       0.509342          249.09         138.843 
       0.515458         245.555         135.451 
       0.521598         240.454         132.151 
       0.527764         237.706         128.913 
       0.533884         236.606         125.774 
           0.54         231.877         122.717 
       0.546137         226.654         119.733 
       0.552299         225.198          116.83 
       0.558452         221.328         114.036 
       0.564573          219.85         111.367 
       0.570708         215.171         108.804 
       0.576825         211.987         106.347 
       0.582926         209.909         103.979 
       0.589034          206.79         101.675 
       0.595184         205.239         99.4171 
       0.601379         201.511         97.2043 
       0.607522         197.444         95.0711 
       0.613639         196.279         93.0076 
       0.619772          194.57         90.9996 
       0.625918         192.487         89.0478 
       0.632068         188.538         87.1551 
       0.638161         187.167         85.3387 
         0.6443         185.607         83.5668 
       0.650464         182.207         81.8435 
       0.656582         180.923         80.1835 
       0.662703         179.416         78.5693 
       0.668861         175.855         76.9886 
       0.675024         175.651         75.4468 
       0.681124         173.111         73.9602 
       0.687237         171.225         72.5093 
       0.693381          169.18         71.0906 
       0.699536         167.592         69.7084 
       0.705665         165.789         68.3713 
       0.711789         163.791         67.0728 
       0.717957         162.051         65.8009 
        0.72409         160.332         64.5702 
       0.730186         160.602          63.379 
       0.736317          157.97         62.2112 
       0.742472         155.762          61.068 
       0.748622         153.481          59.954 
        0.75476         154.085         58.8697 
       0.760888         152.148         57.8136 
       0.767043         149.597         56.7794 
       0.773185         148.252         55.7728 
       0.779291          146.51         54.7967 
       0.785407         145.639         53.8432 
       0.791564         144.439         52.9069 
       0.797719         142.291         51.9938 
       0.803834         142.554         51.1085 
       0.809972         141.179         50.2409 
       0.816124         138.937         49.3918 
       0.822261         137.922         48.5647 
       0.828378         137.608         47.7592 
       0.834502         135.676         46.9714 
       0.840667         135.204         46.1963 
       0.846816         133.515         45.4411 
       0.852925         132.347         44.7076 
       0.859047         131.232         43.9888 
       0.865192          130.52         43.2836 
       0.871341         129.071         42.5936 
       0.877463         127.979         41.9218 
       0.883569         127.916         41.2664 
       0.889708         126.649         40.6217 
       0.895864          125.47         39.9894 
       0.902008         124.179         39.3719 
       0.908149         122.763         38.7679 
       0.914301         122.589         38.1758 
       0.920448         122.229         37.5967 
       0.926574         120.008         37.0317 
       0.932687          119.97         36.4796 
       0.938823         119.041         35.9369 
       0.944975         117.928          35.404 
       0.951105         116.859          34.884 
       0.957225           116.5         34.3754 
       0.963368         115.293         33.8753 
       0.969511          114.46         33.3852 
       0.975621         113.257         32.9075 
       0.981748         112.582         32.4379 
       0.987916         111.922         31.9747 
        0.99406         111.424         31.5223 
        1.00019         110.333         31.0796 
        1.00632         109.532         30.6459 
        1.01246         108.881         30.2198 
        1.01859         108.271         29.8026 
        1.02471          107.51         29.3939 
        1.03085         106.509         28.9914 
        1.03698         105.745         28.5974 
        1.04314         105.201         28.2091 
        1.04929          104.79          27.829 
        1.05541         103.971         27.4575 
        1.06154         103.203         27.0918 
        1.06769         102.522         26.7323 
        1.07382           101.8         26.3806 
        1.07993          101.27          26.036 
        1.08607         100.526         25.6962 
        1.09222         100.018         25.3622 
        1.09836         99.1436         25.0345 
        1.10449         98.5789         24.7131 
        1.11063         97.9832          24.397 
        1.11677         97.3258         24.0865 
         1.1229          96.538         23.7821 
        1.12903         96.1066         23.4826 
        1.13518         95.4955         23.1882 
        1.14131         94.9078         22.8989 
        1.14745          94.476         22.6148 
        1.15359         93.3559         22.3355 
        1.15973         93.1507         22.0608 
        1.16584         92.5565          21.792 
        1.17197         92.0705         21.5274 
        1.17811         91.2856         21.2663 
        1.18424         90.7332         21.0103 
        1.19038          90.491         20.7579 
        1.19652         89.8638         20.5097 
        1.20267         89.2606         20.2656 
        1.20881         88.6681         20.0256 
        1.21495         88.1937         19.7898 
        1.22108         87.8457         19.5579 
         1.2272         87.0307         19.3302 
        1.23334         86.8677         19.1057 
        1.23949         86.2675         18.8843 
        1.24562         85.5532         18.6669 
        1.25174         85.1855         18.4534 
        1.25789         84.7881         18.2425 
        1.26402         84.3072         18.0353 
        1.27014         83.8047         17.8319 
        1.27628         83.1312          17.631 
        1.28244         83.0406         17.4328 
        1.28858          82.291          17.238 
        1.29471         81.8549         17.0466 
        1.30084         81.2047         16.8583 
        1.30697         81.1229         16.6725 
        1.31312         80.5312         16.4894 
        1.31925         79.9703         16.3095 
        1.32537         79.6317         16.1325 
        1.33151         79.4197         15.9576 
        1.33765         78.7742         15.7853 
        1.34378         78.3721          15.616 
        1.34992         78.1444          15.449 
        1.35606         77.5593         15.2841 
         1.3622         77.3594         15.1219 
        1.36833         76.6512         14.9625 
        1.37445         76.2222         14.8055 
        1.38059          75.973         14.6503 
        1.38675         75.2569         14.4969 
        1.39288         75.0765         14.3463 
        1.39901         74.4963          14.198 
        1.40515         74.2288         14.0514 
         1.4113         73.8792          13.907 
        1.41742         73.3884         13.7651 
        1.42355         73.1817          13.625 
         1.4297         72.6774         13.4864 
        1.43585          72.272         13.3498 
        1.44198         71.8738         13.2157 
        1.44809         71.3452         13.0836 
        1.45423         71.2531         12.9528 
        1.46036         70.7149         12.8241 
        1.46649         70.2988         12.6971 
        1.47263         70.0088         12.5717 
        1.47877         69.6915         12.4481 
        1.48491         69.2601          12.326 
        1.49104         68.7407         12.2057 
        1.49718         68.5637          12.087 
        1.50333         68.2234         11.9697 
        1.50947         67.9619         11.8541 
         1.5156         67.7145         11.7403 
        1.52172         67.1185          11.628 
        1.52787         66.7491         11.5169 
          1.534         66.4328         11.4074 
        1.54013         66.3067         11.2995 
        1.54627         65.6831         11.1928 
        1.55241         65.5049         11.0874 
        1.55855         65.0531         10.9835 
        1.56467         64.5131         10.8813 
         1.5708         64.4297         10.7801 
        1.57695         64.0841           10.68 
        1.58308         63.7559         10.5814 
        1.58922         63.5056          10.484 
        1.59535         63.3404         10.3879 
         1.6015           63.06         10.2929 
        1.60764         62.6415         10.1991 
        1.61376         62.3174         10.1067 
        1.61989         61.7973         10.0154 
        1.62604         61.6606         9.92499 
        1.63218         61.3854         9.83579 
        1.63831         61.1119          9.7479 
        1.64444         60.8931         9.66105 
        1.65059         60.4383         9.57505 
        1.65673         60.1319          9.4902 
        1.66285         59.7955         9.40662 
        1.66898         59.4169         9.32402 
        1.67512         59.1912         9.24225 
        1.68127         59.0503          9.1614 
         1.6874         58.6607         9.08169 
        1.69353         58.3283         9.00299 
        1.69967         58.1479         8.92503 
        1.70581         57.7856         8.84804 
        1.71193          57.527         8.77224 
        1.71806         57.2447         8.69718 
        1.72421         57.0582         8.62285 
        1.73035         56.7565         8.54948 
        1.73649         56.3862         8.47698 
        1.74262         55.9886         8.40538 
        1.74876         55.9531         8.33456 
        1.75489         55.5881          8.2647 
        1.76101         55.3263         8.19567 
        1.76715         55.1323         8.12734 
        1.77329         54.7067          8.0597 
        1.77943         54.6686          7.9928 
        1.78557         54.3464         7.92677 
        1.79171         54.0446         7.86147 
        1.79785         53.7902         7.79689 
        1.80399         53.5256         7.73306 
        1.81012         53.2814         7.67003 
        1.81625         53.0185         7.60773 
        1.82239         52.7625         7.54603 
        1.82853         52.4561         7.48505 
        1.83466         52.2846         7.42481 
        1.84078         51.9959         7.36529 
        1.84692         51.8621         7.30633 
        1.85306         51.5367         7.24795 
         1.8592         51.2929         7.19029 
        1.86533           51.05          7.1333 
        1.87147         50.7813         7.07686 
        1.87761          50.577         7.02101 
        1.88375         50.3246         6.96583 
        1.88988         50.0538         6.91131 
        1.89601         49.8639         6.85734 
        1.90215         49.5394          6.8039 
        1.90829         49.4086         6.75106 
        1.91442         49.0909         6.69878 
        1.92056         48.9755          6.6471 
         1.9267         48.7305         6.59591 
        1.93284          48.523         6.54524 
        1.93897         48.2105         6.49519 
        1.94509          47.943         6.44578 
        1.95123         47.7824         6.39675 
        1.95737         47.6187          6.3482 
        1.96349            47.4         6.30029 
        1.96964         47.0859         6.25273 
        1.97578         46.8683         6.20564 
        1.98192         46.6289         6.15913 
        1.98805         46.3797          6.1131 
        1.99419         46.2465         6.06753 
        2.00033         46.0689         6.02241 
        2.00647         45.8236         5.97776 
         2.0126         45.5863         5.93364 
        2.01874          45.495          5.8899 
        2.02488         45.1746         5.84657 
        2.03101         45.0614         5.80375 
        2.03714         44.7919          5.7614 
        2.04328         44.6005         5.71942 
        2.04941         44.2864          5.6779 
        2.05554         44.2182         5.63682 
        2.06167         44.0628          5.5961 
        2.06781         43.7554         5.55577 
        2.07396         43.5054         5.51578 
        2.08009         43.3392         5.47625 
        2.08622         43.2075         5.43716 
        2.09237         42.9506         5.39838 
        2.09851         42.7554         5.35997 
        2.10464         42.5777         5.32199 
        2.11077         42.4265         5.28443 
        2.11691         42.1642         5.24715 
        2.12305         41.9312         5.21023 
        2.12918         41.8012         5.17376 
        2.13531         41.5635         5.13763 
        2.14145         41.4079         5.10176 
         2.1476         41.3105          5.0662 
        2.15372         41.1401         5.03115 
        2.15985          40.822          4.9964 
        2.16599          40.651         4.96188 
        2.17213          40.499         4.92773 
        2.17827         40.3439          4.8939 
         2.1844         40.0485         4.86042 
        2.19054         40.0172         4.82725 
        2.19666         39.7393         4.79443 
         2.2028         39.5011         4.76189 
        2.20893         39.4005         4.72963 
        2.21508         39.1959         4.69764 
        2.22122          39.042         4.66593 
        2.22736         38.7819         4.63459 
        2.23349         38.7077         4.60353 
        2.23962         38.5086         4.57275 
        2.24577         38.3045         4.54222 
         2.2519         38.1211         4.51202 
        2.25802         37.9942         4.48214 
        2.26417         37.7956         4.45244 
        2.27031         37.6156         4.42299 
        2.27644         37.5737         4.39389 
        2.28257         37.2093         4.36506 
        2.28872         37.2325         4.33643 
        2.29486         37.0255         4.30806 
        2.30099         36.7849         4.28001 
        2.30712         36.6934         4.25219 
        2.31326         36.4733         4.22457 
         2.3194         36.3049         4.19722 
        2.32553         36.1867         4.17015 
        2.33166         35.9833         4.14334 
         2.3378         35.7937         4.11672 
        2.34394         35.6615         4.09033 
        2.35007         35.5495         4.06421 
        2.35619         35.4048         4.03835 
        2.36233         35.1328         4.01266 
        2.36848         35.1078         3.98713 
        2.37462         34.8425         3.96188 
        2.38075         34.7696         3.93688 
        2.38689         34.6454         3.91206 
        2.39303         34.4779         3.88747 
        2.39916         34.2278         3.86312 
        2.40529         34.1527         3.83897 
        2.41143         33.9891         3.81502 
        2.41757         33.9112         3.79126 
         2.4237         33.7271         3.76774 
        2.42983         33.5139         3.74443 
        2.43598         33.4165         3.72126 
        2.44211         33.2424         3.69832 
        2.44823         33.0701         3.67562 
        2.45437         32.9784         3.65305 
        2.46052         32.7798         3.63066 
        2.46665         32.6809         3.60849 
        2.47279         32.4341         3.58651 
        2.47892         32.3955          3.5647 
        2.48507         32.2903         3.54306 
         2.4912         32.0664         3.52164 
