# k  (h/Mpc)    Pcb(k)  (Mpc/h)^3    Pcb_linear(k)  (Mpc/h)^3
     0.00783031         325.657         328.675 
       0.013688         403.602         404.952 
       0.019231         408.189         408.466 
      0.0249154          374.38         375.762 
      0.0312784           323.3         323.327 
      0.0375637         274.354         273.728 
      0.0433917         237.488         237.387 
      0.0492413         211.722         211.368 
      0.0555754         192.162         192.435 
      0.0619321         179.298         178.791 
       0.067871         166.928         167.205 
      0.0738098         154.172         154.507 
      0.0800417         138.942         139.417 
      0.0862327         123.499         123.613 
      0.0921407           109.4         109.339 
      0.0982031         96.8399         96.8905 
       0.104506         87.3927         87.0378 
       0.110769         80.5142         80.2477 
       0.116806         75.7747          75.815 
       0.122832         72.5974         72.4805 
       0.129052         69.0751         69.1969 
       0.135211          65.273         65.4275 
       0.141259         61.0555         61.0294 
       0.147318         56.3488         56.1635 
       0.153489         51.3263         51.2168 
       0.159709         46.8893         46.7439 
       0.165845         43.5137         43.1543 
       0.171974         40.5905         40.4575 
       0.178125         38.6718         38.4998 
       0.184229         37.2358         37.0241 
        0.19034         35.7112         35.7052 
       0.196428          34.422         34.3011 
       0.202534         32.9521         32.6755 
       0.208729         30.9936          30.815 
       0.214876          28.982         28.8769 
       0.220989         27.2983         27.0177 
       0.227147         25.4853         25.3517 
        0.23329         24.1149           23.97 
       0.239377         23.0573         22.8767 
       0.245482            22.1         21.9977 
       0.251667         21.4485         21.2366 
       0.257832         20.6753         20.5122 
       0.263955         19.9431         19.7596 
       0.270079         19.1353         18.9463 
        0.27624         18.3519         18.0798 
       0.282372         17.4855         17.2104 
        0.28843         16.6085         16.3902 
       0.294538         15.8655          15.641 
       0.300721         15.2729         14.9797 
        0.30691         14.6325         14.4125 
       0.313033         14.1508         13.9235 
       0.319153         13.6025         13.4777 
       0.325316         13.3061         13.0437 
        0.33145         12.8454         12.6081 
       0.337538         12.4003         12.1649 
       0.343633         11.9214         11.7158 
       0.349808         11.5061         11.2665 
       0.355968         11.0844         10.8389 
       0.362074         10.6759         10.4454 
       0.368217         10.3245         10.0852 
       0.374374         9.95812         9.75826 
       0.380519         9.69319          9.4589 
       0.386598         9.42792         9.18099 
       0.392688         9.17881          8.9119 
        0.39888         8.88957         8.64231 
       0.405048         8.63272         8.37598 
       0.411186         8.37731         8.11358 
       0.417313         8.09555          7.8583 
       0.423458         7.86882         7.61267 
       0.429607         7.61441         7.37986 
       0.435692         7.39559         7.16403 
       0.441815          7.1981          6.9607 
       0.447964         7.03543         6.76803 
       0.454126         6.81202         6.58407 
       0.460267         6.63972          6.4074 
       0.466387         6.44809          6.2357 
        0.47254         6.29571         6.06666 
       0.478662         6.14367          5.9026 
       0.484765          5.9649         5.74376 
       0.490885          5.8131         5.58994 
       0.497035         5.70352         5.44173 
       0.503198         5.54085         5.30023 
       0.509342         5.41115         5.16569 
       0.515458         5.27032         5.03743 
       0.521598         5.15054         4.91358 
       0.527764         5.01507         4.79348 
       0.533884         4.92242         4.67786 
           0.54         4.80089         4.56542 
       0.546137         4.69642         4.45551 
       0.552299         4.58923         4.34842 
       0.558452         4.46446         4.24503 
       0.564573         4.38028         4.14576 
       0.570708          4.2828         4.04978 
       0.576825         4.17782         3.95746 
       0.582926         4.10041          3.8686 
       0.589034         3.98582         3.78262 
       0.595184         3.91097         3.69881 
       0.601379         3.82547          3.6169 
       0.607522         3.76086         3.53792 
       0.613639         3.69639         3.46141 
       0.619772         3.59706         3.38685 
       0.625918         3.53613         3.31432 
       0.632068         3.47492         3.24398 
       0.638161         3.39297         3.17643 
         0.6443         3.32369         3.11045 
       0.650464         3.24901         3.04618 
       0.656582         3.20086         2.98422 
       0.662703         3.13868         2.92399 
       0.668861         3.08723         2.86507 
       0.675024         3.01919         2.80774 
       0.681124         2.95627         2.75255 
       0.687237         2.91183         2.69873 
       0.693381         2.85906         2.64611 
       0.699536         2.78671          2.5948 
       0.705665         2.74168         2.54508 
       0.711789         2.69789         2.49673 
       0.717957         2.64387         2.44931 
        0.72409         2.59878         2.40341 
       0.730186         2.55163         2.35899 
       0.736317         2.52255         2.31547 
       0.742472         2.47597         2.27291 
       0.748622         2.42706         2.23147 
        0.75476         2.37862         2.19116 
       0.760888         2.33915         2.15192 
       0.767043          2.3128         2.11349 
       0.773185         2.26359         2.07608 
       0.779291         2.23112          2.0398 
       0.785407         2.19318         2.00433 
       0.791564         2.15953          1.9695 
       0.797719         2.12779         1.93551 
       0.803834         2.09618         1.90255 
       0.809972         2.06131         1.87025 
       0.816124         2.02351         1.83864 
       0.822261         1.98726         1.80785 
       0.828378         1.96176         1.77786 
       0.834502         1.93763         1.74853 
       0.840667         1.89623         1.71968 
       0.846816         1.86808         1.69158 
       0.852925         1.84897         1.66428 
       0.859047         1.82017         1.63753 
       0.865192         1.79038         1.61129 
       0.871341         1.76475         1.58561 
       0.877463         1.74396         1.56061 
       0.883569         1.71178         1.53621 
       0.889708         1.68622         1.51222 
       0.895864         1.66291         1.48869 
       0.902008         1.63561          1.4657 
       0.908149         1.61457         1.44322 
       0.914301         1.58346         1.42118 
       0.920448         1.56452         1.39963 
       0.926574         1.54146          1.3786 
       0.932687         1.52034         1.35804 
       0.938823         1.50574         1.33784 
       0.944975          1.4829         1.31801 
       0.951105         1.46429         1.29865 
       0.957225         1.44912         1.27972 
       0.963368         1.42712          1.2611 
       0.969511          1.4048         1.24286 
       0.975621         1.38299         1.22508 
       0.981748         1.37073          1.2076 
       0.987916         1.35041         1.19036 
        0.99406         1.32974         1.17352 
        1.00019         1.31737         1.15704 
        1.00632         1.29557         1.14089 
        1.01246         1.27947         1.12504 
        1.01859         1.26545         1.10951 
        1.02471         1.24728          1.0943 
        1.03085         1.23543         1.07932 
        1.03698         1.21644         1.06465 
        1.04314         1.20322          1.0502 
        1.04929         1.18607         1.03605 
        1.05541         1.17388         1.02222 
        1.06154         1.15751         1.00861 
        1.06769         1.14306        0.995226 
        1.07382         1.12992        0.982133 
        1.07993         1.11264        0.969307 
        1.08607          1.1056        0.956658 
        1.09222          1.0888        0.944224 
        1.09836         1.08051        0.932026 
        1.10449         1.06702         0.92006 
        1.11063         1.05042        0.908291 
        1.11677         1.03717        0.896734 
         1.1229         1.02668        0.885399 
        1.12903         1.01342        0.874251 
        1.13518         1.00457        0.863287 
        1.14131        0.990589        0.852518 
        1.14745        0.973819         0.84194 
        1.15359        0.967855        0.831541 
        1.15973        0.952932        0.821314 
        1.16584        0.948616        0.811306 
        1.17197        0.935829        0.801452 
        1.17811         0.92647        0.791732 
        1.18424        0.918691        0.782202 
        1.19038        0.905217        0.772803 
        1.19652        0.893593        0.763563 
        1.20267         0.88774        0.754475 
        1.20881         0.87482        0.745537 
        1.21495        0.868406         0.73676 
        1.22108         0.85849        0.728126 
         1.2272        0.851224        0.719651 
        1.23334        0.840133        0.711293 
        1.23949        0.831038        0.703048 
        1.24562        0.823167        0.694957 
        1.25174        0.814927        0.687007 
        1.25789        0.806947        0.679158 
        1.26402        0.795691        0.671446 
        1.27014        0.788016        0.663873 
        1.27628        0.783113        0.656394 
        1.28244        0.771107        0.649017 
        1.28858        0.764548        0.641763 
        1.29471        0.758449        0.634638 
        1.30084        0.748889        0.627627 
        1.30697        0.741595        0.620712 
        1.31312        0.731142        0.613892 
        1.31925        0.726382        0.607196 
        1.32537        0.720148        0.600608 
        1.33151        0.714036        0.594094 
        1.33765        0.706048         0.58768 
        1.34378        0.697014        0.581375 
        1.34992        0.692708        0.575158 
        1.35606        0.684472        0.569019 
         1.3622        0.678701        0.562981 
        1.36833        0.671744        0.557046 
        1.37445        0.663221        0.551199 
        1.38059        0.657706        0.545419 
        1.38675        0.655922        0.539708 
        1.39288        0.646751        0.534102 
        1.39901        0.640952        0.528579 
        1.40515        0.635455        0.523121 
         1.4113        0.628114        0.517744 
        1.41742        0.622486        0.512462 
        1.42355         0.61973        0.507245 
         1.4297        0.611219        0.502085 
        1.43585         0.60608        0.496999 
        1.44198        0.603322        0.492003 
        1.44809        0.595118        0.487086 
        1.45423        0.590246        0.482218 
        1.46036        0.584973        0.477426 
        1.46649         0.58022        0.472697 
        1.47263        0.574231        0.468029 
        1.47877        0.568431        0.463426 
        1.48491        0.564053        0.458878 
        1.49104        0.557868        0.454401 
        1.49718         0.55436        0.449981 
        1.50333        0.549466        0.445613 
        1.50947        0.544911        0.441311 
         1.5156        0.539414        0.437074 
        1.52172        0.534985        0.432892 
        1.52787        0.529945        0.428756 
          1.534        0.526079         0.42468 
        1.54013        0.520216        0.420662 
        1.54627        0.516579        0.416688 
        1.55241        0.511658        0.412765 
        1.55855        0.506797        0.408898 
        1.56467        0.505002        0.405092 
         1.5708        0.499141        0.401324 
        1.57695        0.495764        0.397597 
        1.58308        0.491242        0.393927 
        1.58922        0.487282        0.390301 
        1.59535         0.48288        0.386722 
         1.6015        0.479105        0.383183 
        1.60764        0.475578         0.37969 
        1.61376        0.470274         0.37625 
        1.61989         0.46771        0.372851 
        1.62604        0.463681        0.369486 
        1.63218        0.460651        0.366164 
        1.63831        0.456596        0.362892 
        1.64444        0.452522        0.359658 
        1.65059        0.449311        0.356456 
        1.65673        0.445364        0.353296 
        1.66285        0.442208        0.350184 
        1.66898        0.439351        0.347109 
        1.67512        0.434628        0.344064 
        1.68127        0.431003        0.341054 
         1.6874        0.429158        0.338086 
        1.69353        0.424817        0.335156 
        1.69967         0.42203        0.332253 
        1.70581        0.418248        0.329386 
        1.71193        0.415298        0.326564 
        1.71806        0.411835        0.323769 
        1.72421        0.409067        0.321002 
        1.73035        0.405345         0.31827 
        1.73649        0.403289         0.31557 
        1.74262        0.399948        0.312904 
        1.74876        0.396506        0.310267 
        1.75489        0.393694        0.307667 
        1.76101        0.390298        0.305096 
        1.76715        0.387597        0.302552 
        1.77329        0.384683        0.300034 
        1.77943        0.381596        0.297543 
        1.78557        0.379344        0.295085 
        1.79171        0.376631        0.292654 
        1.79785        0.373628        0.290249 
        1.80399        0.370757        0.287873 
        1.81012        0.368536        0.285526 
        1.81625        0.365571        0.283207 
        1.82239        0.363432         0.28091 
        1.82853        0.359515        0.278639 
        1.83466        0.357629        0.276396 
        1.84078        0.354595         0.27418 
        1.84692        0.352564        0.271985 
        1.85306        0.350482        0.269811 
         1.8592         0.34778        0.267664 
        1.86533        0.345593        0.265542 
        1.87147        0.342945        0.263441 
        1.87761        0.340948        0.261361 
        1.88375        0.337482        0.259307 
        1.88988        0.335778        0.257277 
        1.89601        0.333058        0.255267 
        1.90215        0.331167        0.253278 
        1.90829        0.328515         0.25131 
        1.91442        0.326649        0.249364 
        1.92056        0.324139        0.247439 
         1.9267        0.321697        0.245534 
        1.93284        0.319617        0.243647 
        1.93897         0.31762        0.241783 
        1.94509        0.315748        0.239944 
        1.95123        0.313028        0.238118 
        1.95737        0.311566        0.236311 
        1.96349        0.309046        0.234527 
        1.96964        0.306903        0.232756 
        1.97578        0.304757        0.231003 
        1.98192         0.30336        0.229271 
        1.98805        0.301355        0.227557 
        1.99419        0.298922        0.225861 
        2.00033        0.297213         0.22418 
        2.00647        0.295577        0.222518 
         2.0126        0.293125        0.220875 
        2.01874        0.291571        0.219247 
        2.02488         0.28986        0.217633 
        2.03101        0.287514        0.216039 
        2.03714          0.2856        0.214462 
        2.04328        0.284098        0.212899 
        2.04941        0.282215        0.211353 
        2.05554        0.280474        0.209824 
        2.06167        0.278983        0.208308 
        2.06781        0.276149        0.206806 
        2.07396        0.274627        0.205317 
        2.08009         0.27298        0.203846 
        2.08622        0.271541        0.202391 
        2.09237        0.270395        0.200947 
        2.09851        0.268573        0.199516 
        2.10464        0.266755        0.198103 
        2.11077         0.26491        0.196704 
        2.11691        0.263216        0.195316 
        2.12305        0.261645        0.193941 
        2.12918        0.260205        0.192583 
        2.13531        0.258385        0.191238 
        2.14145        0.256822        0.189903 
         2.1476         0.25544        0.188579 
        2.15372        0.254275        0.187274 
        2.15985        0.252227         0.18598 
        2.16599        0.250404        0.184695 
        2.17213        0.249427        0.183423 
        2.17827        0.247941        0.182164 
         2.1844        0.246638        0.180917 
        2.19054        0.244915        0.179682 
        2.19666        0.242958         0.17846 
         2.2028        0.242115        0.177249 
        2.20893        0.240862        0.176048 
        2.21508        0.238814        0.174857 
        2.22122        0.237371        0.173676 
        2.22736        0.236349        0.172509 
        2.23349        0.234986        0.171353 
        2.23962        0.233887        0.170207 
        2.24577        0.231911         0.16907 
         2.2519        0.231176        0.167946 
        2.25802        0.229358        0.166833 
        2.26417        0.228136        0.165728 
        2.27031        0.226687        0.164631 
        2.27644        0.225626        0.163548 
        2.28257         0.22426        0.162474 
        2.28872        0.223043        0.161408 
        2.29486        0.221723        0.160352 
        2.30099         0.22059        0.159308 
        2.30712        0.219449        0.158272 
        2.31326         0.21774        0.157244 
         2.3194        0.217619        0.156225 
        2.32553        0.216274        0.155218 
        2.33166        0.214997        0.154219 
         2.3378        0.213752        0.153228 
        2.34394        0.212085        0.152246 
        2.35007        0.211136        0.151273 
        2.35619        0.209792        0.150311 
        2.36233        0.208351        0.149354 
        2.36848         0.20765        0.148403 
        2.37462        0.206267        0.147463 
        2.38075        0.205654        0.146532 
        2.38689        0.204244        0.145609 
        2.39303        0.203638        0.144693 
        2.39916        0.201798        0.143787 
        2.40529        0.200961        0.142888 
        2.41143        0.200025        0.141996 
        2.41757        0.198807        0.141111 
         2.4237        0.197863        0.140236 
        2.42983        0.196713        0.139368 
        2.43598        0.196164        0.138505 
        2.44211        0.194871        0.137651 
        2.44823        0.194176        0.136806 
        2.45437        0.192481        0.135966 
        2.46052        0.191883        0.135132 
        2.46665        0.190721        0.134307 
        2.47279        0.189676        0.133488 
        2.47892        0.188695        0.132677 
        2.48507        0.187621        0.131871 
         2.4912        0.186917        0.131073 
