# k  (h/Mpc)    Pcb(k)  (Mpc/h)^3    Pcb_linear(k)  (Mpc/h)^3
     0.00783031         10382.8         10519.1 
       0.013688         13138.9         13053.9 
       0.019231         13131.7         13106.9 
      0.0249154         11701.4         11897.3 
      0.0312784         9961.04         10031.8 
      0.0375637         8360.81         8337.85 
      0.0433917          7082.1         7160.72 
      0.0492413         6358.23         6374.12 
      0.0555754         5720.42         5848.35 
      0.0619321         5508.46         5485.43 
       0.067871         5049.87         5153.08 
      0.0738098         4653.71         4749.26 
      0.0800417         4125.95         4242.42 
      0.0862327         3657.34         3708.59 
      0.0921407         3253.73         3239.46 
      0.0982031         2856.41         2850.95 
       0.104506         2646.58         2566.92 
       0.110769         2458.98          2391.8 
       0.116806         2333.07         2289.52 
       0.122832         2253.69         2211.55 
       0.129052         2114.86         2119.04 
       0.135211         1998.25         1994.55 
       0.141259         1884.38         1840.96 
       0.147318         1742.57          1672.5 
       0.153489         1574.57         1508.86 
       0.159709         1466.81         1371.23 
       0.165845         1395.94         1270.97 
       0.171974         1318.17         1204.08 
       0.178125         1264.66         1160.55 
       0.184229          1222.7         1127.43 
        0.19034         1153.43         1091.84 
       0.196428         1130.49         1046.08 
       0.202534         1086.97          988.32 
       0.208729         1024.28         921.932 
       0.214876         964.816         855.749 
       0.220989         925.813         796.709 
       0.227147         877.659         748.486 
        0.23329          842.08         712.478 
       0.239377         825.611         686.538 
       0.245482         773.856         666.187 
       0.251667         769.138         646.764 
       0.257832         741.572         625.084 
       0.263955         716.227         599.713 
       0.270079         688.251         571.011 
        0.27624         677.662         540.902 
       0.282372         648.566         512.173 
        0.28843         632.334         487.032 
       0.294538         600.902           465.9 
       0.300721         597.449         448.652 
        0.30691         571.072         434.477 
       0.313033           560.1         421.952 
       0.319153         543.483         409.523 
       0.325316         528.024         396.131 
        0.33145         512.492         381.717 
       0.337538         505.006         366.704 
       0.343633         488.847         351.713 
       0.349808         472.157         337.392 
       0.355968         467.593         324.511 
       0.362074          458.87         313.385 
       0.368217         446.296         303.612 
       0.374374         428.197         294.862 
       0.380519          425.24         286.632 
       0.386598         414.506         278.534 
       0.392688         411.537         270.264 
        0.39888          399.95         261.618 
       0.405048         391.392         252.957 
       0.411186         384.253         244.561 
       0.417313         377.045         236.615 
       0.423458          369.82         229.252 
       0.429607         362.826         222.549 
       0.435692         353.687         216.449 
       0.441815         350.966         210.706 
       0.447964         343.859         205.187 
       0.454126         333.506         199.745 
       0.460267         328.778         194.331 
       0.466387         325.018         188.975 
        0.47254         318.198         183.677 
       0.478662         317.327         178.556 
       0.484765         306.978         173.676 
       0.490885         303.573         169.069 
       0.497035         298.661         164.719 
       0.503198         293.011         160.593 
       0.509342         290.607         156.664 
       0.515458         287.014         152.893 
       0.521598         281.192         149.204 
       0.527764         276.904         145.562 
       0.533884         274.216         142.004 
           0.54         270.292         138.537 
       0.546137         269.017         135.172 
       0.552299         263.466         131.925 
       0.558452         261.375         128.816 
       0.564573         257.377         125.847 
       0.570708         252.468         122.992 
       0.576825         248.903         120.253 
       0.582926         246.189         117.611 
       0.589034         243.714         115.036 
       0.595184         241.202         112.502 
       0.601379         238.506         110.006 
       0.607522         234.313         107.596 
       0.613639         233.116         105.268 
       0.619772         227.941         103.011 
       0.625918          226.67         100.829 
       0.632068         223.499          98.718 
       0.638161         222.424         96.6916 
         0.6443         218.923         94.7093 
       0.650464         216.775         92.7742 
       0.656582         214.969         90.9051 
       0.662703         213.409         89.0856 
       0.668861         209.733         87.3049 
       0.675024         207.314         85.5713 
       0.681124         206.491         83.9024 
       0.687237         203.563         82.2751 
       0.693381          200.58          80.684 
       0.699536         199.263          79.133 
       0.705665         198.153         77.6303 
       0.711789         195.286          76.169 
       0.717957         194.598         74.7364 
        0.72409         192.206         73.3495 
       0.730186         189.715          72.007 
       0.736317         187.989         70.6914 
       0.742472         187.032         69.4043 
       0.748622         185.427         68.1508 
        0.75476         183.957         66.9312 
       0.760888         181.514         65.7435 
       0.767043         181.146         64.5802 
       0.773185         179.188         63.4476 
       0.779291         176.026          62.349 
       0.785407         175.581         61.2749 
       0.791564         174.074         60.2197 
       0.797719         171.598         59.1901 
       0.803834         170.852         58.1914 
       0.809972         169.474         57.2124 
       0.816124         169.176          56.254 
       0.822261         167.088         55.3205 
       0.828378         165.612         54.4113 
       0.834502         165.388         53.5221 
       0.840667         162.857         52.6473 
       0.846816         161.488         51.7948 
       0.852925         160.868         50.9668 
       0.859047         159.093         50.1555 
       0.865192         157.908         49.3594 
       0.871341         156.514         48.5804 
       0.877463         155.348         47.8219 
       0.883569          154.68         47.0817 
       0.889708         153.334         46.3536 
       0.895864         151.644         45.6392 
       0.902008         150.914         44.9415 
       0.908149         150.315          44.259 
       0.914301         148.665         43.5897 
       0.920448         147.589         42.9351 
       0.926574         146.813         42.2963 
       0.932687         146.517          41.672 
       0.938823         144.506         41.0582 
       0.944975          143.17         40.4555 
       0.951105         142.699         39.8671 
       0.957225         141.202         39.2916 
       0.963368         139.826         38.7256 
       0.969511         139.606         38.1709 
       0.975621         138.834         37.6301 
       0.981748         138.186         37.0986 
       0.987916         136.682          36.574 
        0.99406         135.772         36.0617 
        1.00019         135.465         35.5603 
        1.00632         134.188         35.0689 
        1.01246         133.458         34.5863 
        1.01859         132.421         34.1135 
        1.02471         131.555         33.6503 
        1.03085         130.304         33.1942 
        1.03698         129.861         32.7475 
        1.04314          128.68         32.3073 
        1.04929         127.938         31.8763 
        1.05541         127.279         31.4549 
        1.06154         126.537         31.0402 
        1.06769         126.377         30.6325 
        1.07382         125.384         30.2335 
        1.07993         124.372         29.8425 
        1.08607         123.572          29.457 
        1.09222         123.211         29.0779 
        1.09836         122.149          28.706 
        1.10449         121.246         28.3412 
        1.11063         120.495         27.9823 
        1.11677          120.17         27.6298 
         1.1229         118.955         27.2841 
        1.12903          118.27         26.9441 
        1.13518         118.333         26.6096 
        1.14131         117.162         26.2811 
        1.14745          116.56         25.9583 
        1.15359         115.832          25.641 
        1.15973         115.443         25.3288 
        1.16584         114.335         25.0234 
        1.17197         113.842         24.7225 
        1.17811         113.245         24.4257 
        1.18424         112.665         24.1348 
        1.19038         112.225         23.8477 
        1.19652         111.513         23.5654 
        1.20267          110.68         23.2878 
        1.20881         109.996         23.0148 
        1.21495         109.421         22.7465 
        1.22108         108.967         22.4827 
         1.2272          107.96         22.2236 
        1.23334         107.622         21.9681 
        1.23949         106.746         21.7161 
        1.24562         106.391         21.4687 
        1.25174         105.609         21.2256 
        1.25789          105.25         20.9855 
        1.26402          104.62         20.7496 
        1.27014         104.034          20.518 
        1.27628         103.608         20.2892 
        1.28244         102.973         20.0635 
        1.28858         102.724         19.8415 
        1.29471         101.768         19.6234 
        1.30084         101.415         19.4089 
        1.30697         100.765         19.1972 
        1.31312         100.372         18.9884 
        1.31925         99.6461         18.7835 
        1.32537          99.326         18.5817 
        1.33151         98.4099         18.3823 
        1.33765         98.0495         18.1859 
        1.34378          97.514         17.9928 
        1.34992         97.3125         17.8024 
        1.35606         96.6924         17.6143 
         1.3622         95.8701         17.4293 
        1.36833         95.7422         17.2475 
        1.37445         95.0752         17.0684 
        1.38059         94.5559         16.8912 
        1.38675         93.9411         16.7162 
        1.39288         93.5934         16.5444 
        1.39901         93.3203         16.3751 
        1.40515         92.6679         16.2078 
         1.4113         92.0973         16.0429 
        1.41742         92.0376          15.881 
        1.42355         91.2615          15.721 
         1.4297         90.9341         15.5627 
        1.43585         90.2302         15.4068 
        1.44198         89.9018         15.2535 
        1.44809         89.4321         15.1027 
        1.45423         88.9685         14.9533 
        1.46036         88.7768         14.8062 
        1.46649         88.1766         14.6611 
        1.47263         87.6495         14.5178 
        1.47877         87.5242         14.3765 
        1.48491         86.8053         14.2369 
        1.49104         86.5283         14.0994 
        1.49718         85.9976         13.9637 
        1.50333         85.5787         13.8296 
        1.50947         85.2008         13.6975 
         1.5156         84.7752         13.5673 
        1.52172         84.3175         13.4388 
        1.52787         84.1543         13.3118 
          1.534         83.5265         13.1865 
        1.54013         83.0209         13.0631 
        1.54627         82.8105         12.9409 
        1.55241         82.2754         12.8204 
        1.55855         82.0511         12.7015 
        1.56467         81.5436         12.5845 
         1.5708         81.2028         12.4687 
        1.57695         81.0385         12.3541 
        1.58308         80.2195         12.2413 
        1.58922         80.1692         12.1298 
        1.59535         79.8847         12.0197 
         1.6015         79.2055         11.9109 
        1.60764          78.964         11.8035 
        1.61376         78.6206         11.6977 
        1.61989         78.1772         11.5931 
        1.62604         77.9881         11.4896 
        1.63218         77.5883         11.3874 
        1.63831         76.9621         11.2867 
        1.64444         76.7509         11.1872 
        1.65059         76.3132         11.0887 
        1.65673         75.9547         10.9914 
        1.66285         75.6159         10.8957 
        1.66898         75.2524          10.801 
        1.67512         74.8154         10.7073 
        1.68127         74.5521         10.6146 
         1.6874         74.2444         10.5232 
        1.69353         73.9203         10.4329 
        1.69967         73.4162         10.3435 
        1.70581         73.3335         10.2552 
        1.71193         73.1042         10.1683 
        1.71806         72.4159         10.0822 
        1.72421         72.1914         9.99693 
        1.73035         71.8836         9.91274 
        1.73649         71.5411         9.82955 
        1.74262         71.3041         9.74739 
        1.74876         70.9259         9.66612 
        1.75489         70.4869         9.58595 
        1.76101         70.3181         9.50672 
        1.76715         69.8518         9.42828 
        1.77329         69.6553         9.35063 
        1.77943         69.1341         9.27383 
        1.78557         69.0359         9.19801 
        1.79171         68.6051         9.12304 
        1.79785         68.3498         9.04888 
        1.80399         68.1423         8.97558 
        1.81012          67.868         8.90319 
        1.81625         67.2996         8.83163 
        1.82239         67.0888         8.76076 
        1.82853         66.7627          8.6907 
        1.83466         66.5112         8.62149 
        1.84078         66.1965          8.5531 
        1.84692         65.7553         8.48535 
        1.85306         65.5487         8.41826 
         1.8592         65.1358           8.352 
        1.86533         64.9651          8.2865 
        1.87147         64.5987         8.22163 
        1.87761         64.3635         8.15743 
        1.88375         64.0544         8.09399 
        1.88988         63.9216          8.0313 
        1.89601          63.494         7.96925 
        1.90215         63.2173          7.9078 
        1.90829         63.0583         7.84704 
        1.91442         62.6825         7.78691 
        1.92056         62.2769         7.72748 
         1.9267         62.1083          7.6686 
        1.93284         61.7677          7.6103 
        1.93897         61.4599         7.55273 
        1.94509         61.1548         7.49588 
        1.95123         60.9835         7.43947 
        1.95737          60.771          7.3836 
        1.96349         60.3273         7.32846 
        1.96964         60.2796         7.27372 
        1.97578         59.9222         7.21952 
        1.98192          59.642         7.16598 
        1.98805         59.5381         7.11299 
        1.99419          59.076         7.06053 
        2.00033         58.8441         7.00857 
        2.00647         58.6267         6.95716 
         2.0126         58.1953         6.90635 
        2.01874         58.0689         6.85598 
        2.02488         57.8884         6.80606 
        2.03101         57.5779         6.75674 
        2.03714         57.3056         6.70796 
        2.04328         57.1012          6.6596 
        2.04941         56.7477         6.61177 
        2.05554         56.4505         6.56444 
        2.06167         56.2886         6.51751 
        2.06781         56.0852         6.47104 
        2.07396         55.7688         6.42496 
        2.08009         55.6077          6.3794 
        2.08622         55.2896         6.33435 
        2.09237         55.0073         6.28964 
        2.09851         54.8813         6.24536 
        2.10464          54.564         6.20157 
        2.11077         54.3246         6.15827 
        2.11691         54.0576         6.11528 
        2.12305         53.8596         6.07271 
        2.12918         53.5935         6.03064 
        2.13531         53.3295         5.98897 
        2.14145         53.0893         5.94761 
         2.1476         52.9369         5.90658 
        2.15372         52.6345         5.86615 
        2.15985         52.3956         5.82606 
        2.16599         52.2099         5.78624 
        2.17213         52.0276         5.74683 
        2.17827         51.7744          5.7078 
         2.1844         51.5101         5.66917 
        2.19054         51.2128         5.63088 
        2.19666          51.026         5.59301 
         2.2028         50.8663         5.55545 
        2.20893         50.7113         5.51822 
        2.21508         50.4838         5.48129 
        2.22122         50.2073         5.44469 
        2.22736         50.0453          5.4085 
        2.23349         49.8688         5.37265 
        2.23962         49.4547          5.3371 
        2.24577         49.2641         5.30185 
         2.2519         49.0128         5.26697 
        2.25802          48.983         5.23246 
        2.26417         48.6829         5.19816 
        2.27031         48.5211         5.16414 
        2.27644         48.2456         5.13053 
        2.28257         48.0487         5.09722 
        2.28872         47.7318         5.06414 
        2.29486          47.656         5.03136 
        2.30099         47.4854         4.99895 
        2.30712         47.2499          4.9668 
        2.31326         46.9909         4.93489 
         2.3194         46.7479         4.90327 
        2.32553          46.592         4.87199 
        2.33166         46.4346           4.841 
         2.3378         46.1089         4.81023 
        2.34394         45.9102         4.77972 
        2.35007         45.7044         4.74952 
        2.35619         45.5722         4.71963 
        2.36233         45.4841         4.68992 
        2.36848         45.1591          4.6604 
        2.37462         44.9914          4.6312 
        2.38075         44.8135         4.60228 
        2.38689         44.7075         4.57359 
        2.39303         44.4499         4.54515 
        2.39916         44.2099         4.51698 
        2.40529         44.0214         4.48905 
        2.41143         43.9025         4.46133 
        2.41757         43.6935         4.43384 
         2.4237         43.5743         4.40664 
        2.42983         43.3502         4.37966 
        2.43598         43.0944         4.35284 
        2.44211         42.9364          4.3263 
        2.44823         42.7674         4.30003 
        2.45437         42.6252         4.27391 
        2.46052         42.3097         4.24799 
        2.46665         42.2078         4.22232 
        2.47279         42.0741         4.19688 
        2.47892         41.8426         4.17164 
        2.48507          41.682         4.14657 
         2.4912         41.5401         4.12177 
