# k  (h/Mpc)    Pcb(k)  (Mpc/h)^3    Pcb_linear(k)  (Mpc/h)^3
     0.00783031         2032.84         2054.11 
       0.013688         2553.75         2554.36 
       0.019231         2567.49         2566.21 
      0.0249154         2313.42            2330 
      0.0312784         1962.88         1964.97 
      0.0375637         1639.27         1633.31 
      0.0433917         1400.27         1402.79 
      0.0492413          1250.7         1248.74 
      0.0555754         1138.45         1145.77 
      0.0619321         1080.25         1074.69 
       0.067871          1004.1         1009.59 
      0.0738098         924.837          930.49 
      0.0800417         823.559         831.195 
      0.0862327         724.236         726.611 
      0.0921407         636.028         634.699 
      0.0982031         558.198         558.582 
       0.104506         508.666         502.936 
       0.110769         473.148         468.626 
       0.116806         449.424         448.587 
       0.122832         435.817         433.312 
       0.129052          414.01         415.188 
       0.135211         389.738         390.796 
       0.141259         362.729         360.704 
       0.147318         331.924         327.697 
       0.153489         298.996         295.635 
       0.159709          273.47         268.669 
       0.165845         256.476         249.026 
       0.171974         240.887         235.921 
       0.178125         232.474         227.392 
       0.184229         226.037         220.901 
        0.19034         215.633         213.929 
       0.196428         208.897         204.962 
       0.202534         199.693         193.646 
       0.208729         185.973         180.638 
       0.214876         172.411         167.671 
       0.220989         163.135         156.103 
       0.227147         152.274         146.655 
        0.23329         145.366           139.6 
       0.239377         140.965         134.517 
       0.245482         134.758          130.53 
       0.251667         132.452         126.724 
       0.257832         128.032         122.476 
       0.263955         122.983         117.505 
       0.270079         117.575         111.881 
        0.27624         113.201         105.982 
       0.282372          107.77         100.353 
        0.28843         102.464         95.4269 
       0.294538         98.1456         91.2865 
       0.300721         95.7715          87.907 
        0.30691         91.8996         85.1297 
       0.313033         89.4009         82.6755 
       0.319153         85.6035         80.2402 
       0.325316         84.2785         77.6163 
        0.33145          81.007         74.7922 
       0.337538         78.6398         71.8504 
       0.343633          75.502         68.9132 
       0.349808         72.9952         66.1073 
       0.355968         70.7197         63.5834 
       0.362074          68.381         61.4034 
       0.368217         66.4091         59.4885 
       0.374374         64.4597         57.7741 
       0.380519         62.9707         56.1616 
       0.386598         61.3167         54.5749 
       0.392688         60.0034         52.9545 
        0.39888         58.1748         51.2603 
       0.405048         56.6693         49.5634 
       0.411186         55.1964         47.9184 
       0.417313         53.3275         46.3614 
       0.423458         51.9331         44.9188 
       0.429607         50.5359         43.6054 
       0.435692         48.9812         42.4101 
       0.441815          48.197          41.285 
       0.447964         47.3848         40.2036 
       0.454126         45.5128         39.1374 
       0.460267         44.7346         38.0765 
       0.466387         43.4413          37.027 
        0.47254         42.7212         35.9891 
       0.478662          41.943         34.9855 
       0.484765          40.678         34.0294 
       0.490885          39.752         33.1268 
       0.497035          39.232         32.2744 
       0.503198         38.1878          31.466 
       0.509342         37.2225         30.6962 
       0.515458          36.462         29.9574 
       0.521598         35.8511         29.2346 
       0.527764         35.0921         28.5209 
       0.533884         34.4937         27.8238 
           0.54         33.7338         27.1445 
       0.546137         33.1915         26.4852 
       0.552299         32.6405          25.849 
       0.558452         31.6385         25.2397 
       0.564573         31.1761         24.6581 
       0.570708         30.6703         24.0986 
       0.576825         29.9322         23.5619 
       0.582926         29.3701         23.0443 
       0.589034         28.6139         22.5398 
       0.595184         28.2514         22.0432 
       0.601379         27.7149         21.5542 
       0.607522         27.2205         21.0819 
       0.613639         26.9479         20.6258 
       0.619772         26.2441         20.1836 
       0.625918         26.0967          19.756 
       0.632068         25.6727         19.3425 
       0.638161         25.1194         18.9454 
         0.6443         24.6256          18.557 
       0.650464         24.1886         18.1779 
       0.656582         24.0363         17.8116 
       0.662703         23.5803         17.4551 
       0.668861         23.1426         17.1062 
       0.675024         22.7367         16.7665 
       0.681124         22.3472         16.4395 
       0.687237         21.9837         16.1207 
       0.693381          21.782          15.809 
       0.699536         21.2174          15.505 
       0.705665         21.1269         15.2106 
       0.711789         20.6822         14.9243 
       0.717957          20.394         14.6436 
        0.72409         20.0918         14.3719 
       0.730186         19.8185         14.1088 
       0.736317         19.6042          13.851 
       0.742472         19.2757         13.5988 
       0.748622         19.0603         13.3532 
        0.75476         18.7064         13.1143 
       0.760888          18.453         12.8816 
       0.767043         18.2351         12.6536 
       0.773185          17.902         12.4317 
       0.779291         17.8032         12.2164 
       0.785407         17.5753          12.006 
       0.791564         17.2678         11.7992 
       0.797719         16.9052         11.5975 
       0.803834         16.8702         11.4018 
       0.809972         16.7184           11.21 
       0.816124         16.3344         11.0222 
       0.822261         16.1658         10.8393 
       0.828378         15.9914         10.6612 
       0.834502         15.8478         10.4869 
       0.840667         15.6148         10.3155 
       0.846816         15.3383         10.1485 
       0.852925         15.1984         9.98627 
       0.859047         15.0312         9.82731 
       0.865192         14.8941         9.67133 
       0.871341         14.7647         9.51868 
       0.877463         14.5058         9.37006 
       0.883569         14.3158         9.22504 
       0.889708         14.0971         9.08237 
       0.895864         13.9924          8.9424 
       0.902008         13.8823          8.8057 
       0.908149         13.7302         8.67197 
       0.914301         13.6096         8.54083 
       0.920448          13.365         8.41255 
       0.926574         13.2399         8.28739 
       0.932687         13.1047         8.16507 
       0.938823         12.9304         8.04481 
       0.944975         12.7826         7.92671 
       0.951105         12.6705         7.81144 
       0.957225         12.5718         7.69867 
       0.963368         12.4408         7.58778 
       0.969511         12.3237         7.47908 
       0.975621         12.1947         7.37313 
       0.981748         12.0455         7.26897 
       0.987916          11.966         7.16619 
        0.99406         11.7917         7.06581 
        1.00019         11.6194         6.96756 
        1.00632            11.6         6.87129 
        1.01246         11.4734         6.77672 
        1.01859         11.2974          6.6841 
        1.02471         11.2428         6.59333 
        1.03085         11.1294         6.50396 
        1.03698         10.9642         6.41644 
        1.04314         10.9043         6.33019 
        1.04929         10.7646         6.24573 
        1.05541         10.6475         6.16318 
        1.06154         10.5758         6.08192 
        1.06769         10.5263         6.00203 
        1.07382         10.3706         5.92385 
        1.07993         10.2913         5.84725 
        1.08607         10.2025         5.77171 
        1.09222          10.118         5.69743 
        1.09836         10.0002         5.62457 
        1.10449         9.92183         5.55308 
        1.11063         9.82153         5.48276 
        1.11677         9.77357          5.4137 
         1.1229         9.70525         5.34597 
        1.12903         9.58344         5.27934 
        1.13518         9.46974         5.21381 
        1.14131          9.4108         5.14943 
        1.14745          9.3226         5.08619 
        1.15359         9.26411         5.02401 
        1.15973         9.17998         4.96285 
        1.16584         9.04906           4.903 
        1.17197          8.9984         4.84405 
        1.17811         8.95652         4.78591 
        1.18424         8.87274         4.72889 
        1.19038         8.83496         4.67264 
        1.19652         8.73271         4.61734 
        1.20267         8.64432         4.56294 
        1.20881         8.62046         4.50944 
        1.21495         8.54717         4.45689 
        1.22108         8.44538         4.40518 
         1.2272         8.39281         4.35443 
        1.23334         8.30345         4.30437 
        1.23949         8.23567         4.25498 
        1.24562         8.19987         4.20651 
        1.25174          8.1345         4.15888 
        1.25789         8.07295         4.11184 
        1.26402         8.03254         4.06562 
        1.27014         7.96168         4.02023 
        1.27628         7.86767          3.9754 
        1.28244         7.79943         3.93117 
        1.28858         7.79553         3.88769 
        1.29471         7.70607         3.84496 
        1.30084         7.63173         3.80292 
        1.30697         7.62821         3.76145 
        1.31312         7.50638         3.72054 
        1.31925          7.4618         3.68038 
        1.32537         7.41631         3.64085 
        1.33151         7.38541         3.60177 
        1.33765         7.30863         3.56329 
        1.34378         7.25639         3.52545 
        1.34992         7.21063         3.48814 
        1.35606         7.15397          3.4513 
         1.3622         7.11601         3.41505 
        1.36833         7.05477         3.37942 
        1.37445         7.01381         3.34432 
        1.38059         6.98891         3.30962 
        1.38675         6.92456         3.27533 
        1.39288         6.88962         3.24166 
        1.39901         6.81076         3.20849 
        1.40515         6.78113         3.17571 
         1.4113         6.73666          3.1434 
        1.41742         6.69057         3.11167 
        1.42355         6.63165         3.08033 
         1.4297         6.59658         3.04932 
        1.43585         6.56823         3.01875 
        1.44198         6.53922         2.98873 
        1.44809         6.47802         2.95917 
        1.45423         6.42831          2.9299 
        1.46036         6.38323         2.90109 
        1.46649         6.34874         2.87265 
        1.47263         6.29411         2.84458 
        1.47877         6.25681         2.81689 
        1.48491         6.22346         2.78954 
        1.49104         6.18387          2.7626 
        1.49718         6.15088         2.73601 
        1.50333         6.11598         2.70972 
        1.50947         6.06588         2.68384 
         1.5156         6.03463         2.65834 
        1.52172         6.00291         2.63316 
        1.52787         5.96538         2.60827 
          1.534         5.91776         2.58373 
        1.54013         5.89501         2.55954 
        1.54627         5.84222         2.53561 
        1.55241         5.81189         2.51199 
        1.55855          5.7899          2.4887 
        1.56467          5.7454         2.46578 
         1.5708         5.72239         2.44308 
        1.57695         5.67135         2.42063 
        1.58308         5.63181         2.39853 
        1.58922         5.61976         2.37668 
        1.59535         5.59228         2.35512 
         1.6015         5.54361         2.33379 
        1.60764          5.5053         2.31274 
        1.61376         5.48667         2.29201 
        1.61989         5.45602         2.27152 
        1.62604         5.41702         2.25124 
        1.63218         5.40627         2.23122 
        1.63831         5.36864         2.21149 
        1.64444         5.34124         2.19199 
        1.65059         5.28254         2.17269 
        1.65673         5.28495         2.15363 
        1.66285         5.23123         2.13487 
        1.66898         5.20843         2.11632 
        1.67512         5.18199         2.09795 
        1.68127         5.15114         2.07979 
         1.6874         5.13448         2.06188 
        1.69353         5.08921          2.0442 
        1.69967         5.07275         2.02669 
        1.70581         5.04651         2.00938 
        1.71193         5.01468         1.99235 
        1.71806         4.99685         1.97548 
        1.72421         4.96184         1.95877 
        1.73035         4.94726         1.94228 
        1.73649         4.91627         1.92598 
        1.74262         4.88372         1.90988 
        1.74876          4.8689         1.89395 
        1.75489         4.84507         1.87824 
        1.76101          4.8053         1.86272 
        1.76715         4.79268         1.84735 
        1.77329         4.76728         1.83214 
        1.77943         4.72633         1.81709 
        1.78557         4.71829         1.80223 
        1.79171         4.69008         1.78754 
        1.79785         4.66563         1.77301 
        1.80399         4.63736         1.75865 
        1.81012         4.61866         1.74447 
        1.81625         4.59542         1.73045 
        1.82239         4.57602         1.71656 
        1.82853         4.54753         1.70283 
        1.83466         4.53148         1.68927 
        1.84078         4.51147         1.67587 
        1.84692          4.4989          1.6626 
        1.85306         4.45923         1.64945 
         1.8592         4.43414         1.63647 
        1.86533         4.41705         1.62363 
        1.87147          4.4009         1.61092 
        1.87761         4.37534         1.59834 
        1.88375          4.3539         1.58592 
        1.88988         4.33258         1.57363 
        1.89601         4.31377         1.56147 
        1.90215          4.2948         1.54943 
        1.90829         4.26848         1.53753 
        1.91442         4.25365         1.52575 
        1.92056         4.23091          1.5141 
         1.9267         4.20762         1.50257 
        1.93284         4.19277         1.49114 
        1.93897         4.17152         1.47986 
        1.94509         4.15307         1.46872 
        1.95123         4.13231         1.45767 
        1.95737         4.10577         1.44672 
        1.96349         4.09674         1.43592 
        1.96964         4.08194         1.42519 
        1.97578         4.05041         1.41457 
        1.98192         4.04259         1.40408 
        1.98805         4.02491          1.3937 
        1.99419         4.00423         1.38342 
        2.00033         3.99248         1.37324 
        2.00647         3.96835         1.36317 
         2.0126         3.95759         1.35321 
        2.01874          3.9279         1.34334 
        2.02488         3.92112         1.33356 
        2.03101         3.88991          1.3239 
        2.03714          3.8774         1.31434 
        2.04328         3.86046         1.30487 
        2.04941         3.83679         1.29549 
        2.05554         3.82628         1.28622 
        2.06167         3.81454         1.27703 
        2.06781         3.79423         1.26792 
        2.07396         3.78474         1.25889 
        2.08009         3.76598         1.24996 
        2.08622          3.7444         1.24114 
        2.09237         3.73044         1.23238 
        2.09851         3.71849          1.2237 
        2.10464          3.7033         1.21512 
        2.11077         3.68108         1.20664 
        2.11691         3.66689         1.19821 
        2.12305         3.65596         1.18987 
        2.12918         3.64641         1.18163 
        2.13531         3.62818         1.17347 
        2.14145         3.61242         1.16536 
         2.1476         3.59111         1.15732 
        2.15372         3.57684          1.1494 
        2.15985         3.57311         1.14155 
        2.16599         3.54822         1.13374 
        2.17213         3.53321         1.12602 
        2.17827          3.5254         1.11837 
         2.1844         3.50649          1.1108 
        2.19054         3.49516          1.1033 
        2.19666         3.47666         1.09588 
         2.2028         3.46219         1.08852 
        2.20893         3.45185         1.08123 
        2.21508         3.43409         1.07399 
        2.22122         3.41993         1.06682 
        2.22736         3.40887         1.05973 
        2.23349         3.40053          1.0527 
        2.23962         3.38256         1.04574 
        2.24577         3.36955         1.03883 
         2.2519         3.36096           1.032 
        2.25802          3.3445         1.02524 
        2.26417         3.33388         1.01852 
        2.27031         3.31713         1.01185 
        2.27644         3.30303         1.00526 
        2.28257         3.28806        0.998737 
        2.28872         3.28403        0.992256 
        2.29486         3.26552        0.985834 
        2.30099         3.25071        0.979482 
        2.30712         3.23903        0.973184 
        2.31326         3.22491        0.966931 
         2.3194         3.21651        0.960736 
        2.32553         3.20424        0.954607 
        2.33166         3.19632        0.948534 
         2.3378         3.18095        0.942506 
        2.34394         3.16934        0.936528 
        2.35007         3.15492        0.930611 
        2.35619          3.1481        0.924753 
        2.36233         3.13621        0.918932 
        2.36848         3.11881        0.913149 
        2.37462         3.11494        0.907428 
        2.38075         3.09857        0.901762 
        2.38689         3.09231        0.896139 
        2.39303         3.07728        0.890566 
        2.39916         3.06611        0.885046 
        2.40529         3.05556        0.879574 
        2.41143         3.04363        0.874144 
        2.41757         3.03434        0.868758 
         2.4237         3.02557        0.863427 
        2.42983         3.00128        0.858142 
        2.43598         3.00142        0.852887 
        2.44211         2.98395        0.847685 
        2.44823         2.97937        0.842538 
        2.45437          2.9639        0.837421 
        2.46052         2.95957        0.832341 
        2.46665         2.94921        0.827313 
        2.47279         2.93587        0.822328 
        2.47892         2.92744        0.817382 
        2.48507         2.91658        0.812471 
         2.4912         2.90021        0.807611 
