# k  (h/Mpc)    Pcb(k)  (Mpc/h)^3    Pcb_linear(k)  (Mpc/h)^3
     0.00783031         2012.85         2027.38 
       0.013688         2469.61         2501.44 
       0.019231         2490.75         2505.07 
      0.0249154         2276.69         2273.68 
      0.0312784         1918.27          1919.6 
      0.0375637         1591.78         1596.37 
      0.0433917         1372.64         1369.03 
      0.0492413         1213.34         1214.51 
      0.0555754         1113.46         1109.41 
      0.0619321         1027.13         1037.34 
       0.067871          971.46         974.065 
      0.0738098         898.613         899.553 
      0.0800417         808.368         806.601 
      0.0862327         707.805         707.731 
      0.0921407         620.032         619.248 
      0.0982031         548.683         544.189 
       0.104506          487.78         487.572 
       0.110769         452.341         451.339 
       0.116806         433.979         429.721 
       0.122832         414.728         414.053 
       0.129052         399.002         397.187 
       0.135211         379.162         375.412 
       0.141259          350.26         348.379 
       0.147318         318.346         317.984 
       0.153489         289.972          287.47 
       0.159709         265.601         260.788 
       0.165845         242.283         240.473 
       0.171974         232.168          226.28 
       0.178125         222.177         216.809 
       0.184229         213.012         209.978 
        0.19034         208.022          203.46 
       0.196428         199.973         195.639 
       0.202534         187.464          185.81 
       0.208729         178.631          174.21 
       0.214876          168.11         162.184 
       0.220989         154.805         150.967 
       0.227147         147.918          141.36 
        0.23329         140.784          133.85 
       0.239377         135.792         128.282 
       0.245482          130.42         124.008 
       0.251667         125.547         120.258 
       0.257832         123.335         116.415 
       0.263955         117.294         112.084 
       0.270079          112.34         107.157 
        0.27624         106.627         101.831 
       0.282372         101.935         96.5475 
        0.28843         98.9667          91.711 
       0.294538         94.2344         87.4777 
       0.300721          89.924         83.9141 
        0.30691         87.9898         80.9827 
       0.313033         84.7603          78.487 
       0.319153         83.3128         76.1611 
       0.325316         79.7694         73.7769 
        0.33145          77.063         71.2669 
       0.337538         74.5414         68.6304 
       0.343633         72.1516         65.9385 
       0.349808         69.3946         63.2744 
       0.355968         66.9559         60.7989 
       0.362074         65.4478          58.595 
       0.368217          63.386         56.6354 
       0.374374         61.9487         54.8973 
       0.380519         59.4645         53.3073 
       0.386598         57.8019          51.805 
       0.392688          56.076         50.3114 
        0.39888         54.9639         48.7678 
       0.405048         53.5401         47.2172 
       0.411186         51.9948         45.6833 
       0.417313         50.4343          44.199 
       0.423458         48.8844         42.7958 
       0.429607          47.973         41.4923 
       0.435692         47.0894         40.3024 
       0.441815         45.3153         39.1945 
       0.447964         43.9308         38.1461 
       0.454126         43.1869         37.1326 
       0.460267         42.6761         36.1443 
       0.466387          41.441         35.1719 
        0.47254         40.7632         34.2036 
       0.478662         39.4305         33.2592 
       0.484765         38.5725         32.3501 
       0.490885         37.4326         31.4787 
       0.497035         36.7777         30.6465 
       0.503198         35.9908         29.8576 
       0.509342         34.9776         29.1132 
       0.515458         34.5045         28.4046 
       0.521598         33.6911         27.7163 
       0.527764         33.1972          27.042 
       0.533884         32.3975         26.3887 
           0.54         31.7544         25.7516 
       0.546137         30.7897         25.1282 
       0.552299         30.2482         24.5204 
       0.558452         29.5916         23.9349 
       0.564573         29.2682          23.376 
       0.570708          28.512         22.8393 
       0.576825         28.1035         22.3248 
       0.582926         27.5845         21.8292 
       0.589034         27.0266         21.3476 
       0.595184         26.6834         20.8762 
       0.601379         25.9536         20.4145 
       0.607522         25.5184         19.9693 
       0.613639         25.0827         19.5379 
       0.619772         24.6492         19.1175 
       0.625918         24.1541         18.7085 
       0.632068         23.9228         18.3119 
       0.638161         23.4226         17.9315 
         0.6443         23.0378         17.5608 
       0.650464         22.4657         17.2005 
       0.656582         22.3128         16.8533 
       0.662703         22.0189         16.5157 
       0.668861         21.4333         16.1848 
       0.675024         21.1363          15.862 
       0.681124         21.0408         15.5507 
       0.687237         20.5929         15.2469 
       0.693381         20.1324         14.9499 
       0.699536         20.0269         14.6606 
       0.705665         19.6396         14.3808 
       0.711789         19.2845          14.109 
       0.717957         18.8874         13.8427 
        0.72409         18.7175          13.585 
       0.730186         18.6156         13.3354 
       0.736317         18.2052         13.0908 
       0.742472         17.9855         12.8512 
       0.748622         17.6973         12.6177 
        0.75476         17.2466         12.3905 
       0.760888           17.18         12.1693 
       0.767043          16.869         11.9526 
       0.773185         16.6717         11.7417 
       0.779291         16.5218         11.5372 
       0.785407         16.2314         11.3375 
       0.791564         16.0897         11.1413 
       0.797719         15.7393           10.95 
       0.803834         15.6661         10.7645 
       0.809972         15.3587         10.5827 
       0.816124         15.1853         10.4047 
       0.822261         15.0122         10.2313 
       0.828378         14.8346         10.0624 
       0.834502         14.6744         9.89725 
       0.840667         14.5134         9.73472 
       0.846816          14.194         9.57632 
       0.852925         14.1333         9.42247 
       0.859047         13.9504         9.27172 
       0.865192         13.7525          9.1238 
       0.871341         13.5737         8.97904 
       0.877463         13.4111         8.83812 
       0.883569         13.3215         8.70062 
       0.889708         13.0987         8.56537 
       0.895864         12.9362         8.43268 
       0.902008         12.7834         8.30312 
       0.908149         12.6069         8.17639 
       0.914301         12.5279         8.05213 
       0.920448         12.3494         7.93059 
       0.926574         12.2718         7.81202 
       0.932687         12.0784         7.69614 
       0.938823         11.9164         7.58222 
       0.944975         11.8374         7.47038 
       0.951105         11.6814         7.36121 
       0.957225         11.6088         7.25443 
       0.963368         11.4313         7.14943 
       0.969511          11.311         7.04653 
       0.975621         11.1994         6.94622 
       0.981748         11.0465         6.84763 
       0.987916         10.9611         6.75035 
        0.99406         10.8506         6.65534 
        1.00019         10.7594         6.56236 
        1.00632         10.6668         6.47126 
        1.01246         10.5364         6.38177 
        1.01859         10.4179         6.29414 
        1.02471         10.2878         6.20827 
        1.03085         10.2467         6.12372 
        1.03698         10.1436         6.04094 
        1.04314         10.0184         5.95935 
        1.04929         9.88525         5.87948 
        1.05541         9.82721          5.8014 
        1.06154         9.73571         5.72456 
        1.06769         9.67479           5.649 
        1.07382         9.51471         5.57507 
        1.07993          9.4341         5.50264 
        1.08607         9.38546         5.43121 
        1.09222         9.26125         5.36098 
        1.09836         9.22717         5.29209 
        1.10449         9.07647         5.22451 
        1.11063         9.04808         5.15804 
        1.11677         8.97507         5.09276 
         1.1229         8.88844         5.02873 
        1.12903         8.81567         4.96576 
        1.13518         8.69286         4.90382 
        1.14131         8.63154         4.84298 
        1.14745         8.51585         4.78322 
        1.15359         8.44849         4.72446 
        1.15973         8.37718         4.66668 
        1.16584         8.31328         4.61013 
        1.17197         8.23451         4.55444 
        1.17811         8.16488         4.49951 
        1.18424         8.10581         4.44566 
        1.19038         8.05307         4.39253 
        1.19652          7.9832         4.34031 
        1.20267         7.92116         4.28894 
        1.20881         7.82708         4.23841 
        1.21495          7.7715         4.18879 
        1.22108         7.71423         4.13997 
         1.2272           7.643         4.09206 
        1.23334         7.61912         4.04479 
        1.23949         7.52712         3.99817 
        1.24562         7.47322         3.95241 
        1.25174         7.42826         3.90745 
        1.25789          7.3222         3.86305 
        1.26402         7.29915         3.81943 
        1.27014         7.25594         3.77659 
        1.27628         7.16369         3.73428 
        1.28244         7.14656         3.69255 
        1.28858         7.08899         3.65151 
        1.29471          6.9946          3.6112 
        1.30084         6.94175         3.57153 
        1.30697         6.93032         3.53241 
        1.31312         6.85401         3.49382 
        1.31925         6.80697         3.45593 
        1.32537         6.76189         3.41864 
        1.33151         6.70513         3.38177 
        1.33765         6.65142         3.34547 
        1.34378         6.64096         3.30978 
        1.34992         6.56872         3.27459 
        1.35606         6.51946         3.23984 
         1.3622         6.46516         3.20566 
        1.36833         6.42624         3.17206 
        1.37445         6.37354         3.13896 
        1.38059         6.32549         3.10624 
        1.38675          6.2846          3.0739 
        1.39288          6.2395         3.04216 
        1.39901         6.18396         3.01088 
        1.40515         6.15015         2.97998 
         1.4113         6.10197         2.94952 
        1.41742         6.07369         2.91961 
        1.42355         6.01769         2.89007 
         1.4297         5.98282         2.86084 
        1.43585         5.95224         2.83203 
        1.44198         5.90433         2.80373 
        1.44809         5.86957         2.77588 
        1.45423         5.82137          2.7483 
        1.46036         5.79162         2.72115 
        1.46649         5.74898         2.69436 
        1.47263         5.72012         2.66791 
        1.47877         5.67843         2.64183 
        1.48491         5.65073         2.61606 
        1.49104         5.60131         2.59069 
        1.49718          5.5795         2.56564 
        1.50333         5.53419         2.54088 
        1.50947         5.48733          2.5165 
         1.5156          5.4717         2.49248 
        1.52172         5.43351         2.46877 
        1.52787         5.40375         2.44533 
          1.534         5.36459         2.42222 
        1.54013         5.34203         2.39943 
        1.54627         5.29897          2.3769 
        1.55241         5.25564         2.35466 
        1.55855         5.24392         2.33273 
        1.56467          5.2111         2.31114 
         1.5708         5.17237         2.28977 
        1.57695         5.12867         2.26864 
        1.58308         5.09618         2.24782 
        1.58922         5.08203         2.22726 
        1.59535         5.05165         2.20696 
         1.6015         5.00622         2.18688 
        1.60764         4.98715         2.16707 
        1.61376         4.95969         2.14756 
        1.61989         4.91428         2.12827 
        1.62604         4.89659         2.10918 
        1.63218         4.87438         2.09034 
        1.63831         4.84882         2.07177 
        1.64444         4.80758         2.05342 
        1.65059         4.78877         2.03525 
        1.65673         4.76266         2.01732 
        1.66285         4.73562         1.99966 
        1.66898         4.70674         1.98221 
        1.67512         4.67673         1.96493 
        1.68127          4.6459         1.94784 
         1.6874         4.62752           1.931 
        1.69353          4.5912         1.91437 
        1.69967         4.57495         1.89789 
        1.70581         4.54271         1.88162 
        1.71193         4.52187          1.8656 
        1.71806         4.49644         1.84973 
        1.72421         4.47101         1.83402 
        1.73035         4.44878         1.81851 
        1.73649          4.4219         1.80318 
        1.74262         4.39738         1.78804 
        1.74876         4.38653         1.77307 
        1.75489         4.35389          1.7583 
        1.76101          4.3224          1.7437 
        1.76715         4.31649         1.72925 
        1.77329         4.28975         1.71494 
        1.77943         4.25462          1.7008 
        1.78557         4.24716         1.68683 
        1.79171         4.22274         1.67302 
        1.79785         4.20498         1.65936 
        1.80399         4.16626         1.64585 
        1.81012         4.15682         1.63252 
        1.81625         4.12899         1.61934 
        1.82239         4.11574         1.60629 
        1.82853         4.08896         1.59339 
        1.83466         4.05619         1.58064 
        1.84078         4.04065         1.56805 
        1.84692         4.02246         1.55557 
        1.85306         4.00123         1.54322 
         1.8592         3.98944         1.53102 
        1.86533         3.96962         1.51896 
        1.87147         3.95056         1.50701 
        1.87761         3.93429         1.49519 
        1.88375         3.90721         1.48351 
        1.88988          3.8891         1.47197 
        1.89601         3.86709         1.46055 
        1.90215          3.8434         1.44923 
        1.90829         3.83789         1.43805 
        1.91442         3.81056         1.42698 
        1.92056         3.80493         1.41604 
         1.9267         3.77485          1.4052 
        1.93284         3.76921         1.39447 
        1.93897         3.73852         1.38388 
        1.94509         3.71354         1.37341 
        1.95123         3.70714         1.36303 
        1.95737         3.69193         1.35275 
        1.96349         3.66572         1.34261 
        1.96964         3.65132         1.33253 
        1.97578         3.63635         1.32256 
        1.98192         3.61353         1.31271 
        1.98805         3.60324         1.30296 
        1.99419         3.58712         1.29331 
        2.00033         3.55798         1.28375 
        2.00647         3.55455         1.27429 
         2.0126         3.53762         1.26495 
        2.01874         3.52381         1.25568 
        2.02488         3.50776          1.2465 
        2.03101          3.4812         1.23743 
        2.03714         3.47091         1.22845 
        2.04328         3.45798         1.21956 
        2.04941         3.43911         1.21076 
        2.05554         3.42963         1.20206 
        2.06167         3.41085         1.19342 
        2.06781         3.39633         1.18488 
        2.07396         3.37845          1.1764 
        2.08009         3.37037         1.16803 
        2.08622         3.35683         1.15974 
        2.09237         3.34696         1.15152 
        2.09851         3.31994         1.14338 
        2.10464          3.3081         1.13533 
        2.11077         3.30229         1.12736 
        2.11691         3.28227         1.11946 
        2.12305         3.26409         1.11163 
        2.12918          3.2549          1.1039 
        2.13531         3.23954         1.09624 
        2.14145         3.22751         1.08863 
         2.1476         3.20692         1.08109 
        2.15372         3.19516         1.07366 
        2.15985         3.18641         1.06629 
        2.16599         3.17483         1.05897 
        2.17213         3.16536         1.05173 
        2.17827         3.14028         1.04455 
         2.1844         3.12943         1.03745 
        2.19054         3.12029         1.03042 
        2.19666          3.1096         1.02345 
         2.2028         3.08383         1.01655 
        2.20893         3.08721         1.00971 
        2.21508         3.06933         1.00292 
        2.22122         3.04793        0.996195 
        2.22736         3.04016        0.989545 
        2.23349         3.02751        0.982957 
        2.23962         3.02137        0.976425 
        2.24577         2.99948        0.969948 
         2.2519         2.99567        0.963539 
        2.25802          2.9752        0.957198 
        2.26417         2.96714        0.950897 
        2.27031         2.95578        0.944647 
        2.27644         2.94288        0.938471 
        2.28257         2.93293        0.932352 
        2.28872         2.92106        0.926275 
        2.29486         2.90522        0.920255 
        2.30099         2.89636          0.9143 
        2.30712         2.88661        0.908396 
        2.31326         2.87653        0.902533 
         2.3194         2.86198        0.896727 
        2.32553         2.85377        0.890981 
        2.33166         2.84655        0.885288 
         2.3378         2.83484        0.879638 
        2.34394         2.81695        0.874035 
        2.35007         2.80599        0.868489 
        2.35619         2.80099        0.862998 
        2.36233         2.78596        0.857541 
        2.36848         2.77896        0.852121 
        2.37462         2.76946        0.846759 
        2.38075         2.76036        0.841449 
        2.38689         2.74915         0.83618 
        2.39303         2.73767        0.830957 
        2.39916         2.72803        0.825784 
        2.40529         2.71443        0.820657 
        2.41143          2.7099        0.815569 
        2.41757         2.70144        0.810522 
         2.4237         2.68576        0.805527 
        2.42983         2.68212        0.800575 
        2.43598         2.67203        0.795652 
        2.44211         2.65599        0.790778 
        2.44823         2.64947        0.785956 
        2.45437         2.63568        0.781162 
        2.46052         2.62947        0.776403 
        2.46665         2.62119        0.771693 
        2.47279          2.6066        0.767024 
        2.47892         2.60248         0.76239 
        2.48507         2.59287        0.757791 
         2.4912         2.58553        0.753238 
