# k  (h/Mpc)    P(k)  (Mpc/h)^3    P_linear(k)  (Mpc/h)^3
     0.00783031         13519.1         13747.7 
       0.013688         17252.2         17140.2 
       0.019231         17461.4         17461.3 
      0.0249154           15877         16225.2 
      0.0312784         13977.5         14149.4 
      0.0375637         12154.4         12180.4 
      0.0433917         10535.2         10746.9 
      0.0492413         9620.99         9719.64 
      0.0555754         8645.45         8944.99 
      0.0619321          8300.4         8328.38 
       0.067871         7508.54         7750.72 
      0.0738098         6886.14         7103.75 
      0.0800417         6107.31         6362.97 
      0.0862327         5492.86         5633.76 
      0.0921407         4990.44         5017.22 
      0.0982031         4471.24         4512.27 
       0.104506          4220.3         4132.77 
       0.110769         3938.72         3873.57 
       0.116806         3724.65         3687.64 
       0.122832         3557.02         3516.84 
       0.129052            3293         3320.41 
       0.135211         3095.44         3093.53 
       0.141259            2931         2849.97 
       0.147318         2738.01         2608.52 
       0.153489         2502.52         2389.19 
       0.159709          2368.9          2210.6 
       0.165845         2288.57         2078.33 
       0.171974         2171.68         1980.89 
       0.178125         2075.36         1902.81 
       0.184229         1992.71         1829.33 
        0.19034         1877.27         1748.73 
       0.196428          1834.1         1657.61 
       0.202534         1758.79         1558.56 
       0.208729         1671.39         1457.85 
       0.214876         1595.74         1365.87 
       0.220989         1542.43         1287.75 
       0.227147         1476.23         1224.07 
        0.23329         1421.59         1173.27 
       0.239377         1400.44         1130.91 
       0.245482         1313.46         1091.31 
       0.251667         1305.83         1050.08 
       0.257832         1254.14         1005.95 
       0.263955          1211.9         959.684 
       0.270079         1169.34         913.048 
        0.27624         1155.83         868.431 
       0.282372         1107.23         828.421 
        0.28843         1097.17         794.043 
       0.294538         1042.82         764.295 
       0.300721         1038.74         737.844 
        0.30691         996.168         713.391 
       0.313033           977.3         689.649 
       0.319153         958.446         665.561 
       0.325316         927.539          640.74 
        0.33145         905.593          616.03 
       0.337538         891.384         592.218 
       0.343633         869.177         569.876 
       0.349808         839.811         549.173 
       0.355968         834.799         530.539 
       0.362074         825.197         513.737 
       0.368217         800.546         497.993 
       0.374374         768.691         482.883 
       0.380519         769.123         468.037 
       0.386598         748.616         453.462 
       0.392688         746.171         439.014 
        0.39888         724.437          424.66 
       0.405048         713.638         410.974 
       0.411186         703.573         398.131 
       0.417313         689.273         386.131 
       0.423458         677.519          374.91 
       0.429607         667.911          364.33 
       0.435692         653.054         354.323 
       0.441815         648.357         344.583 
       0.447964         634.899         335.041 
       0.454126         625.952         325.663 
       0.460267         612.786         316.557 
       0.466387         606.229         307.788 
        0.47254         598.162         299.323 
       0.478662         595.107         291.281 
       0.484765         576.868         283.659 
       0.490885         572.805         276.379 
       0.497035         561.757         269.364 
       0.503198         556.724          262.58 
       0.509342           551.8         256.023 
       0.515458         547.822         249.685 
       0.521598         534.626         243.495 
       0.527764         524.761         237.455 
       0.533884         523.289         231.654 
           0.54         516.784         226.069 
       0.546137         514.075         220.682 
       0.552299         505.295         215.476 
       0.558452         502.808         210.464 
       0.564573         495.724         205.643 
       0.570708         489.338         200.964 
       0.576825         476.943          196.44 
       0.582926         477.691          192.06 
       0.589034         473.507         187.797 
       0.595184         469.159         183.627 
       0.601379         462.745         179.553 
       0.607522         456.388         175.641 
       0.613639          455.71         171.871 
       0.619772          444.87         168.213 
       0.625918         443.711         164.662 
       0.632068          437.21         161.215 
       0.638161         435.671         157.896 
         0.6443         427.998         154.643 
       0.650464         425.493         151.467 
       0.656582           423.2         148.402 
       0.662703         421.301          145.42 
       0.668861         413.968         142.506 
       0.675024          410.63         139.672 
       0.681124         407.829         136.946 
       0.687237         404.062         134.289 
       0.693381         398.807         131.692 
       0.699536         393.992          129.16 
       0.705665         392.016         126.705 
       0.711789         389.802         124.316 
       0.717957         386.475         121.972 
        0.72409          383.77         119.702 
       0.730186         379.065         117.504 
       0.736317           375.9          115.35 
       0.742472           374.4         113.243 
       0.748622          370.17         111.191 
        0.75476         366.031         109.195 
       0.760888         362.328         107.252 
       0.767043         363.039         105.349 
       0.773185         358.471         103.497 
       0.779291         353.672           101.7 
       0.785407         352.476         99.9429 
       0.791564         348.207         98.2169 
       0.797719         345.972         96.5329 
       0.803834         343.099         94.8992 
       0.809972         342.035         93.2979 
       0.816124         341.422         91.7303 
       0.822261          336.51         90.2034 
       0.828378         334.337         88.7161 
       0.834502         331.933         87.2615 
       0.840667         328.655         85.8304 
       0.846816         327.122         84.4359 
       0.852925         324.877         83.0814 
       0.859047         323.104         81.7541 
       0.865192         319.498         80.4518 
       0.871341         317.092         79.1772 
       0.877463         315.859         77.9363 
       0.883569         314.078         76.7254 
       0.889708         311.129         75.5343 
       0.895864         308.485         74.3656 
       0.902008         306.843         73.2243 
       0.908149         304.775         72.1078 
       0.914301         301.475          71.013 
       0.920448         299.753         69.9421 
       0.926574         296.518         68.8973 
       0.932687         297.041         67.8761 
       0.938823          293.58         66.8722 
       0.944975         292.906         65.8864 
       0.951105          290.44         64.9241 
       0.957225         288.378         63.9828 
       0.963368         284.922         63.0571 
       0.969511         283.892         62.1499 
       0.975621           281.5         61.2655 
       0.981748         281.433         60.3961 
       0.987916         279.159         59.5383 
        0.99406         275.139         58.7005 
        1.00019         275.058         57.8805 
        1.00632         273.374         57.0771 
        1.01246          271.11         56.2878 
        1.01859         271.545         55.5148 
        1.02471         267.419         54.7574 
        1.03085         265.535         54.0116 
        1.03698          264.75         53.2813 
        1.04314         262.122         52.5616 
        1.04929         260.425         51.8569 
        1.05541         260.873         51.1681 
        1.06154         256.882         50.4902 
        1.06769         256.449         49.8237 
        1.07382         254.737         49.1715 
        1.07993         252.868         48.5325 
        1.08607         252.208         47.9023 
        1.09222         250.293         47.2827 
        1.09836         248.473          46.675 
        1.10449         245.953         46.0787 
        1.11063         244.015         45.4922 
        1.11677         243.753         44.9162 
         1.1229         241.993         44.3513 
        1.12903         240.598         43.7956 
        1.13518         239.037         43.2491 
        1.14131         237.254         42.7122 
        1.14745          237.06         42.1849 
        1.15359         234.944         41.6664 
        1.15973         233.487         41.1564 
        1.16584         231.664         40.6573 
        1.17197          231.54         40.1658 
        1.17811         229.056          39.681 
        1.18424         227.776         39.2056 
        1.19038         227.092         38.7367 
        1.19652         225.336         38.2756 
        1.20267           224.9         37.8221 
        1.20881         222.779         37.3761 
        1.21495         221.561          36.938 
        1.22108         220.313         36.5071 
         1.2272         218.706         36.0841 
        1.23334         217.829         35.6668 
        1.23949         216.463         35.2552 
        1.24562         215.501         34.8512 
        1.25174         213.614         34.4542 
        1.25789         212.217         34.0623 
        1.26402         210.856         33.6771 
        1.27014         209.572         33.2989 
        1.27628         208.664         32.9254 
        1.28244         208.481         32.5569 
        1.28858         206.171         32.1946 
        1.29471         204.625         31.8386 
        1.30084         203.997         31.4884 
        1.30697          202.47         31.1429 
        1.31312         200.966         30.8022 
        1.31925          200.54         30.4676 
        1.32537         199.506         30.1384 
        1.33151         197.549         29.8129 
        1.33765         196.515         29.4925 
        1.34378         195.795         29.1774 
        1.34992         194.859         28.8667 
        1.35606         194.763         28.5599 
         1.3622         192.857         28.2581 
        1.36833         190.902         27.9614 
        1.37445         190.234         27.6691 
        1.38059         188.876         27.3802 
        1.38675         188.242         27.0947 
        1.39288         187.094         26.8144 
        1.39901         186.875         26.5383 
        1.40515         184.871         26.2654 
         1.4113         183.859         25.9965 
        1.41742         182.732         25.7324 
        1.42355         181.708         25.4715 
         1.4297         180.617         25.2134 
        1.43585         179.667          24.959 
        1.44198         178.732         24.7091 
        1.44809         178.037         24.4631 
        1.45423         176.912         24.2196 
        1.46036         175.897         23.9798 
        1.46649         174.638         23.7432 
        1.47263         173.576         23.5096 
        1.47877         172.837         23.2793 
        1.48491         171.203         23.0517 
        1.49104         171.141         22.8276 
        1.49718         169.288         22.6064 
        1.50333         168.764         22.3878 
        1.50947         168.073         22.1725 
         1.5156         166.739         21.9603 
        1.52172         165.961          21.751 
        1.52787         164.606          21.544 
          1.534         164.235         21.3399 
        1.54013          163.08         21.1387 
        1.54627         162.263         20.9398 
        1.55241         161.197         20.7433 
        1.55855         160.325         20.5497 
        1.56467         159.299         20.3591 
         1.5708         158.609         20.1704 
        1.57695         157.753         19.9838 
        1.58308          157.04            19.8 
        1.58922         156.119         19.6184 
        1.59535         154.878         19.4392 
         1.6015         154.545         19.2619 
        1.60764         153.513          19.087 
        1.61376         152.554         18.9147 
        1.61989         151.691         18.7444 
        1.62604         150.792         18.5759 
        1.63218          150.24         18.4095 
        1.63831         149.154         18.2456 
        1.64444         148.673         18.0836 
        1.65059         147.786         17.9231 
        1.65673         146.509         17.7649 
        1.66285         146.248         17.6089 
        1.66898         145.164         17.4548 
        1.67512         144.902         17.3023 
        1.68127         143.483         17.1514 
         1.6874         142.455         17.0027 
        1.69353         142.272         16.8558 
        1.69967         141.271         16.7103 
        1.70581         140.554         16.5666 
        1.71193         139.622         16.4251 
        1.71806         139.158          16.285 
        1.72421         138.208         16.1463 
        1.73035         138.068         16.0093 
        1.73649         137.054          15.874 
        1.74262         136.024         15.7403 
        1.74876           135.6         15.6081 
        1.75489         134.496         15.4777 
        1.76101         133.776         15.3489 
        1.76715         133.254         15.2213 
        1.77329         132.945          15.095 
        1.77943         131.686         14.9701 
        1.78557         131.188         14.8468 
        1.79171         130.409         14.7249 
        1.79785         129.578         14.6043 
        1.80399          128.91         14.4851 
        1.81012         128.282         14.3674 
        1.81625         127.631         14.2511 
        1.82239         127.183         14.1358 
        1.82853           126.4         14.0219 
        1.83466         125.561         13.9094 
        1.84078         125.119         13.7983 
        1.84692         124.035         13.6881 
        1.85306         123.831         13.5791 
         1.8592         122.919         13.4714 
        1.86533         122.018         13.3649 
        1.87147         121.507         13.2595 
        1.87761         120.941         13.1552 
        1.88375         119.938         13.0521 
        1.88988          119.56         12.9502 
        1.89601         118.774         12.8494 
        1.90215         118.309         12.7496 
        1.90829         117.707         12.6508 
        1.91442         117.102         12.5532 
        1.92056         116.363         12.4566 
         1.9267         116.006          12.361 
        1.93284         115.368         12.2663 
        1.93897         114.569         12.1727 
        1.94509         114.155         12.0804 
        1.95123         113.484         11.9888 
        1.95737         112.997          11.898 
        1.96349         112.326         11.8085 
        1.96964         111.394         11.7196 
        1.97578         110.852         11.6316 
        1.98192          110.66         11.5447 
        1.98805          109.67         11.4586 
        1.99419         109.383         11.3734 
        2.00033         108.688         11.2891 
        2.00647         108.256         11.2056 
         2.0126         107.489         11.1231 
        2.01874         106.931         11.0414 
        2.02488         106.463         10.9604 
        2.03101         105.719         10.8803 
        2.03714         105.174         10.8011 
        2.04328         104.778         10.7226 
        2.04941          104.15          10.645 
        2.05554         103.496         10.5682 
        2.06167         103.162         10.4921 
        2.06781         102.474         10.4166 
        2.07396         101.922         10.3419 
        2.08009          101.54          10.268 
        2.08622         100.998         10.1948 
        2.09237         100.282         10.1223 
        2.09851         99.9077         10.0505 
        2.10464         99.3527         9.97945 
        2.11077         99.0349          9.9092 
        2.11691         98.5567         9.83948 
        2.12305          97.679         9.77042 
        2.12918          97.166         9.70219 
        2.13531          96.901         9.63461 
        2.14145         96.0455         9.56753 
         2.1476         95.5563           9.501 
        2.15372         95.2908         9.43544 
        2.15985         94.8552         9.37043 
        2.16599         94.3018         9.30586 
        2.17213         93.7073         9.24196 
        2.17827         93.3711         9.17868 
         2.1844         92.7124         9.11605 
        2.19054         92.4909         9.05398 
        2.19666         91.9412         8.99258 
         2.2028         91.5231          8.9317 
        2.20893         90.9731         8.87135 
        2.21508         90.4397         8.81149 
        2.22122         89.9939         8.75216 
        2.22736         89.6249         8.69351 
        2.23349         89.2099         8.63541 
        2.23962          88.637          8.5778 
        2.24577         88.3114         8.52068 
         2.2519         87.9142         8.46415 
        2.25802         87.2269         8.40823 
        2.26417         86.8723         8.35266 
        2.27031         86.4842         8.29755 
        2.27644         85.9559         8.24309 
        2.28257         85.4533         8.18912 
        2.28872         85.0855         8.13554 
        2.29486         84.5388         8.08244 
        2.30099         84.1968         8.02993 
        2.30712         83.8528         7.97787 
        2.31326         83.4157         7.92618 
         2.3194         82.8921         7.87498 
        2.32553         82.5683         7.82431 
        2.33166         82.0937         7.77412 
         2.3378         81.5842          7.7243 
        2.34394         81.2331          7.6749 
        2.35007         80.8124           7.626 
        2.35619         80.4454         7.57759 
        2.36233         80.0096         7.52949 
        2.36848         79.5497          7.4817 
        2.37462         79.0939         7.43443 
        2.38075         78.8852         7.38761 
        2.38689         78.3695         7.34116 
        2.39303         77.9345         7.29512 
        2.39916         77.5383         7.24952 
        2.40529         77.3497         7.20431 
        2.41143         76.7953         7.15946 
        2.41757         76.5174         7.11497 
         2.4237         76.1819         7.07094 
        2.42983         75.6592         7.02729 
        2.43598         75.3618         6.98389 
        2.44211         75.0422         6.94093 
        2.44823         74.6262         6.89843 
        2.45437         74.0737         6.85617 
        2.46052         73.7651         6.81423 
        2.46665         73.5325         6.77271 
        2.47279         73.0991         6.73155 
        2.47892         72.7625         6.69071 
        2.48507         72.2771         6.65017 
         2.4912         72.0098         6.61005 
