# k  (h/Mpc)    Pcb(k)  (Mpc/h)^3    Pcb_linear(k)  (Mpc/h)^3
     0.00783031         114.163         114.959 
       0.013688         147.794         148.809 
       0.019231         157.434         157.847 
      0.0249154         152.752          152.99 
      0.0312784         138.806         138.939 
      0.0375637         122.525         122.602 
      0.0433917         108.922         108.779 
      0.0492413         97.6425         97.6047 
      0.0555754         88.8422         88.6609 
      0.0619321         82.0123         82.1819 
       0.067871         77.3277         77.3455 
      0.0738098         72.7513         72.7715 
      0.0800417         67.6543         67.6279 
      0.0862327         61.9652         61.9985 
      0.0921407         56.3328         56.3681 
      0.0982031         50.8122         50.7627 
       0.104506         45.5365         45.5843 
       0.110769         41.3724         41.3968 
       0.116806         38.3897         38.3273 
       0.122832         36.0591          36.077 
       0.129052         34.3652         34.3404 
       0.135211         32.9307          32.891 
       0.141259         31.4412         31.4608 
       0.147318         29.7794         29.8557 
       0.153489         27.9747         28.0051 
       0.159709         25.9999         26.0011 
       0.165845         23.9607         24.0361 
       0.171974         22.2733         22.2381 
       0.178125         20.7359         20.7062 
       0.184229         19.4907         19.4951 
        0.19034         18.6155         18.5646 
       0.196428         17.8685         17.8437 
       0.202534         17.1887         17.2303 
       0.208729         16.6277         16.6246 
       0.214876         16.0096         15.9721 
       0.220989         15.2085         15.2458 
       0.227147         14.4941         14.4509 
        0.23329         13.6903         13.6378 
       0.239377          12.924         12.8644 
       0.245482          12.224         12.1651 
       0.251667         11.5913         11.5612 
       0.257832         11.1307         11.0665 
       0.263955         10.7023         10.6636 
       0.270079         10.3546         10.3193 
        0.27624          10.005         9.99796 
       0.282372         9.68657         9.67509 
        0.28843         9.38422         9.33665 
       0.294538         9.01292         8.97275 
       0.300721         8.60921         8.59077 
        0.30691         8.26178         8.21045 
       0.313033          7.8989         7.85406 
       0.319153         7.61481         7.53021 
       0.325316           7.275         7.24354 
        0.33145         7.02845         6.99548 
       0.337538         6.82219         6.77928 
       0.343633         6.63338         6.58169 
       0.349808         6.43197          6.3901 
       0.355968         6.23478         6.19861 
       0.362074         6.05382         6.00425 
       0.368217         5.85139         5.80423 
       0.374374         5.67306         5.60258 
       0.380519         5.45413         5.40606 
       0.386598         5.26312         5.22119 
       0.392688         5.08709         5.04963 
        0.39888         4.93822          4.8906 
       0.405048          4.7967         4.74639 
       0.411186         4.66029         4.61462 
       0.417313          4.5399         4.49067 
       0.423458         4.40661         4.37036 
       0.429607         4.30335         4.25162 
       0.435692         4.18931         4.13421 
       0.441815         4.06264         4.01626 
       0.447964         3.93496         3.89956 
       0.454126         3.83582         3.78584 
       0.460267         3.73898         3.67735 
       0.466387         3.63082         3.57541 
        0.47254         3.53898         3.47937 
       0.478662         3.44518         3.38959 
       0.484765         3.36254         3.30508 
       0.490885         3.27551         3.22413 
       0.497035         3.18729         3.14525 
       0.503198         3.11838         3.06773 
       0.509342         3.03447         2.99179 
       0.515458         2.96825         2.91751 
       0.521598         2.89567         2.84446 
       0.527764         2.83294         2.77315 
       0.533884         2.75032         2.70502 
           0.54          2.6894         2.63995 
       0.546137         2.62055         2.57755 
       0.552299         2.56492         2.51762 
       0.558452         2.50838         2.46028 
       0.564573         2.45491         2.40534 
       0.570708         2.40068         2.35193 
       0.576825         2.34886         2.29995 
       0.582926          2.2935         2.24919 
       0.589034         2.25207         2.19951 
       0.595184         2.20545          2.1508 
       0.601379         2.15207         2.10315 
       0.607522         2.10466         2.05735 
       0.613639         2.05455         2.01323 
       0.619772         2.01976         1.97051 
       0.625918         1.97741         1.92922 
       0.632068         1.93785         1.88933 
       0.638161         1.89831         1.85103 
         0.6443         1.85954         1.81351 
       0.650464         1.82331         1.77676 
       0.656582          1.7918         1.74115 
       0.662703         1.75549         1.70639 
       0.668861         1.71416         1.67232 
       0.675024         1.68409         1.63916 
       0.681124         1.66325         1.60726 
       0.687237          1.6247         1.57619 
       0.693381          1.5882         1.54585 
       0.699536         1.56681         1.51629 
       0.705665         1.53681         1.48766 
       0.711789         1.50355         1.45984 
       0.717957         1.47785         1.43256 
        0.72409          1.4508         1.40614 
       0.730186         1.42954         1.38054 
       0.736317         1.39995         1.35543 
       0.742472         1.37831         1.33083 
       0.748622         1.35483         1.30684 
        0.75476         1.32786         1.28348 
       0.760888         1.30911         1.26071 
       0.767043         1.27617         1.23842 
       0.773185         1.25933         1.21672 
       0.779291          1.2432         1.19569 
       0.785407         1.21978         1.17514 
       0.791564         1.19914         1.15497 
       0.797719          1.1785         1.13529 
       0.803834         1.15873          1.1162 
       0.809972          1.1405         1.09749 
       0.816124         1.12165         1.07916 
       0.822261         1.10498          1.0613 
       0.828378          1.0852         1.04389 
       0.834502         1.06842         1.02685 
       0.840667         1.05333         1.01008 
       0.846816          1.0365         0.99373 
       0.852925         1.01773        0.977848 
       0.859047         1.00268        0.962282 
       0.865192        0.987983        0.947009 
       0.871341         0.97403        0.932062 
       0.877463        0.956207        0.917509 
       0.883569        0.942559        0.903307 
       0.889708        0.930148        0.889336 
       0.895864        0.916316        0.875628 
       0.902008        0.900717         0.86224 
       0.908149        0.889279        0.849141 
       0.914301        0.878102        0.836295 
       0.920448         0.86483        0.823728 
       0.926574        0.853844        0.811464 
       0.932687        0.840927        0.799476 
       0.938823        0.826177         0.78769 
       0.944975        0.816552        0.776114 
       0.951105        0.802332        0.764814 
       0.957225        0.790949         0.75376 
       0.963368        0.781973        0.742888 
       0.969511        0.772265        0.732231 
       0.975621        0.759919        0.721841 
       0.981748        0.747079        0.711628 
       0.987916        0.738006        0.701549 
        0.99406        0.729598        0.691704 
        1.00019        0.719101        0.682068 
        1.00632        0.711897        0.672626 
        1.01246        0.701573         0.66335 
        1.01859        0.692238        0.654264 
        1.02471        0.681225        0.645361 
        1.03085         0.67183        0.636593 
        1.03698        0.664631        0.628008 
        1.04314         0.65612        0.619545 
        1.04929        0.649027        0.611258 
        1.05541        0.637982        0.603157 
        1.06154        0.631358        0.595184 
        1.06769        0.623821        0.587343 
        1.07382        0.615688         0.57967 
        1.07993        0.608608        0.572152 
        1.08607        0.600244        0.564737 
        1.09222        0.592345        0.557447 
        1.09836        0.585622        0.550294 
        1.10449        0.577636        0.543275 
        1.11063        0.570359        0.536372 
        1.11677        0.564937        0.529591 
         1.1229        0.555974         0.52294 
        1.12903        0.550778        0.516398 
        1.13518        0.543642        0.509962 
        1.14131        0.537806         0.50364 
        1.14745        0.533037         0.49743 
        1.15359        0.525203        0.491323 
        1.15973        0.519958        0.485317 
        1.16584        0.512861        0.479438 
        1.17197        0.506435        0.473649 
        1.17811        0.500366        0.467938 
        1.18424        0.494886        0.462338 
        1.19038        0.488485        0.456814 
        1.19652        0.485022        0.451382 
        1.20267        0.479266         0.44604 
        1.20881        0.471703        0.440785 
        1.21495        0.467443        0.435623 
        1.22108        0.462709        0.430545 
         1.2272        0.456489         0.42556 
        1.23334        0.451838        0.420644 
        1.23949         0.44801        0.415793 
        1.24562        0.442739        0.411033 
        1.25174        0.437844        0.406354 
        1.25789        0.431689        0.401734 
        1.26402        0.428302        0.397195 
        1.27014        0.422416        0.392737 
        1.27628        0.419053        0.388334 
        1.28244        0.414631        0.383991 
        1.28858        0.409363        0.379719 
        1.29471        0.405302        0.375523 
        1.30084        0.400925        0.371394 
        1.30697        0.397731        0.367321 
        1.31312        0.393454        0.363303 
        1.31925        0.389101        0.359358 
        1.32537        0.385161        0.355476 
        1.33151        0.381017        0.351638 
        1.33765        0.376787        0.347858 
        1.34378        0.372374        0.344142 
        1.34992        0.370244        0.340477 
        1.35606        0.365598        0.336859 
         1.3622        0.362146        0.333299 
        1.36833        0.359199        0.329799 
        1.37445        0.355811        0.326351 
        1.38059        0.351745        0.322943 
        1.38675        0.347712        0.319575 
        1.39288        0.343708        0.316268 
        1.39901        0.341711         0.31301 
        1.40515        0.337822         0.30979 
         1.4113         0.33533        0.306617 
        1.41742        0.331916        0.303501 
        1.42355        0.327298        0.300422 
         1.4297        0.325833        0.297377 
        1.43585        0.321785        0.294375 
        1.44198        0.319194        0.291426 
        1.44809        0.315664        0.288524 
        1.45423        0.312994         0.28565 
        1.46036        0.309908        0.282821 
        1.46649        0.307089        0.280029 
        1.47263        0.303269        0.277272 
        1.47877        0.302307        0.274554 
        1.48491        0.297886        0.271868 
        1.49104        0.296757        0.269224 
        1.49718         0.29328        0.266613 
        1.50333        0.290943        0.264033 
        1.50947        0.288492        0.261492 
         1.5156        0.285311        0.258988 
        1.52172        0.283213        0.256518 
        1.52787        0.279674        0.254074 
          1.534        0.278013        0.251666 
        1.54013        0.275355        0.249291 
        1.54627        0.273181        0.246942 
        1.55241        0.270497        0.244624 
        1.55855        0.268256        0.242338 
        1.56467        0.266051        0.240088 
         1.5708        0.263444        0.237861 
        1.57695        0.261204        0.235658 
        1.58308        0.258024        0.233488 
        1.58922        0.256791        0.231344 
        1.59535         0.25412        0.229228 
         1.6015        0.252404        0.227135 
        1.60764        0.249837         0.22507 
        1.61376        0.247903        0.223035 
        1.61989        0.245535        0.221025 
        1.62604        0.243729        0.219034 
        1.63218        0.241903         0.21707 
        1.63831        0.239573        0.215134 
        1.64444        0.237732        0.213221 
        1.65059        0.235229        0.211327 
        1.65673        0.233608        0.209457 
        1.66285        0.232038        0.207616 
        1.66898        0.229581        0.205796 
        1.67512        0.227769        0.203995 
        1.68127        0.225823        0.202213 
         1.6874        0.224297        0.200457 
        1.69353        0.222378        0.198723 
        1.69967        0.220108        0.197005 
        1.70581        0.219046        0.195308 
        1.71193         0.21747        0.193638 
        1.71806        0.215282        0.191983 
        1.72421        0.213542        0.190345 
        1.73035        0.211877        0.188728 
        1.73649        0.210372        0.187129 
        1.74262        0.208463        0.185551 
        1.74876        0.207281         0.18399 
        1.75489        0.205399         0.18245 
        1.76101        0.203763        0.180928 
        1.76715        0.202368        0.179421 
        1.77329        0.200473         0.17793 
        1.77943        0.198859        0.176455 
        1.78557         0.19798        0.174999 
        1.79171        0.196325        0.173559 
        1.79785        0.194403        0.172135 
        1.80399        0.192673        0.170728 
        1.81012        0.191771        0.169338 
        1.81625        0.190353        0.167964 
        1.82239        0.189206        0.166603 
        1.82853        0.187328        0.165258 
        1.83466        0.185918        0.163929 
        1.84078         0.18462        0.162616 
        1.84692        0.183197        0.161315 
        1.85306        0.181937        0.160027 
         1.8592        0.180701        0.158755 
        1.86533        0.179455        0.157498 
        1.87147        0.177944        0.156253 
        1.87761         0.17655        0.155021 
        1.88375        0.175144        0.153803 
        1.88988        0.174059          0.1526 
        1.89601        0.172429        0.151409 
        1.90215        0.171331         0.15023 
        1.90829         0.16992        0.149064 
        1.91442        0.169142         0.14791 
        1.92056         0.16802        0.146769 
         1.9267        0.166593         0.14564 
        1.93284        0.165178        0.144521 
        1.93897        0.164186        0.143417 
        1.94509        0.162977        0.142326 
        1.95123        0.161858        0.141244 
        1.95737        0.160904        0.140172 
        1.96349        0.159783        0.139115 
        1.96964        0.158432        0.138065 
        1.97578        0.157477        0.137025 
        1.98192         0.15654        0.135999 
        1.98805        0.155472        0.134982 
        1.99419        0.154551        0.133976 
        2.00033        0.153145         0.13298 
        2.00647        0.152184        0.131994 
         2.0126        0.151375         0.13102 
        2.01874        0.150278        0.130054 
        2.02488        0.149245        0.129097 
        2.03101        0.148093        0.128152 
        2.03714         0.14769        0.127217 
        2.04328        0.145939         0.12629 
        2.04941        0.145415        0.125373 
        2.05554        0.144524        0.124466 
        2.06167        0.143417        0.123567 
        2.06781        0.142152        0.122676 
        2.07396        0.141361        0.121793 
        2.08009        0.140622         0.12092 
        2.08622        0.139818        0.120057 
        2.09237        0.138714          0.1192 
        2.09851        0.137754        0.118352 
        2.10464        0.136948        0.117513 
        2.11077        0.136002        0.116683 
        2.11691         0.13534         0.11586 
        2.12305        0.134008        0.115044 
        2.12918         0.13326        0.114239 
        2.13531        0.132542         0.11344 
        2.14145        0.131669        0.112648 
         2.1476        0.131021        0.111862 
        2.15372        0.130082        0.111088 
        2.15985        0.129247        0.110321 
        2.16599        0.128189        0.109558 
        2.17213        0.127748        0.108803 
        2.17827        0.126885        0.108056 
         2.1844         0.12599        0.107316 
        2.19054        0.125366        0.106583 
        2.19666        0.124601        0.105858 
         2.2028        0.123461        0.105139 
        2.20893        0.123068        0.104427 
        2.21508        0.122166         0.10372 
        2.22122        0.121431        0.103019 
        2.22736        0.120678        0.102327 
        2.23349        0.119966         0.10164 
        2.23962         0.11933         0.10096 
        2.24577        0.118661        0.100286 
         2.2519        0.117783       0.0996182 
        2.25802        0.117192       0.0989579 
        2.26417        0.116587       0.0983017 
        2.27031        0.115673       0.0976508 
        2.27644        0.115335       0.0970078 
        2.28257        0.114415       0.0963705 
        2.28872        0.113729       0.0957378 
        2.29486        0.113157       0.0951109 
        2.30099        0.112376       0.0944908 
        2.30712        0.111849        0.093876 
        2.31326        0.110948       0.0932657 
         2.3194        0.110486       0.0926611 
        2.32553        0.109948       0.0920629 
        2.33166        0.109116       0.0914702 
         2.3378        0.108509       0.0908819 
        2.34394        0.107978       0.0902986 
        2.35007        0.107359       0.0897213 
        2.35619        0.107026       0.0891497 
        2.36233         0.10604       0.0885817 
        2.36848         0.10557       0.0880175 
        2.37462        0.105104       0.0874594 
        2.38075        0.104415       0.0869067 
        2.38689        0.103922       0.0863583 
        2.39303        0.103421       0.0858147 
        2.39916        0.102591       0.0852763 
        2.40529        0.102052       0.0847426 
        2.41143        0.101346       0.0842131 
        2.41757        0.100926       0.0836879 
         2.4237        0.100385       0.0831681 
        2.42983       0.0999169       0.0826528 
        2.43598       0.0991952       0.0821404 
        2.44211       0.0985375       0.0816333 
        2.44823       0.0982364       0.0811315 
        2.45437         0.09769       0.0806326 
        2.46052       0.0971508       0.0801375 
        2.46665       0.0965847       0.0796474 
        2.47279       0.0961436       0.0791615 
        2.47892       0.0958399       0.0786794 
        2.48507       0.0950219       0.0782009 
         2.4912       0.0946577       0.0777272 
