# k  (h/Mpc)    Pcb(k)  (Mpc/h)^3    Pcb_linear(k)  (Mpc/h)^3
     0.00783031         1896.31         1907.77 
       0.013688         2457.73         2488.38 
       0.019231         2627.76         2643.04 
      0.0249154         2568.35         2567.96 
      0.0312784         2343.08         2350.21 
      0.0375637         2091.71         2103.63 
      0.0433917         1899.72          1899.9 
      0.0492413         1729.03         1736.62 
      0.0555754         1602.26         1601.94 
      0.0619321         1473.59         1493.88 
       0.067871         1392.29         1400.66 
      0.0738098          1298.6         1304.03 
      0.0800417         1194.04         1195.77 
      0.0862327         1080.77         1085.58 
      0.0921407         981.249         985.573 
      0.0982031         896.219          895.37 
       0.104506         813.446         819.155 
       0.110769         756.807         760.987 
       0.116806         720.872         717.884 
       0.122832         679.428         682.318 
       0.129052         648.052          648.06 
       0.135211          616.68         612.801 
       0.141259         576.118         575.621 
       0.147318         533.455         536.814 
       0.153489         498.714         498.034 
       0.159709           467.3         462.318 
       0.165845         430.944         432.138 
       0.171974         414.548         407.475 
       0.178125         395.021         387.498 
       0.184229         373.948          370.91 
        0.19034         362.717         355.834 
       0.196428         348.075         340.942 
       0.202534         327.744         325.371 
       0.208729         316.112         308.889 
       0.214876         302.331         292.388 
       0.220989         281.717         276.616 
       0.227147         273.076         262.086 
        0.23329         261.516         249.351 
       0.239377         252.307         238.486 
       0.245482         240.862          229.04 
       0.251667         230.925         220.468 
       0.257832         226.504         212.408 
       0.263955         215.344         204.502 
       0.270079         207.594         196.521 
        0.27624         198.228         188.445 
       0.282372         191.488         180.534 
        0.28843         188.034         173.061 
       0.294538         179.728         166.053 
       0.300721          171.96         159.595 
        0.30691         168.518         153.752 
       0.313033         162.078         148.486 
       0.319153         159.182         143.584 
       0.325316         152.554          138.87 
        0.33145         147.891         134.293 
       0.337538         143.546         129.819 
       0.343633         139.367         125.416 
       0.349808         134.902         121.079 
       0.355968         130.893         116.936 
       0.362074         128.296         113.055 
       0.368217         124.807           109.4 
       0.374374         122.244         105.976 
       0.380519         117.102         102.769 
       0.386598         114.138          99.758 
       0.392688          111.04         96.8617 
        0.39888         108.975         94.0108 
       0.405048         106.469         91.2466 
       0.411186         103.973         88.5725 
       0.417313         101.204         85.9893 
       0.423458         98.5019         83.4964 
       0.429607         96.8704         81.1114 
       0.435692         95.1951         78.8645 
       0.441815         91.8528         76.7097 
       0.447964         89.2842         74.6449 
       0.454126         87.7185         72.6627 
       0.460267         87.0139         70.7596 
       0.466387         84.7142         68.9247 
        0.47254         83.6082         67.1374 
       0.478662         80.9516          65.414 
       0.484765         79.4774         63.7503 
       0.490885         77.3795         62.1392 
       0.497035         76.5196         60.5799 
       0.503198         74.6513         59.0771 
       0.509342         72.8381         57.6352 
       0.515458         72.0298          56.253 
       0.521598         70.3457         54.9148 
       0.527764         69.5146         53.6158 
       0.533884         68.2728         52.3669 
           0.54         66.8192         51.1569 
       0.546137         64.9525         49.9795 
       0.552299         63.9863         48.8339 
       0.558452         62.7785          47.726 
       0.564573           62.37         46.6586 
       0.570708         60.6004          45.623 
       0.576825         59.9307         44.6239 
       0.582926         59.0607         43.6593 
       0.589034         57.9957         42.7233 
       0.595184         57.2434         41.8091 
       0.601379         55.7468         40.9154 
       0.607522         55.0306         40.0549 
       0.613639         54.2855         39.2226 
       0.619772         53.3955          38.412 
       0.625918         52.4275          37.623 
       0.632068         52.0176         36.8561 
       0.638161         50.9831         36.1178 
         0.6443         50.3511          35.395 
       0.650464         49.1837         34.6899 
       0.656582         48.9313         34.0096 
       0.662703         48.4124         33.3478 
       0.668861         47.2134         32.7002 
       0.675024         46.8149         32.0696 
       0.681124         46.3807          31.462 
       0.687237          45.491          30.869 
       0.693381         44.7538         30.2887 
       0.699536          44.552         29.7224 
       0.705665         43.7586         29.1733 
       0.711789         43.0469         28.6389 
       0.717957         42.3017         28.1145 
        0.72409         41.9416         27.6064 
       0.730186         41.7498         27.1143 
       0.736317         40.9757         26.6316 
       0.742472         40.4969         26.1591 
       0.748622         39.8822         25.6986 
        0.75476         39.0139         25.2503 
       0.760888         38.9289         24.8136 
       0.767043         38.3102         24.3855 
       0.773185         37.9958         23.9686 
       0.779291         37.5853          23.564 
       0.785407          36.975         23.1683 
       0.791564         36.8413         22.7793 
       0.797719         36.1361         22.3996 
       0.803834          35.936          22.031 
       0.809972         35.3401         21.6696 
       0.816124          34.992         21.3157 
       0.822261          34.639         20.9706 
       0.828378         34.3238         20.6344 
       0.834502         34.0083         20.3054 
       0.840667         33.6702         19.9815 
       0.846816         32.9827         19.6656 
       0.852925         32.9387         19.3587 
       0.859047         32.5789         19.0578 
       0.865192         32.1449         18.7623 
       0.871341         31.7722          18.473 
       0.877463            31.5         18.1912 
       0.883569         31.3522         17.9161 
       0.889708         30.8967         17.6453 
       0.895864          30.534         17.3795 
       0.902008         30.1842         17.1198 
       0.908149         29.9047         16.8656 
       0.914301         29.7643         16.6162 
       0.920448         29.3485         16.3722 
       0.926574         29.0808          16.134 
       0.932687         28.7902         15.9011 
       0.938823         28.4655          15.672 
       0.944975         28.2353          15.447 
       0.951105         27.9753         15.2272 
       0.957225          27.836         15.0122 
       0.963368         27.4305         14.8006 
       0.969511         27.1983         14.5932 
       0.975621         26.9636         14.3909 
       0.981748         26.6605          14.192 
       0.987916         26.5046         13.9956 
        0.99406         26.2281         13.8037 
        1.00019         26.0357         13.6158 
        1.00632         25.8232         13.4317 
        1.01246         25.6318         13.2507 
        1.01859         25.3268         13.0734 
        1.02471         25.1009         12.8996 
        1.03085         25.0199         12.7284 
        1.03698         24.7911         12.5607 
        1.04314         24.5182         12.3954 
        1.04929         24.2592         12.2335 
        1.05541         24.1874         12.0751 
        1.06154         24.0114         11.9192 
        1.06769         23.7805         11.7658 
        1.07382         23.4813         11.6156 
        1.07993         23.3004         11.4685 
        1.08607         23.2064         11.3233 
        1.09222         22.9595         11.1805 
        1.09836         22.8392         11.0403 
        1.10449         22.6135         10.9028 
        1.11063         22.4996         10.7674 
        1.11677         22.3941         10.6345 
         1.1229          22.172          10.504 
        1.12903         22.0324         10.3756 
        1.13518           21.78         10.2493 
        1.14131         21.6885         10.1252 
        1.14745         21.4041         10.0033 
        1.15359         21.2575         9.88331 
        1.15973         21.0892         9.76529 
        1.16584         20.9455         9.64974 
        1.17197         20.7719         9.53593 
        1.17811         20.6312         9.42362 
        1.18424         20.5073         9.31346 
        1.19038          20.404         9.20477 
        1.19652         20.2206         9.09787 
        1.20267         20.0991         8.99269 
        1.20881         19.9097         8.88921 
        1.21495          19.764         8.78754 
        1.22108         19.7391         8.68749 
         1.2272         19.5702         8.58925 
        1.23334         19.4498         8.49233 
        1.23949          19.297         8.39668 
        1.24562         19.1285         8.30279 
        1.25174         19.0434         8.21049 
        1.25789          18.876         8.11932 
        1.26402         18.8138         8.02972 
        1.27014         18.7093         7.94171 
        1.27628         18.4873         7.85476 
        1.28244         18.4934         7.76896 
        1.28858         18.3009         7.68457 
        1.29471         18.0909         7.60163 
        1.30084          18.005         7.52001 
        1.30697         17.9946         7.43947 
        1.31312         17.8006            7.36 
        1.31925         17.7216         7.28196 
        1.32537         17.6048         7.20513 
        1.33151         17.4917         7.12915 
        1.33765          17.387         7.05431 
        1.34378         17.3293         6.98071 
        1.34992          17.186         6.90811 
        1.35606         17.0385          6.8364 
         1.3622         16.9214         6.76585 
        1.36833         16.8802         6.69646 
        1.37445         16.7958          6.6281 
        1.38059         16.7011         6.56049 
        1.38675         16.5731         6.49367 
        1.39288         16.4306         6.42805 
        1.39901         16.3807         6.36338 
        1.40515         16.2632         6.29946 
         1.4113         16.1576         6.23645 
        1.41742         16.0991         6.17456 
        1.42355         15.9506         6.11339 
         1.4297            15.9         6.05288 
        1.43585         15.8208         5.99321 
        1.44198         15.7449         5.93459 
        1.44809         15.6479         5.87687 
        1.45423         15.5285         5.81971 
        1.46036         15.4603         5.76342 
        1.46649         15.3626         5.70787 
        1.47263         15.3104           5.653 
        1.47877         15.2125         5.59889 
        1.48491         15.1321         5.54541 
        1.49104         15.0245         5.49275 
        1.49718         14.9788         5.44074 
        1.50333         14.8869         5.38932 
        1.50947         14.7993         5.33868 
         1.5156         14.7436         5.28877 
        1.52172         14.6601          5.2395 
        1.52787         14.5764         5.19077 
          1.534         14.5194         5.14272 
        1.54013         14.4395         5.09533 
        1.54627         14.3474         5.04846 
        1.55241         14.2432         5.00217 
        1.55855         14.2311         4.95654 
        1.56467         14.1302          4.9116 
         1.5708          14.086          4.8671 
        1.57695         13.9795         4.82309 
        1.58308         13.8941         4.77973 
        1.58922         13.8473         4.73687 
        1.59535         13.7543         4.69456 
         1.6015         13.6553         4.65272 
        1.60764         13.6313         4.61141 
        1.61376         13.5872         4.57071 
        1.61989         13.4691         4.53048 
        1.62604          13.444         4.49065 
        1.63218         13.3822         4.45133 
        1.63831         13.2933         4.41257 
        1.64444         13.2033         4.37426 
        1.65059         13.1405         4.33632 
        1.65673         13.1067         4.29887 
        1.66285         13.0394         4.26197 
        1.66898         12.9829          4.2255 
        1.67512         12.9091         4.18938 
        1.68127         12.8149         4.15366 
         1.6874         12.7939         4.11844 
        1.69353         12.7195         4.08365 
        1.69967         12.6595         4.04919 
        1.70581         12.5907         4.01514 
        1.71193         12.5636         3.98161 
        1.71806         12.5114          3.9484 
        1.72421         12.4139          3.9155 
        1.73035         12.3678         3.88302 
        1.73649         12.3312         3.85092 
        1.74262         12.2124         3.81921 
        1.74876          12.224         3.78784 
        1.75489         12.1497         3.75688 
        1.76101         12.0744         3.72629 
        1.76715         12.0479         3.69599 
        1.77329          11.994           3.666 
        1.77943          11.906         3.63633 
        1.78557         11.9017         3.60703 
        1.79171         11.8331         3.57806 
        1.79785         11.7971         3.54939 
        1.80399         11.6906         3.52106 
        1.81012         11.6777         3.49307 
        1.81625         11.5874          3.4654 
        1.82239         11.5472         3.43799 
        1.82853         11.4915         3.41089 
        1.83466         11.4228         3.38411 
        1.84078         11.4115         3.35765 
        1.84692         11.3637         3.33144 
        1.85306         11.3184         3.30547 
         1.8592         11.2734         3.27982 
        1.86533         11.2279         3.25446 
        1.87147          11.155         3.22934 
        1.87761         11.1298         3.20448 
        1.88375         11.0691         3.17991 
        1.88988         11.0105         3.15563 
        1.89601         10.9929         3.13159 
        1.90215         10.9116         3.10778 
        1.90829         10.8852         3.08423 
        1.91442         10.8295         3.06092 
        1.92056         10.8227         3.03788 
         1.9267         10.7438         3.01506 
        1.93284         10.7346         2.99245 
        1.93897         10.6658         2.97013 
        1.94509          10.609         2.94808 
        1.95123          10.593          2.9262 
        1.95737         10.5512         2.90453 
        1.96349          10.462         2.88313 
        1.96964          10.444         2.86189 
        1.97578         10.4037         2.84086 
        1.98192         10.3488         2.82008 
        1.98805         10.3196         2.79951 
        1.99419         10.2917         2.77914 
        2.00033          10.239         2.75897 
        2.00647         10.2119         2.73901 
         2.0126         10.1669         2.71927 
        2.01874         10.1089         2.69971 
        2.02488         10.0801         2.68032 
        2.03101         10.0243         2.66115 
        2.03714         9.97975          2.6422 
        2.04328         9.94734         2.62341 
        2.04941         9.89806         2.60481 
        2.05554         9.88516         2.58642 
        2.06167         9.83931         2.56817 
        2.06781         9.79071          2.5501 
        2.07396         9.76559         2.53218 
        2.08009         9.71641         2.51447 
        2.08622         9.69949         2.49694 
        2.09237         9.67047         2.47955 
        2.09851         9.59547         2.46232 
        2.10464          9.5859         2.44529 
        2.11077         9.53043         2.42843 
        2.11691         9.53039         2.41171 
        2.12305         9.46628         2.39513 
        2.12918         9.43038         2.37876 
        2.13531         9.39985         2.36254 
        2.14145         9.36952         2.34643 
         2.1476         9.33131         2.33046 
        2.15372         9.29016         2.31471 
        2.15985         9.26604          2.2991 
        2.16599         9.23056         2.28359 
        2.17213         9.21945         2.26823 
        2.17827         9.16084         2.25303 
         2.1844         9.13667         2.23797 
        2.19054         9.10261         2.22305 
        2.19666          9.0674         2.20829 
         2.2028         9.02453         2.19365 
        2.20893         9.00642         2.17913 
        2.21508         8.97457         2.16474 
        2.22122         8.91188         2.15046 
        2.22736         8.90173         2.13635 
        2.23349         8.86707         2.12237 
        2.23962         8.84469         2.10851 
        2.24577         8.79974         2.09476 
         2.2519         8.78746         2.08115 
        2.25802         8.71631         2.06768 
        2.26417         8.71237          2.0543 
        2.27031         8.67082         2.04102 
        2.27644         8.63893         2.02791 
        2.28257         8.60289          2.0149 
        2.28872         8.59387         2.00199 
        2.29486         8.56018          1.9892 
        2.30099         8.52719         1.97654 
        2.30712         8.49298         1.96399 
        2.31326         8.45889         1.95153 
         2.3194         8.43014         1.93918 
        2.32553         8.38886         1.92696 
        2.33166         8.36721         1.91485 
         2.3378         8.34658         1.90283 
        2.34394         8.32206         1.89091 
        2.35007         8.27229         1.87911 
        2.35619         8.26729         1.86743 
        2.36233         8.21953         1.85582 
        2.36848         8.20136         1.84428 
        2.37462         8.17368         1.83286 
        2.38075          8.1538         1.82156 
        2.38689         8.12478         1.81034 
        2.39303         8.08115         1.79922 
        2.39916         8.06427          1.7882 
        2.40529         8.03046         1.77728 
        2.41143         8.01068         1.76644 
        2.41757         7.98524         1.75568 
         2.4237         7.94782         1.74504 
        2.42983         7.93815         1.73449 
        2.43598         7.91206         1.72399 
        2.44211         7.89017         1.71361 
        2.44823         7.84176         1.70333 
        2.45437         7.82333          1.6931 
        2.46052         7.80147         1.68296 
        2.46665          7.7831         1.67291 
        2.47279         7.74585         1.66295 
        2.47892         7.71213         1.65307 
        2.48507         7.70029         1.64325 
         2.4912         7.67081         1.63354 
