# k  (h/Mpc)    P(k)  (Mpc/h)^3    P_linear(k)  (Mpc/h)^3
     0.00783031         7830.09         7877.63 
       0.013688           10039         10258.7 
       0.019231         10752.6         10888.3 
      0.0249154         10564.1         10574.5 
      0.0312784         9573.01         9674.94 
      0.0375637         8507.92         8658.22 
      0.0433917         7753.91         7818.74 
      0.0492413         7026.61         7146.16 
      0.0555754          6518.4         6591.47 
      0.0619321         5919.07         6146.52 
       0.067871         5618.34         5762.73 
      0.0738098         5257.94         5364.99 
      0.0800417         4832.98         4919.43 
      0.0862327         4369.77            4466 
      0.0921407         3977.84         4054.52 
      0.0982031         3653.62         3683.38 
       0.104506         3303.57          3369.8 
       0.110769         3079.31         3130.47 
       0.116806         2953.66         2953.13 
       0.122832         2773.16          2806.8 
       0.129052          2639.4         2665.85 
       0.135211         2538.75          2520.8 
       0.141259         2360.99         2367.84 
       0.147318         2181.49         2208.19 
       0.153489         2056.26         2048.66 
       0.159709         1960.24         1901.74 
       0.165845         1795.73         1777.59 
       0.171974          1751.7         1676.13 
       0.178125          1687.9         1593.95 
       0.184229         1570.34         1525.71 
        0.19034         1540.14         1463.69 
       0.196428         1491.23         1402.43 
       0.202534         1398.26         1338.38 
       0.208729         1367.95         1270.58 
       0.214876         1311.64          1202.7 
       0.220989         1232.28         1137.83 
       0.227147          1204.1         1078.06 
        0.23329         1159.38         1025.67 
       0.239377         1142.11         980.979 
       0.245482         1087.36         942.123 
       0.251667         1047.04         906.861 
       0.257832         1035.56         873.705 
       0.263955         983.626         841.185 
       0.270079         954.444         808.357 
        0.27624         914.442         775.137 
       0.282372         897.992         742.597 
        0.28843         889.727         711.857 
       0.294538         845.913         683.028 
       0.300721         822.944         656.466 
        0.30691         809.403         632.429 
       0.313033         776.776         610.769 
       0.319153         765.397         590.605 
       0.325316         752.793         571.217 
        0.33145          737.65         552.388 
       0.337538         712.197         533.988 
       0.343633         692.526         515.873 
       0.349808         676.659         498.036 
       0.355968         664.477         480.993 
       0.362074         644.865         465.026 
       0.368217         640.913         449.995 
       0.374374         629.752          435.91 
       0.380519         606.231         422.719 
       0.386598         599.926         410.334 
       0.392688         588.177          398.42 
        0.39888         572.591         386.694 
       0.405048         563.884         375.323 
       0.411186          561.08         364.324 
       0.417313         554.877         353.698 
       0.423458         538.338         343.444 
       0.429607         525.176         333.634 
       0.435692         517.341         324.392 
       0.441815         509.511         315.528 
       0.447964         499.276         307.035 
       0.454126         493.228         298.882 
       0.460267         485.753         291.054 
       0.466387         478.628         283.506 
        0.47254         471.556         276.155 
       0.478662         461.291         269.066 
       0.484765         456.977         262.222 
       0.490885         452.364         255.596 
       0.497035         444.366         249.182 
       0.503198         443.215             243 
       0.509342         432.333         237.069 
       0.515458         426.252         231.384 
       0.521598         419.414         225.879 
       0.527764         413.399         220.536 
       0.533884         412.292         215.399 
           0.54         405.958         210.422 
       0.546137         397.674         205.579 
       0.552299         397.057         200.867 
       0.558452         390.971          196.31 
       0.564573          386.82         191.919 
       0.570708         382.219         187.659 
       0.576825         375.538          183.55 
       0.582926         372.499         179.582 
       0.589034         367.764         175.732 
       0.595184         365.469         171.972 
       0.601379         359.128         168.296 
       0.607522         353.386         164.756 
       0.613639         351.456         161.333 
       0.619772         349.775         157.999 
       0.625918         344.861         154.753 
       0.632068         339.874         151.599 
       0.638161         336.848         148.562 
         0.6443         334.676         145.589 
       0.650464         329.708         142.689 
       0.656582         326.828          139.89 
       0.662703         324.672         137.168 
       0.668861         319.593         134.505 
       0.675024         318.009          131.91 
       0.681124         314.516         129.411 
       0.687237         311.646         126.972 
       0.693381         308.735         124.585 
       0.699536         305.363         122.256 
       0.705665          302.39         119.997 
       0.711789         300.459         117.799 
       0.717957         296.761         115.642 
        0.72409         294.208         113.552 
       0.730186         295.311         111.528 
       0.736317         290.055         109.543 
       0.742472          286.53         107.599 
       0.748622         283.174         105.705 
        0.75476         283.665         103.861 
       0.760888         280.271         102.065 
       0.767043         277.262         100.304 
       0.773185         275.702         98.5891 
       0.779291         271.494         96.9248 
       0.785407         270.696          95.297 
       0.791564         267.893          93.697 
       0.797719         264.134         92.1351 
       0.803834         265.815         90.6193 
       0.809972         262.935         89.1327 
       0.816124         259.619         87.6767 
       0.822261         256.948         86.2576 
       0.828378         257.178         84.8746 
       0.834502         252.997         83.5212 
       0.840667         252.713         82.1889 
       0.846816         249.261         80.8898 
       0.852925         248.121         79.6273 
       0.859047         245.568         78.3895 
       0.865192         245.334         77.1742 
       0.871341         241.953         75.9843 
       0.877463         239.979         74.8251 
       0.883569         239.662         73.6934 
       0.889708         237.647         72.5796 
       0.895864         235.666         71.4862 
       0.902008         233.574         70.4179 
       0.908149         231.505         69.3724 
       0.914301         230.825         68.3467 
       0.920448         229.505          67.343 
       0.926574         227.204         66.3632 
       0.932687         226.059         65.4052 
       0.938823         224.346         64.4629 
       0.944975         222.633         63.5373 
       0.951105         220.832         62.6334 
       0.957225         219.737         61.7489 
       0.963368         218.366         60.8787 
       0.969511         215.478         60.0254 
       0.975621         214.476         59.1933 
       0.981748         212.989         58.3751 
       0.987916          212.11         57.5673 
        0.99406         210.443         56.7781 
        1.00019         209.185         56.0054 
        1.00632         208.401          55.248 
        1.01246         206.747         54.5036 
        1.01859         204.824         53.7743 
        1.02471         203.298         53.0594 
        1.03085         202.366         52.3553 
        1.03698         200.768         51.6655 
        1.04314         200.378         50.9854 
        1.04929         199.155         50.3192 
        1.05541         197.626         49.6678 
        1.06154          196.39         49.0265 
        1.06769         194.507         48.3956 
        1.07382         194.052          47.778 
        1.07993          192.44         47.1726 
        1.08607         190.855         46.5754 
        1.09222         190.123          45.988 
        1.09836         188.876         45.4116 
        1.10449         187.191         44.8458 
        1.11063         186.205         44.2891 
        1.11677         185.494         43.7422 
         1.1229         183.902         43.2056 
        1.12903         183.352         42.6776 
        1.13518          182.03         42.1581 
        1.14131         180.938         41.6476 
        1.14745         179.455         41.1459 
        1.15359         177.755         40.6525 
        1.15973         177.432          40.167 
        1.16584          176.63         39.6918 
        1.17197         175.559         39.2236 
        1.17811         173.888         38.7617 
        1.18424         173.034         38.3086 
        1.19038         172.089         37.8615 
        1.19652         170.749         37.4218 
        1.20267          169.93         36.9891 
        1.20881         168.759         36.5635 
        1.21495         168.438         36.1453 
        1.22108         166.974         35.7338 
         1.2272          165.81         35.3297 
        1.23334         165.281          34.931 
        1.23949         164.719         34.5376 
        1.24562         163.285         34.1514 
        1.25174         161.938         33.7718 
        1.25789         161.385         33.3968 
        1.26402         160.804         33.0282 
        1.27014         159.717         32.6662 
        1.27628         157.869         32.3086 
        1.28244          157.66         31.9556 
        1.28858         156.528         31.6085 
        1.29471         155.626         31.2674 
        1.30084         154.737         30.9316 
        1.30697         154.122         30.6004 
        1.31312         153.041         30.2735 
        1.31925         151.775         29.9525 
        1.32537         151.428         29.6365 
        1.33151         150.596         29.3239 
        1.33765         149.071         29.0161 
        1.34378         149.187         28.7134 
        1.34992         148.406         28.4148 
        1.35606         147.207         28.1198 
         1.3622         146.858         27.8296 
        1.36833          145.16         27.5442 
        1.37445         144.938          27.263 
        1.38059         144.009         26.9849 
        1.38675          143.13           26.71 
        1.39288         142.258         26.4401 
        1.39901         141.239         26.1741 
        1.40515          140.87         25.9112 
         1.4113         140.148         25.6521 
        1.41742         139.028         25.3975 
        1.42355         138.663         25.1459 
         1.4297         137.589          24.897 
        1.43585         136.659         24.6516 
        1.44198         135.742         24.4104 
        1.44809         134.841          24.173 
        1.45423         134.599         23.9379 
        1.46036         133.612         23.7064 
        1.46649         132.752         23.4778 
        1.47263         132.483         23.2522 
        1.47877         131.291         23.0296 
        1.48491         130.587         22.8096 
        1.49104          129.28          22.593 
        1.49718         129.454         22.3791 
        1.50333         128.641         22.1676 
        1.50947         127.959         21.9593 
         1.5156         127.167          21.754 
        1.52172         126.412         21.5513 
        1.52787         125.684         21.3509 
          1.534          125.25         21.1532 
        1.54013         124.533         20.9583 
        1.54627         123.551         20.7655 
        1.55241          122.98         20.5752 
        1.55855         122.362         20.3874 
        1.56467         121.373         20.2026 
         1.5708         120.984         20.0196 
        1.57695         120.448         19.8385 
        1.58308         119.713         19.6602 
        1.58922         119.464         19.4839 
        1.59535         118.834         19.3099 
         1.6015         117.792         19.1378 
        1.60764         117.061         18.9678 
        1.61376         116.482         18.8005 
        1.61989         115.928          18.635 
        1.62604          115.27         18.4711 
        1.63218         114.879         18.3094 
        1.63831         113.936           18.15 
        1.64444         113.377         17.9924 
        1.65059         112.649         17.8363 
        1.65673         112.149         17.6823 
        1.66285         111.633         17.5305 
        1.66898         110.782         17.3805 
        1.67512         110.481          17.232 
        1.68127         109.781          17.085 
         1.6874          109.13         16.9402 
        1.69353         108.381         16.7971 
        1.69967         108.188         16.6553 
        1.70581         107.628         16.5152 
        1.71193         106.928         16.3773 
        1.71806          106.16         16.2407 
        1.72421         105.697         16.1054 
        1.73035         105.402         15.9718 
        1.73649         104.649         15.8398 
        1.74262         103.992         15.7093 
        1.74876         103.426         15.5803 
        1.75489          102.89          15.453 
        1.76101         102.295         15.3271 
        1.76715         101.754         15.2025 
        1.77329         101.263         15.0791 
        1.77943         100.673         14.9571 
        1.78557           100.3         14.8366 
        1.79171         99.7637         14.7174 
        1.79785         99.0359         14.5995 
        1.80399         98.6785          14.483 
        1.81012         97.9852         14.3678 
        1.81625         97.6645          14.254 
        1.82239         97.3073         14.1413 
        1.82853         96.5582         14.0298 
        1.83466         95.9357         13.9197 
        1.84078         95.5621         13.8108 
        1.84692         95.2869          13.703 
        1.85306         94.6586         13.5962 
         1.8592           94.28         13.4907 
        1.86533         93.6942         13.3864 
        1.87147         93.0715         13.2831 
        1.87761         92.5666         13.1808 
        1.88375         91.9744         13.0797 
        1.88988         91.4849         12.9799 
        1.89601         91.1513          12.881 
        1.90215         90.5591          12.783 
        1.90829         90.0603         12.6862 
        1.91442         89.8052         12.5903 
        1.92056         89.2685         12.4955 
         1.9267         88.8044         12.4017 
        1.93284         88.4226         12.3087 
        1.93897         88.0409         12.2168 
        1.94509         87.3711         12.1262 
        1.95123         87.0471         12.0362 
        1.95737         86.3945          11.947 
        1.96349         86.0712          11.859 
        1.96964         85.7171         11.7716 
        1.97578         85.1001         11.6851 
        1.98192         84.6645         11.5997 
        1.98805         84.1913          11.515 
        1.99419         83.7305         11.4313 
        2.00033         83.2212         11.3483 
        2.00647         83.0235         11.2662 
         2.0126         82.5562          11.185 
        2.01874         82.1937         11.1045 
        2.02488         81.7809         11.0248 
        2.03101         81.3535          10.946 
        2.03714          81.049          10.868 
        2.04328          80.522         10.7907 
        2.04941         79.8386         10.7142 
        2.05554         79.7464         10.6385 
        2.06167         79.2878         10.5635 
        2.06781         78.7061         10.4892 
        2.07396         78.4625         10.4155 
        2.08009         78.0855         10.3426 
        2.08622         77.6284         10.2705 
        2.09237         77.1883          10.199 
        2.09851         76.6925         10.1281 
        2.10464         76.4858          10.058 
        2.11077         76.0807         9.98873 
        2.11691         75.7666         9.91992 
        2.12305         75.2512         9.85176 
        2.12918         74.8241         9.78441 
        2.13531         74.5513         9.71769 
        2.14145         73.9582         9.65143 
         2.1476         73.7291         9.58573 
        2.15372         73.3981         9.52097 
        2.15985         72.9287         9.45674 
        2.16599         72.5528         9.39293 
        2.17213          72.251         9.32978 
        2.17827         71.7363         9.26723 
         2.1844         71.4855         9.20531 
        2.19054         71.1655         9.14394 
        2.19666         70.6615         9.08322 
         2.2028         70.4766           9.023 
        2.20893         69.9866          8.9633 
        2.21508         69.5905         8.90408 
        2.22122         69.1776         8.84537 
        2.22736         68.8671         8.78732 
        2.23349         68.6422         8.72981 
        2.23962         68.3419         8.67279 
        2.24577         67.8514         8.61623 
         2.2519         67.5734         8.56025 
        2.25802         67.2473         8.50487 
        2.26417         66.8166         8.44982 
        2.27031         66.4495         8.39522 
        2.27644          66.233         8.34125 
        2.28257         65.9321         8.28777 
        2.28872         65.6452         8.23466 
        2.29486         65.3552         8.18203 
        2.30099         64.7999         8.12997 
        2.30712         64.6369         8.07835 
        2.31326         64.3052         8.02708 
         2.3194         63.9177          7.9763 
        2.32553         63.7199         7.92604 
        2.33166         63.1979         7.87624 
         2.3378         62.9477          7.8268 
        2.34394         62.6762         7.77777 
        2.35007         62.3482         7.72923 
        2.35619         62.0514         7.68117 
        2.36233          61.664         7.63341 
        2.36848         61.3817         7.58595 
        2.37462         61.0412         7.53901 
        2.38075          60.799          7.4925 
        2.38689         60.5096         7.44635 
        2.39303         60.2611          7.4006 
        2.39916         60.0137         7.35529 
        2.40529         59.5926         7.31036 
        2.41143         59.3412         7.26578 
        2.41757         58.9869         7.22154 
         2.4237         58.8628         7.17777 
        2.42983         58.3501         7.13436 
        2.43598         58.1291         7.09119 
        2.44211          57.866         7.04846 
        2.44823         57.5597         7.00618 
        2.45437          57.286         6.96413 
        2.46052         56.9924          6.9224 
        2.46665         56.6643         6.88108 
        2.47279         56.4758         6.84011 
        2.47892         56.1784         6.79945 
        2.48507         55.8707         6.75909 
         2.4912         55.6134         6.71913 
