# k  (h/Mpc)    Pcb(k)  (Mpc/h)^3    Pcb_linear(k)  (Mpc/h)^3
     0.00783031         13649.8         13705.5 
       0.013688         17396.1           17866 
       0.019231         18655.4         18971.4 
      0.0249154         18383.2         18429.8 
      0.0312784         16582.4         16865.3 
      0.0375637         14696.5         15094.9 
      0.0433917         13412.7         13632.4 
      0.0492413         12125.7         12460.5 
      0.0555754         11237.4         11493.9 
      0.0619321         10134.3         10718.4 
       0.067871         9631.14         10049.4 
      0.0738098         9040.28         9356.05 
      0.0800417         8296.33         8579.19 
      0.0862327          7505.9         7788.56 
      0.0921407         6851.74         7071.03 
      0.0982031         6316.88         6423.84 
       0.104506         5708.34         5877.01 
       0.110769         5327.72         5459.66 
       0.116806         5117.64          5150.4 
       0.122832         4813.91         4895.23 
       0.129052         4561.53         4649.44 
       0.135211         4416.08         4396.47 
       0.141259         4099.55         4129.72 
       0.147318         3803.62         3851.29 
       0.153489         3601.73         3573.07 
       0.159709         3469.81         3316.82 
       0.165845         3182.39          3100.3 
       0.171974         3106.14         2923.36 
       0.178125         3018.78         2780.03 
       0.184229         2789.89         2661.02 
        0.19034         2753.93         2552.86 
       0.196428         2679.89         2446.02 
       0.202534         2529.02         2334.31 
       0.208729         2475.23         2216.06 
       0.214876         2373.54         2097.68 
       0.220989         2264.38         1984.52 
       0.227147         2206.94         1880.28 
        0.23329         2125.12         1788.91 
       0.239377         2115.68         1710.96 
       0.245482          2024.1          1643.2 
       0.251667         1951.35          1581.7 
       0.257832         1922.94         1523.87 
       0.263955         1843.51         1467.15 
       0.270079         1803.66         1409.89 
        0.27624         1729.13         1351.95 
       0.282372         1713.97          1295.2 
        0.28843         1682.22         1241.59 
       0.294538         1612.02         1191.31 
       0.300721         1585.85         1144.98 
        0.30691         1547.46         1103.06 
       0.313033         1494.75         1065.28 
       0.319153         1481.47         1030.11 
       0.325316          1463.9         996.291 
        0.33145         1435.13         963.451 
       0.337538         1392.37         931.356 
       0.343633         1362.39         899.763 
       0.349808         1341.03         868.653 
       0.355968          1313.6         838.927 
       0.362074         1280.21         811.081 
       0.368217         1276.38         784.863 
       0.374374         1256.92         760.296 
       0.380519         1217.37         737.289 
       0.386598         1214.21         715.687 
       0.392688            1184         694.909 
        0.39888         1162.44         674.456 
       0.405048         1142.07         654.625 
       0.411186         1136.11          635.44 
       0.417313         1135.39         616.907 
       0.423458         1100.53         599.023 
       0.429607         1072.46         581.912 
       0.435692         1065.82         565.792 
       0.441815         1045.89         550.333 
       0.447964            1037         535.519 
       0.454126         1022.79         521.299 
       0.460267         1011.79         507.646 
       0.466387          996.72         494.482 
        0.47254         978.505         481.659 
       0.478662         968.995         469.295 
       0.484765         960.191         457.359 
       0.490885         948.976         445.801 
       0.497035         933.613         434.614 
       0.503198         932.671         423.832 
       0.509342         915.814         413.488 
       0.515458         897.973         403.572 
       0.521598         898.174         393.971 
       0.527764         877.048         384.652 
       0.533884         868.955         375.692 
           0.54         862.957         367.011 
       0.546137         853.094         358.564 
       0.552299         846.299         350.345 
       0.558452         838.819         342.397 
       0.564573          832.82         334.739 
       0.570708         824.643          327.31 
       0.576825         808.138         320.142 
       0.582926         806.565         313.221 
       0.589034         797.787         306.506 
       0.595184         788.463         299.948 
       0.601379         776.306         293.536 
       0.607522         767.183         287.362 
       0.613639         766.306         281.391 
       0.619772         759.159         275.576 
       0.625918         749.945         269.916 
       0.632068         744.838         264.414 
       0.638161         734.711         259.117 
         0.6443         728.671         253.931 
       0.650464         723.689         248.873 
       0.656582         718.347         243.992 
       0.662703         708.512         239.245 
       0.668861         702.205         234.599 
       0.675024         697.878         230.074 
       0.681124         686.495         225.715 
       0.687237         686.974         221.461 
       0.693381         674.893         217.298 
       0.699536         675.907         213.235 
       0.705665         667.373         209.296 
       0.711789         665.059         205.462 
       0.717957         657.094           201.7 
        0.72409         651.533         198.055 
       0.730186         649.228         194.524 
       0.736317         641.567         191.061 
       0.742472         633.371         187.671 
       0.748622         631.653         184.367 
        0.75476         624.144         181.151 
       0.760888         621.231         178.018 
       0.767043         618.882         174.947 
       0.773185         614.431         171.956 
       0.779291         607.039         169.053 
       0.785407         602.558         166.214 
       0.791564         598.833         163.424 
       0.797719         590.241         160.699 
       0.803834         591.156         158.055 
       0.809972          583.23         155.463 
       0.816124         579.244         152.923 
       0.822261         575.959         150.448 
       0.828378         573.369         148.036 
       0.834502         564.539         145.675 
       0.840667         563.418         143.351 
       0.846816         558.478         141.086 
       0.852925         556.558         138.884 
       0.859047         551.276         136.725 
       0.865192         548.031         134.605 
       0.871341          541.74          132.53 
       0.877463         540.813         130.508 
       0.883569          534.89         128.534 
       0.889708         529.467         126.591 
       0.895864         524.633         124.684 
       0.902008         524.127         122.821 
       0.908149         519.177         120.997 
       0.914301          517.43         119.208 
       0.920448         511.042         117.458 
       0.926574         508.815         115.749 
       0.932687         507.278         114.078 
       0.938823         500.851         112.434 
       0.944975          498.14          110.82 
       0.951105           495.1         109.243 
       0.957225           488.2         107.701 
       0.963368         489.382         106.183 
       0.969511         482.026         104.695 
       0.975621         480.781         103.243 
       0.981748         477.665         101.816 
       0.987916         474.982         100.407 
        0.99406         470.581         99.0307 
        1.00019         466.036          97.683 
        1.00632          464.37         96.3619 
        1.01246         460.983         95.0636 
        1.01859         456.985         93.7916 
        1.02471         455.225         92.5448 
        1.03085         451.781         91.3165 
        1.03698         449.996         90.1135 
        1.04314         445.847         88.9272 
        1.04929         444.285         87.7654 
        1.05541         438.074         86.6292 
        1.06154         437.403         85.5105 
        1.06769          433.19         84.4102 
        1.07382         430.014         83.3329 
        1.07993          429.24         82.2772 
        1.08607         425.923         81.2355 
        1.09222         422.217          80.211 
        1.09836          419.67         79.2056 
        1.10449         416.105         78.2188 
        1.11063         414.422         77.2479 
        1.11677         409.938         76.2939 
         1.1229         408.772          75.358 
        1.12903         405.097          74.437 
        1.13518         403.355         73.5309 
        1.14131         401.378         72.6405 
        1.14745         396.687         71.7655 
        1.15359         394.102         70.9049 
        1.15973         392.369         70.0582 
        1.16584         390.711         69.2293 
        1.17197         387.563         68.4128 
        1.17811          383.27          67.607 
        1.18424         382.235         66.8167 
        1.19038         379.924         66.0369 
        1.19652         376.026           65.27 
        1.20267         375.006         64.5154 
        1.20881           373.2          63.773 
        1.21495          368.63         63.0436 
        1.22108         368.253         62.3259 
         1.2272         362.827         61.6211 
        1.23334         362.146         60.9257 
        1.23949         359.343         60.2395 
        1.24562         359.043         59.5659 
        1.25174         355.329         58.9038 
        1.25789           352.7         58.2497 
        1.26402         350.915         57.6069 
        1.27014         349.264         56.9755 
        1.27628         345.982         56.3517 
        1.28244         343.786         55.7361 
        1.28858         342.355         55.1307 
        1.29471         340.586         54.5357 
        1.30084         338.731         53.9501 
        1.30697         335.114         53.3723 
        1.31312         333.125         52.8022 
        1.31925         331.459         52.2423 
        1.32537         329.858         51.6911 
        1.33151         326.654          51.146 
        1.33765         324.401         50.6091 
        1.34378         322.349         50.0811 
        1.34992         319.764         49.5602 
        1.35606         318.002         49.0458 
         1.3622         316.521         48.5396 
        1.36833         315.429         48.0418 
        1.37445         313.659         47.5513 
        1.38059         309.956         47.0663 
        1.38675         308.746         46.5869 
        1.39288         307.423         46.1162 
        1.39901         304.629         45.6522 
        1.40515         303.234         45.1936 
         1.4113         300.974         44.7416 
        1.41742         298.261         44.2975 
        1.42355         297.961         43.8587 
         1.4297           295.6         43.4246 
        1.43585         292.384         42.9966 
        1.44198         291.641          42.576 
        1.44809         290.127         42.1619 
        1.45423         287.944         41.7518 
        1.46036         286.596          41.348 
        1.46649         284.764         40.9494 
        1.47263          281.88         40.5558 
        1.47877         280.853         40.1676 
        1.48491         278.526         39.7839 
        1.49104         276.599         39.4061 
        1.49718         275.347          39.033 
        1.50333         273.179         38.6641 
        1.50947         272.318         38.3008 
         1.5156          269.78         37.9427 
        1.52172         268.223         37.5893 
        1.52787         266.329         37.2396 
          1.534         265.929         36.8949 
        1.54013         263.424         36.5549 
        1.54627         261.868         36.2187 
        1.55241         260.461         35.8866 
        1.55855         258.783         35.5592 
        1.56467           257.1         35.2368 
         1.5708         255.748         34.9176 
        1.57695         254.308         34.6018 
        1.58308         253.226         34.2907 
        1.58922         250.949         33.9833 
        1.59535          248.94         33.6798 
         1.6015         247.943         33.3796 
        1.60764         246.326         33.0832 
        1.61376         244.438         32.7912 
        1.61989         242.973         32.5026 
        1.62604          241.31         32.2168 
        1.63218          239.87         31.9347 
        1.63831         239.146         31.6567 
        1.64444         236.961         31.3818 
        1.65059         236.198         31.1096 
        1.65673         234.235          30.841 
        1.66285         232.997         30.5762 
        1.66898          231.58         30.3146 
        1.67512         229.876         30.0555 
        1.68127          228.76         29.7992 
         1.6874         226.997         29.5465 
        1.69353         226.286          29.297 
        1.69967         224.696         29.0497 
        1.70581         223.136         28.8054 
        1.71193         221.948         28.5649 
        1.71806         219.975         28.3266 
        1.72421           219.2         28.0906 
        1.73035         217.337         27.8576 
        1.73649         215.773         27.6273 
        1.74262         215.067         27.3998 
        1.74876         213.612         27.1747 
        1.75489         212.627         26.9526 
        1.76101         211.562         26.7331 
        1.76715         209.856         26.5158 
        1.77329         207.925         26.3006 
        1.77943         206.913         26.0878 
        1.78557         206.035         25.8776 
        1.79171         205.401         25.6697 
        1.79785         203.754         25.4641 
        1.80399         202.382         25.2608 
        1.81012         201.318           25.06 
        1.81625         199.719         24.8614 
        1.82239         198.732         24.6648 
        1.82853         197.908         24.4704 
        1.83466          196.23         24.2783 
        1.84078          195.18         24.0885 
        1.84692         194.327         23.9004 
        1.85306          192.65         23.7141 
         1.8592         191.991         23.5301 
        1.86533         190.114         23.3482 
        1.87147         189.447          23.168 
        1.87761         188.247         22.9896 
        1.88375         186.805         22.8133 
        1.88988         186.039         22.6391 
        1.89601         185.508         22.4666 
        1.90215         183.973         22.2958 
        1.90829         182.653         22.1269 
        1.91442         181.819         21.9597 
        1.92056         180.284         21.7944 
         1.9267         179.734         21.6306 
        1.93284         178.531         21.4685 
        1.93897         177.238         21.3083 
        1.94509         176.623         21.1501 
        1.95123         175.313         20.9931 
        1.95737         174.762         20.8377 
        1.96349         173.363         20.6842 
        1.96964          172.23         20.5318 
        1.97578         171.429         20.3809 
        1.98192         170.641         20.2318 
        1.98805         169.378         20.0842 
        1.99419          168.25         19.9381 
        2.00033         167.563         19.7934 
        2.00647         166.212         19.6502 
         2.0126         165.312         19.5086 
        2.01874         164.453         19.3682 
        2.02488         163.365         19.2291 
        2.03101         163.036         19.0917 
        2.03714         161.901         18.9557 
        2.04328         160.601         18.8208 
        2.04941         160.004         18.6874 
        2.05554          159.01         18.5555 
        2.06167         157.981         18.4246 
        2.06781         157.283         18.2949 
        2.07396         156.051         18.1664 
        2.08009         155.429         18.0393 
        2.08622         154.427         17.9135 
        2.09237         153.361         17.7888 
        2.09851         152.778         17.6652 
        2.10464         151.985          17.543 
        2.11077         150.984         17.4221 
        2.11691         150.246         17.3021 
        2.12305         149.198         17.1832 
        2.12918         148.262         17.0657 
        2.13531         147.305         16.9493 
        2.14145         146.782         16.8338 
         2.1476         145.747         16.7192 
        2.15372         144.957         16.6062 
        2.15985         144.134         16.4942 
        2.16599         143.482         16.3829 
        2.17213         142.466         16.2727 
        2.17827         141.816         16.1636 
         2.1844         140.873         16.0556 
        2.19054         140.144         15.9486 
        2.19666         139.253         15.8427 
         2.2028         138.686         15.7377 
        2.20893         137.881         15.6335 
        2.21508         136.834         15.5302 
        2.22122         135.976         15.4278 
        2.22736         135.385         15.3266 
        2.23349          134.77         15.2263 
        2.23962         134.107         15.1268 
        2.24577         133.148         15.0282 
         2.2519         132.288         14.9306 
        2.25802         132.017          14.834 
        2.26417         131.146         14.7379 
        2.27031         130.247         14.6427 
        2.27644         129.556         14.5486 
        2.28257         129.087         14.4553 
        2.28872         128.145         14.3627 
        2.29486         127.463         14.2709 
        2.30099         126.538         14.1801 
        2.30712         126.113           14.09 
        2.31326         125.303         14.0006 
         2.3194         124.786          13.912 
        2.32553         124.002         13.8244 
        2.33166         123.564         13.7375 
         2.3378         122.706         13.6513 
        2.34394         121.653         13.5658 
        2.35007         121.267         13.4811 
        2.35619          120.47         13.3973 
        2.36233         120.113          13.314 
        2.36848         119.353         13.2312 
        2.37462         118.935         13.1493 
        2.38075         118.145         13.0682 
        2.38689         117.336         12.9877 
        2.39303         116.761         12.9079 
        2.39916          116.25         12.8289 
        2.40529         115.546         12.7505 
        2.41143         114.676         12.6728 
        2.41757         114.037         12.5956 
         2.4237         113.666         12.5193 
        2.42983         113.057         12.4435 
        2.43598          112.24         12.3683 
        2.44211         111.829         12.2937 
        2.44823         111.195           12.22 
        2.45437         110.703         12.1466 
        2.46052         109.966         12.0738 
        2.46665         109.527         12.0018 
        2.47279         108.855         11.9303 
        2.47892          108.31         11.8594 
        2.48507         107.767          11.789 
         2.4912         107.222         11.7193 
