#  k  (h/Mpc)          P(k)  (Mpc/h)^3     P_linear(k) (Mpc/h)^3
     0.00783031         2765.56          2787.6 
       0.013688         3173.45         3217.36 
       0.019231         3015.75          3033.9 
      0.0249154         2594.95         2586.75 
      0.0312784         2045.36         2042.56 
      0.0375637         1608.95         1610.91 
      0.0433917         1347.89         1341.88 
      0.0492413         1180.51          1179.9 
      0.0555754         1087.43          1081.8 
      0.0619321         1004.35         1014.03 
       0.067871         942.185         943.683 
      0.0738098         852.444         852.002 
      0.0800417         741.666         737.918 
      0.0862327         626.415          624.08 
      0.0921407         534.796         531.527 
      0.0982031         468.651         462.012 
       0.104506         419.136          417.35 
       0.110769          396.25         394.018 
       0.116806         386.189         381.623 
       0.122832         370.777         369.579 
       0.129052         352.892         350.509 
       0.135211         327.658         323.011 
       0.141259         293.879         290.538 
       0.147318         260.287         257.811 
       0.153489         233.453         229.237 
       0.159709         214.037         208.095 
       0.165845         197.822         194.881 
       0.171974         193.354         187.375 
       0.178125         187.599         182.614 
       0.184229         180.649         177.686 
        0.19034         174.838         170.514 
       0.196428         165.131         160.585 
       0.202534         151.212          148.68 
       0.208729         141.558         136.282 
       0.214876         131.764         125.301 
       0.220989         121.423         116.686 
       0.227147         116.967         110.531 
        0.23329         112.687         106.416 
       0.239377         109.954         103.437 
       0.245482         106.083         100.582 
       0.251667         101.666         97.0986 
       0.257832         98.9309         92.7427 
       0.263955         92.6828         87.7188 
       0.270079         87.5281          82.483 
        0.27624         82.4981         77.5365 
       0.282372         78.7066         73.3337 
        0.28843         76.6328         70.0282 
       0.294538         73.4334         67.4523 
       0.300721         70.5467         65.3588 
        0.30691         69.2519         63.4457 
       0.313033         66.6582         61.4671 
       0.319153         65.1847         59.2542 
       0.325316         62.0436         56.8042 
        0.33145         59.4137          54.261 
       0.337538         57.0728         51.8062 
       0.343633         55.1319         49.5636 
       0.349808         52.9974           47.59 
       0.355968         51.2524         45.9266 
       0.362074         50.2469          44.503 
       0.368217         48.7304         43.2048 
       0.374374         47.5748         41.9326 
       0.380519         45.6493         40.6262 
       0.386598          44.218         39.2835 
       0.392688         42.6804         37.9022 
        0.39888         41.7193         36.5167 
       0.405048         40.5294         35.2072 
       0.411186         39.2733         34.0055 
       0.417313         38.0904         32.9269 
       0.423458         36.9166         31.9501 
       0.429607         36.2523          31.046 
       0.435692         35.6141         30.1948 
       0.441815         34.2405         29.3546 
       0.447964         33.1199         28.5072 
       0.454126         32.5063         27.6578 
       0.460267         32.0376         26.8246 
       0.466387          31.046         26.0195 
        0.47254         30.4986         25.2482 
       0.478662         29.4618         24.5299 
       0.484765         28.7966         23.8635 
       0.490885         27.9173         23.2344 
       0.497035         27.4227         22.6311 
       0.503198         26.8642         22.0477 
       0.509342          26.051         21.4807 
       0.515458         25.6462         20.9254 
       0.521598         25.0217         20.3765 
       0.527764         24.6035         19.8395 
       0.533884         23.9955          19.326 
           0.54         23.5048         18.8362 
       0.546137          22.776         18.3669 
       0.552299          22.343         17.9162 
       0.558452          21.825         17.4848 
       0.564573         21.5684         17.0718 
       0.570708         21.0233         16.6713 
       0.576825         20.6972         16.2829 
       0.582926         20.2882         15.9042 
       0.589034         19.8525          15.534 
       0.595184         19.5957         15.1716 
       0.601379         19.0484         14.8187 
       0.607522           18.68         14.4818 
       0.613639         18.3648         14.1591 
       0.619772          18.016         13.8469 
       0.625918         17.6596         13.5443 
       0.632068         17.4625         13.2503 
       0.638161         17.0877          12.967 
         0.6443          16.797         12.6893 
       0.650464         16.3645         12.4182 
       0.656582         16.2392         12.1569 
       0.662703         15.9936         11.9032 
       0.668861         15.5714         11.6555 
       0.675024         15.3274         11.4149 
       0.681124         15.2677         11.1837 
       0.687237         14.9285         10.9586 
       0.693381         14.5778         10.7386 
       0.699536          14.484         10.5244 
       0.705665         14.1844         10.3169 
       0.711789         13.9336         10.1151 
       0.717957         13.6327         9.91743 
        0.72409         13.4951         9.72616 
       0.730186         13.4138         9.54115 
       0.736317         13.1014         9.36001 
       0.742472          12.946         9.18298 
       0.748622         12.7274         9.01075 
        0.75476          12.395         8.84335 
       0.760888          12.343         8.68049 
       0.767043         12.0991          8.5211 
       0.773185         11.9427         8.36605 
       0.779291         11.8278         8.21572 
       0.785407          11.625         8.06887 
       0.791564         11.5038         7.92468 
       0.797719         11.2415         7.78409 
       0.803834         11.1894         7.64781 
       0.809972         10.9567         7.51433 
       0.816124         10.8311         7.38376 
       0.822261         10.6968         7.25668 
       0.828378         10.5665           7.133 
       0.834502         10.4406         7.01212 
       0.840667         10.3145          6.8933 
       0.846816         10.0817         6.77759 
       0.852925         10.0406         6.66529 
       0.859047         9.89172         6.55531 
       0.865192         9.74938         6.44748 
       0.871341         9.62442         6.34202 
       0.877463         9.49207          6.2394 
       0.883569         9.42089         6.13933 
       0.889708         9.25859         6.04095 
       0.895864         9.13809         5.94449 
       0.902008         9.03044         5.85034 
       0.908149         8.89299          5.7583 
       0.914301          8.8204         5.66811 
       0.920448         8.70659         5.57993 
       0.926574         8.64617         5.49395 
       0.932687         8.49674         5.40998 
       0.938823         8.37273         5.32746 
       0.944975         8.32803         5.24648 
       0.951105         8.20577         5.16749 
       0.957225          8.1482         5.09026 
       0.963368         8.01664         5.01435 
       0.969511         7.92704            4.94 
       0.975621         7.84612         4.86756 
       0.981748         7.73667          4.7964 
       0.987916         7.67116         4.72621 
        0.99406         7.58419          4.6577 
        1.00019         7.51735         4.59068 
        1.00632         7.45686         4.52505 
        1.01246         7.34771         4.46061 
        1.01859         7.27157         4.39753 
        1.02471         7.17342         4.33575 
        1.03085         7.13399         4.27495 
        1.03698         7.06001         4.21545 
        1.04314         6.96828         4.15683 
        1.04929         6.87638         4.09947 
        1.05541         6.82195         4.04343 
        1.06154         6.75584          3.9883 
        1.06769         6.71223         3.93413 
        1.07382         6.60068         3.88114 
        1.07993         6.54174         3.82924 
        1.08607         6.49929         3.77809 
        1.09222         6.41369         3.72783 
        1.09836         6.38079         3.67854 
        1.10449         6.28127          3.6302 
        1.11063           6.255         3.58269 
        1.11677         6.19847         3.53604 
         1.1229         6.13485         3.49031 
        1.12903         6.07854         3.44535 
        1.13518         5.99998         3.40115 
        1.14131         5.94947         3.35776 
        1.14745         5.86615         3.31514 
        1.15359         5.81038         3.27326 
        1.15973         5.76407         3.23209 
        1.16584         5.71658         3.19181 
        1.17197         5.65473         3.15217 
        1.17811         5.60819         3.11307 
        1.18424         5.56448         3.07476 
        1.19038         5.52791         3.03698 
        1.19652         5.47214         2.99986 
        1.20267         5.43169         2.96335 
        1.20881         5.36022         2.92746 
        1.21495         5.32322         2.89223 
        1.22108         5.27203         2.85758 
         1.2272         5.22236         2.82358 
        1.23334         5.20343         2.79006 
        1.23949         5.13934           2.757 
        1.24562         5.10239         2.72457 
        1.25174          5.0705         2.69271 
        1.25789          4.9945         2.66126 
        1.26402         4.97114         2.63038 
        1.27014         4.94081         2.60006 
        1.27628          4.8795         2.57012 
        1.28244         4.86085         2.54061 
        1.28858         4.81643         2.51159 
        1.29471         4.75693          2.4831 
        1.30084         4.71776         2.45507 
        1.30697         4.70323         2.42744 
        1.31312         4.65244          2.4002 
        1.31925         4.61716         2.37345 
        1.32537         4.58242         2.34715 
        1.33151         4.54025         2.32115 
        1.33765         4.50386         2.29556 
        1.34378          4.4934          2.2704 
        1.34992         4.44629         2.24561 
        1.35606         4.40941         2.22114 
         1.3622         4.36874         2.19707 
        1.36833         4.34122         2.17342 
        1.37445         4.30023         2.15013 
        1.38059         4.26088         2.12711 
        1.38675          4.2351         2.10438 
        1.39288          4.2109         2.08206 
        1.39901         4.16497         2.06009 
        1.40515         4.14184         2.03838 
         1.4113         4.10901         2.01699 
        1.41742         4.08822         1.99599 
        1.42355          4.0471         1.97525 
         1.4297         4.01624         1.95474 
        1.43585         3.99926         1.93453 
        1.44198         3.96421         1.91469 
        1.44809         3.93601         1.89516 
        1.45423         3.90486         1.87583 
        1.46036         3.88301          1.8568 
        1.46649         3.85384         1.83804 
        1.47263         3.82999         1.81952 
        1.47877          3.8004         1.80126 
        1.48491         3.78071         1.78322 
        1.49104         3.74994         1.76547 
        1.49718         3.72994         1.74795 
        1.50333         3.69502         1.73064 
        1.50947         3.66772         1.71359 
         1.5156         3.65067         1.69681 
        1.52172         3.62088         1.68024 
        1.52787         3.60402         1.66387 
          1.534         3.57427         1.64774 
        1.54013         3.56021         1.63183 
        1.54627         3.52511         1.61611 
        1.55241         3.49883         1.60059 
        1.55855         3.48663          1.5853 
        1.56467         3.46954         1.57025 
         1.5708         3.43288         1.55535 
        1.57695         3.40556         1.54063 
        1.58308         3.38334         1.52613 
        1.58922         3.37534          1.5118 
        1.59535         3.35353         1.49767 
         1.6015         3.31775         1.48369 
        1.60764         3.30607          1.4699 
        1.61376         3.28247         1.45633 
        1.61989         3.25471         1.44292 
        1.62604         3.24183         1.42964 
        1.63218         3.22395         1.41654 
        1.63831         3.20491         1.40364 
        1.64444         3.17865         1.39089 
        1.65059         3.16596         1.37826 
        1.65673         3.14414         1.36581 
        1.66285         3.12457         1.35355 
        1.66898          3.1064         1.34144 
        1.67512         3.08655         1.32944 
        1.68127         3.06206         1.31759 
         1.6874         3.04713          1.3059 
        1.69353          3.0249         1.29437 
        1.69967          3.0088         1.28294 
        1.70581         2.99026         1.27166 
        1.71193         2.97097         1.26056 
        1.71806         2.95583         1.24957 
        1.72421         2.93931         1.23868 
        1.73035         2.92157         1.22794 
        1.73649          2.9051         1.21733 
        1.74262         2.88695         1.20685 
        1.74876         2.87587         1.19649 
        1.75489         2.85398         1.18627 
        1.76101          2.8328         1.17618 
        1.76715          2.8301         1.16618 
        1.77329         2.80751         1.15629 
        1.77943         2.78445         1.14652 
        1.78557          2.7781         1.13687 
        1.79171         2.75825         1.12732 
        1.79785         2.74957         1.11789 
        1.80399         2.72534         1.10857 
        1.81012         2.71612         1.09936 
        1.81625         2.69519         1.09027 
        1.82239         2.68678         1.08126 
        1.82853         2.66797         1.07236 
        1.83466         2.64543         1.06357 
        1.84078         2.63298         1.05488 
        1.84692         2.61905         1.04628 
        1.85306         2.60535         1.03777 
         1.8592         2.59489         1.02936 
        1.86533         2.58268         1.02105 
        1.87147         2.57206         1.01282 
        1.87761         2.55638         1.00468 
        1.88375         2.53903        0.996641 
        1.88988         2.52669        0.988697 
        1.89601         2.50866        0.980834 
        1.90215         2.49654        0.973051 
        1.90829         2.49017        0.965356 
        1.91442         2.47362        0.957744 
        1.92056         2.46632         0.95022 
         1.9267         2.44804        0.942769 
        1.93284          2.4394        0.935394 
        1.93897         2.42153        0.928112 
        1.94509         2.40073        0.920922 
        1.95123         2.40035        0.913791 
        1.95737         2.38822         0.90673 
        1.96349          2.3729        0.899762 
        1.96964         2.36112        0.892847 
        1.97578         2.34928        0.886001 
        1.98192         2.33324        0.879241 
        1.98805         2.32525        0.872551 
        1.99419         2.31287        0.865931 
        2.00033          2.2953        0.859375 
        2.00647         2.29221         0.85289 
         2.0126         2.28086        0.846482 
        2.01874         2.26743         0.84013 
        2.02488         2.26141        0.833838 
        2.03101         2.24181        0.827622 
        2.03714         2.23362        0.821475 
        2.04328         2.22486        0.815383 
        2.04941         2.21131        0.809359 
        2.05554         2.20282        0.803399 
        2.06167         2.19408        0.797492 
        2.06781         2.18172        0.791642 
        2.07396         2.17014        0.785844 
        2.08009         2.16345        0.780113 
        2.08622         2.15483        0.774446 
        2.09237         2.14571        0.768824 
        2.09851         2.12935        0.763257 
        2.10464         2.11976        0.757754 
        2.11077         2.11436        0.752312 
        2.11691         2.10049        0.746912 
        2.12305         2.08978        0.741564 
        2.12918         2.08189        0.736282 
        2.13531         2.07424         0.73105 
        2.14145         2.06266        0.725857 
         2.1476         2.04829        0.720709 
        2.15372         2.03957        0.715637 
        2.15985         2.03421        0.710608 
        2.16599         2.02571        0.705613 
        2.17213         2.01962        0.700671 
        2.17827         2.00212        0.695778 
         2.1844         1.99718        0.690936 
        2.19054         1.98814        0.686139 
        2.19666          1.9819        0.681393 
         2.2028         1.96492        0.676689 
        2.20893         1.96685        0.672026 
        2.21508         1.95144        0.667402 
        2.22122          1.9402         0.66282 
        2.22736         1.93305         0.65829 
        2.23349         1.92483        0.653804 
        2.23962         1.91939        0.649357 
        2.24577         1.90703        0.644948 
         2.2519         1.90483        0.640586 
        2.25802         1.88851        0.636271 
        2.26417         1.88375        0.631983 
        2.27031         1.87593        0.627731 
        2.27644         1.86599        0.623531 
        2.28257         1.85995         0.61937 
        2.28872         1.85085        0.615238 
        2.29486         1.84105        0.611145 
        2.30099         1.83459        0.607098 
        2.30712         1.82829        0.603085 
        2.31326          1.8223        0.599102 
         2.3194         1.81086        0.595157 
        2.32553         1.80531        0.591254 
        2.33166         1.79798        0.587388 
         2.3378          1.7926        0.583551 
        2.34394         1.77945        0.579748 
        2.35007         1.77321        0.575983 
        2.35619         1.76956        0.572257 
        2.36233         1.75984        0.568554 
        2.36848          1.7527        0.564877 
        2.37462         1.74674        0.561239 
        2.38075          1.7401        0.557638 
        2.38689         1.73237        0.554065 
        2.39303         1.72515        0.550523 
        2.39916         1.71921        0.547017 
        2.40529         1.70978        0.543541 
        2.41143         1.70518        0.540093 
        2.41757         1.69977        0.536673 
         2.4237         1.68973        0.533289 
        2.42983         1.68495        0.529934 
        2.43598         1.67848          0.5266 
        2.44211         1.66894          0.5233 
        2.44823         1.66488        0.520035 
        2.45437         1.65569        0.516789 
        2.46052         1.65083        0.513568 
        2.46665         1.64415        0.510381 
        2.47279         1.63689        0.507221 
        2.47892         1.63363        0.504086 
        2.48507         1.62441        0.500975 
         2.4912          1.6203        0.497896 
