# k  (h/Mpc)    P(k)  (Mpc/h)^3    P_linear(k)  (Mpc/h)^3
     0.00783031         126.626         127.723 
       0.013688         141.845          142.75 
       0.019231         131.222         131.337 
      0.0249154         109.515         109.265 
      0.0312784         84.1783         83.7959 
      0.0375637         64.4298         64.1398 
      0.0433917         52.4319          52.119 
      0.0492413         45.2378         45.0449 
      0.0555754         41.1821         40.9986 
      0.0619321         38.5101          38.519 
       0.067871         36.0973         36.0663 
      0.0738098         32.7597         32.7274 
      0.0800417         28.4115         28.3419 
      0.0862327         23.8414         23.7681 
      0.0921407         19.9882         19.9212 
      0.0982031         17.0532         16.9524 
       0.104506         15.0585         15.0078 
       0.110769         14.0535         14.0128 
       0.116806         13.6198         13.5772 
       0.122832         13.2765         13.2679 
       0.129052         12.7649         12.7507 
       0.135211         11.9085         11.8848 
       0.141259         10.7571         10.7416 
       0.147318          9.5041         9.49109 
       0.153489         8.35112         8.32469 
       0.159709         7.44295         7.41138 
       0.165845         6.82752         6.81567 
       0.171974         6.51143         6.48184 
       0.178125         6.32974         6.31167 
       0.184229         6.19637         6.18981 
        0.19034         6.03108          6.0145 
       0.196428         5.74373          5.7328 
       0.202534          5.3425         5.34637 
       0.208729         4.91048         4.89819 
       0.214876         4.48664          4.4649 
       0.220989         4.11028          4.1001 
       0.227147         3.84757         3.82644 
        0.23329         3.66416         3.64442 
       0.239377         3.54747          3.5292 
       0.245482         3.45934         3.44367 
       0.251667         3.35957         3.35227 
       0.257832         3.24623         3.23246 
       0.263955         3.08802         3.07934 
       0.270079         2.91017         2.90171 
        0.27624         2.72346         2.71781 
       0.282372         2.55638         2.54937 
        0.28843         2.42347         2.40998 
       0.294538         2.31344         2.30114 
       0.300721         2.22552          2.2183 
        0.30691         2.16366         2.15304 
       0.313033         2.10292         2.09358 
       0.319153         2.04562         2.03003 
       0.325316          1.9616         1.95632 
        0.33145          1.8799         1.87434 
       0.337538         1.79547         1.78849 
       0.343633         1.71481         1.70469 
       0.349808         1.63524         1.62724 
       0.355968         1.56731         1.56078 
       0.362074         1.51547          1.5057 
       0.368217         1.46744         1.45875 
       0.374374         1.42806         1.41681 
       0.380519         1.38372         1.37608 
       0.386598         1.34044         1.33455 
       0.392688         1.29479         1.29074 
        0.39888         1.25089         1.24431 
       0.405048         1.20499         1.19817 
       0.411186         1.16049         1.15413 
       0.417313         1.12048         1.11345 
       0.423458         1.08166         1.07694 
       0.429607         1.05157         1.04423 
       0.435692         1.02225         1.01472 
       0.441815        0.993552        0.986871 
       0.447964        0.963439        0.959635 
       0.454126        0.938457        0.932165 
       0.460267        0.912067        0.904627 
       0.466387        0.884192        0.877326 
        0.47254        0.858049        0.850395 
       0.478662        0.831141         0.82468 
       0.484765        0.807857        0.800631 
       0.490885        0.784041        0.778249 
       0.497035        0.761752        0.757215 
       0.503198        0.743417        0.737316 
       0.509342        0.722413         0.71835 
       0.515458        0.705734        0.700032 
       0.521598        0.687811        0.681922 
       0.527764        0.671144        0.663917 
       0.533884        0.650828        0.646403 
           0.54        0.634649        0.629447 
       0.546137        0.617449         0.61312 
       0.552299        0.602379        0.597446 
       0.558452        0.587727        0.582505 
       0.564573        0.573207        0.568326 
       0.570708        0.559851        0.554741 
       0.576825         0.54675        0.541699 
       0.582926        0.533314        0.529072 
       0.589034        0.522329        0.516703 
       0.595184        0.510498        0.504505 
       0.601379        0.497371        0.492533 
       0.607522        0.485556        0.481023 
       0.613639        0.473754        0.469968 
       0.619772        0.464196        0.459303 
       0.625918         0.45378        0.448999 
       0.632068        0.443815        0.439039 
       0.638161         0.43386        0.429482 
         0.6443        0.424492        0.420136 
       0.650464        0.415891        0.411025 
       0.656582        0.407207         0.40224 
       0.662703        0.398361        0.393702 
       0.668861        0.389045        0.385356 
       0.675024        0.381335        0.377238 
       0.681124        0.374996        0.369432 
       0.687237        0.366437         0.36183 
       0.693381        0.358198        0.354407 
       0.699536        0.351953        0.347183 
       0.705665        0.345033        0.340197 
       0.711789        0.337083        0.333416 
       0.717957        0.331013        0.326778 
        0.72409        0.324216        0.320362 
       0.730186        0.319022        0.314159 
       0.736317        0.311795        0.308087 
       0.742472        0.306498        0.302152 
       0.748622         0.30082        0.296378 
        0.75476        0.294861        0.290766 
       0.760888        0.289835        0.285306 
       0.767043        0.282983        0.279965 
       0.773185        0.278543         0.27477 
       0.779291        0.274161        0.269737 
       0.785407        0.268704        0.264823 
       0.791564        0.263796            0.26 
       0.797719        0.259103          0.2553 
       0.803834        0.254454        0.250747 
       0.809972        0.250149        0.246289 
       0.816124        0.245496         0.24193 
       0.822261        0.241521        0.237688 
       0.828378        0.237268        0.233562 
       0.834502        0.233105        0.229531 
       0.840667          0.2295        0.225569 
       0.846816        0.225426        0.221712 
       0.852925        0.221221        0.217971 
       0.859047        0.217723        0.214308 
       0.865192        0.214272        0.210717 
       0.871341        0.211081        0.207207 
       0.877463        0.207019        0.203793 
       0.883569        0.203857        0.200464 
       0.889708        0.200566        0.197193 
       0.895864        0.197445        0.193986 
       0.902008        0.194053        0.190857 
       0.908149        0.191156          0.1878 
       0.914301        0.188595        0.184804 
       0.920448        0.185475        0.181877 
       0.926574        0.182799        0.179023 
       0.932687        0.180113        0.176237 
       0.938823        0.176834          0.1735 
       0.944975        0.174225        0.170815 
       0.951105        0.171293        0.168196 
       0.957225         0.16874        0.165637 
       0.963368        0.166547        0.163122 
       0.969511        0.164284         0.16066 
       0.975621        0.161397        0.158262 
       0.981748        0.158716        0.155906 
       0.987916        0.156608        0.153584 
        0.99406        0.154508        0.151318 
        1.00019        0.152182        0.149102 
        1.00632        0.150313        0.146933 
        1.01246        0.148193        0.144803 
        1.01859        0.146022        0.142719 
        1.02471        0.143655        0.140679 
        1.03085        0.141481        0.138671 
        1.03698         0.13984        0.136707 
        1.04314        0.137785        0.134773 
        1.04929        0.136192         0.13288 
        1.05541        0.133942        0.131032 
        1.06154        0.132259        0.129214 
        1.06769        0.130603        0.127428 
        1.07382        0.128814        0.125681 
        1.07993        0.127132        0.123971 
        1.08607         0.12525        0.122286 
        1.09222        0.123682        0.120631 
        1.09836        0.121969        0.119008 
        1.10449        0.120264        0.117417 
        1.11063        0.118752        0.115853 
        1.11677        0.117365        0.114318 
         1.1229         0.11555        0.112814 
        1.12903        0.114205        0.111336 
        1.13518        0.112707        0.109882 
        1.14131        0.111319        0.108456 
        1.14745        0.110215        0.107056 
        1.15359        0.108626         0.10568 
        1.15973        0.107415        0.104327 
        1.16584        0.105946        0.103005 
        1.17197        0.104495        0.101703 
        1.17811        0.103207         0.10042 
        1.18424        0.101924       0.0991632 
        1.19038          0.1005        0.097924 
        1.19652       0.0996479       0.0967063 
        1.20267       0.0983502       0.0955094 
        1.20881       0.0968795        0.094333 
        1.21495       0.0958454       0.0931782 
        1.22108       0.0948137       0.0920429 
         1.2272       0.0935172       0.0909292 
        1.23334       0.0924898       0.0898313 
        1.23949       0.0915082       0.0887489 
        1.24562       0.0903975       0.0876873 
        1.25174       0.0893634       0.0866446 
        1.25789        0.088037       0.0856156 
        1.26402       0.0873578       0.0846052 
        1.27014       0.0860534       0.0836135 
        1.27628       0.0852465       0.0826347 
        1.28244       0.0842615       0.0816697 
        1.28858       0.0831558       0.0807213 
        1.29471       0.0823221       0.0797901 
        1.30084       0.0813178       0.0788745 
        1.30697       0.0806133       0.0779718 
        1.31312       0.0796907       0.0770819 
        1.31925       0.0786958       0.0762087 
        1.32537       0.0778859       0.0753499 
        1.33151       0.0770026       0.0745012 
        1.33765       0.0761003        0.073666 
        1.34378        0.075234       0.0728453 
        1.34992       0.0746387       0.0720365 
        1.35606       0.0737244       0.0712383 
         1.3622       0.0729054       0.0704535 
        1.36833        0.072235       0.0696824 
        1.37445       0.0714909       0.0689232 
        1.38059       0.0706292        0.068173 
        1.38675       0.0698432       0.0674322 
        1.39288       0.0689892       0.0667053 
        1.39901       0.0684936       0.0659894 
        1.40515       0.0676902       0.0652825 
         1.4113        0.067073       0.0645861 
        1.41742        0.066393       0.0639025 
        1.42355       0.0654589       0.0632275 
         1.4297       0.0650106       0.0625603 
        1.43585       0.0642427       0.0619028 
        1.44198       0.0636413       0.0612574 
        1.44809       0.0629826       0.0606223 
        1.45423       0.0623253       0.0599938 
        1.46036       0.0617081       0.0593754 
        1.46649       0.0610607       0.0587655 
        1.47263       0.0603162       0.0581636 
        1.47877        0.060023       0.0575704 
        1.48491       0.0592082       0.0569845 
        1.49104       0.0588022        0.056408 
        1.49718       0.0581548        0.055839 
        1.50333       0.0575823        0.055277 
        1.50947       0.0570255       0.0547238 
         1.5156        0.056482        0.054179 
        1.52172       0.0559275       0.0536416 
        1.52787       0.0553019       0.0531103 
          1.534       0.0549084       0.0525869 
        1.54013       0.0542949       0.0520711 
        1.54627       0.0538843       0.0515613 
        1.55241       0.0533516       0.0510581 
        1.55855       0.0528315       0.0505624 
        1.56467       0.0523851       0.0500746 
         1.5708       0.0518356       0.0495918 
        1.57695       0.0513718       0.0491146 
        1.58308       0.0507654       0.0486448 
        1.58922       0.0504202       0.0481809 
        1.59535        0.049891       0.0477231 
         1.6015       0.0495222       0.0472706 
        1.60764       0.0489717       0.0468242 
        1.61376       0.0485566       0.0463848 
        1.61989       0.0481014       0.0459506 
        1.62604       0.0476846        0.045521 
        1.63218       0.0472587       0.0450972 
        1.63831        0.046844       0.0446797 
        1.64444       0.0464204       0.0442673 
        1.65059       0.0458951       0.0438592 
        1.65673       0.0455817       0.0434566 
        1.66285       0.0452342       0.0430602 
        1.66898       0.0447229       0.0426685 
        1.67512       0.0443857        0.042281 
        1.68127       0.0439836        0.041898 
         1.6874       0.0436079       0.0415205 
        1.69353       0.0432308       0.0411478 
        1.69967       0.0427507       0.0407789 
        1.70581       0.0425433       0.0404146 
        1.71193       0.0421668       0.0400562 
        1.71806       0.0417661       0.0397013 
        1.72421       0.0413357         0.03935 
        1.73035       0.0410569       0.0390033 
        1.73649       0.0406998       0.0386609 
        1.74262       0.0403398       0.0383228 
        1.74876       0.0400629       0.0379886 
        1.75489       0.0396785        0.037659 
        1.76101       0.0393757       0.0373334 
        1.76715       0.0390627       0.0370112 
        1.77329       0.0386795       0.0366924 
        1.77943       0.0383435       0.0363772 
        1.78557       0.0381012       0.0360662 
        1.79171        0.037791       0.0357587 
        1.79785       0.0374145       0.0354548 
        1.80399        0.037114       0.0351544 
        1.81012        0.036838       0.0348579 
        1.81625       0.0365616       0.0345649 
        1.82239       0.0362807       0.0342748 
        1.82853       0.0359634       0.0339882 
        1.83466       0.0356692       0.0337052 
        1.84078       0.0354086       0.0334257 
        1.84692       0.0351478       0.0331488 
        1.85306       0.0348498       0.0328748 
         1.8592       0.0345789       0.0326043 
        1.86533       0.0343213       0.0323369 
        1.87147       0.0340439       0.0320723 
        1.87761       0.0337248       0.0318104 
        1.88375       0.0334156       0.0315518 
        1.88988       0.0332355       0.0312964 
        1.89601       0.0329578       0.0310436 
        1.90215        0.032678       0.0307934 
        1.90829       0.0324169       0.0305461 
        1.91442       0.0322079       0.0303014 
        1.92056       0.0319438       0.0300597 
         1.9267         0.03172       0.0298203 
        1.93284       0.0314235       0.0295834 
        1.93897       0.0311833       0.0293494 
        1.94509       0.0309711       0.0291186 
        1.95123       0.0307396       0.0288896 
        1.95737       0.0305719       0.0286629 
        1.96349       0.0303441       0.0284392 
        1.96964       0.0300645       0.0282172 
        1.97578       0.0298571       0.0279975 
        1.98192       0.0296225       0.0277806 
        1.98805       0.0294459       0.0275659 
        1.99419       0.0292317       0.0273535 
        2.00033       0.0289623       0.0271432 
        2.00647       0.0287711       0.0269352 
         2.0126       0.0286119       0.0267297 
        2.01874        0.028347        0.026526 
        2.02488       0.0281394       0.0263243 
        2.03101       0.0279205        0.026125 
        2.03714       0.0278324        0.025928 
        2.04328       0.0275086       0.0257327 
        2.04941       0.0273739       0.0255397 
        2.05554       0.0271992       0.0253487 
        2.06167       0.0269642       0.0251594 
        2.06781       0.0267687       0.0249721 
        2.07396       0.0265735       0.0247863 
        2.08009       0.0263832       0.0246028 
        2.08622       0.0262228       0.0244213 
        2.09237       0.0260305       0.0242413 
        2.09851        0.025854       0.0240631 
        2.10464       0.0256823       0.0238869 
        2.11077       0.0254798       0.0237127 
        2.11691       0.0253322       0.0235399 
        2.12305       0.0251021       0.0233688 
        2.12918       0.0249575       0.0231997 
        2.13531       0.0247873       0.0230324 
        2.14145       0.0246066       0.0228663 
         2.1476       0.0244616       0.0227016 
        2.15372       0.0242907       0.0225394 
        2.15985       0.0241254       0.0223786 
        2.16599       0.0239277       0.0222188 
        2.17213       0.0238246       0.0220609 
        2.17827        0.023652       0.0219044 
         2.1844       0.0234761       0.0217497 
        2.19054       0.0233358       0.0215964 
        2.19666       0.0231676       0.0214447 
         2.2028       0.0229831       0.0212944 
        2.20893       0.0228718       0.0211454 
        2.21508       0.0226804       0.0209977 
        2.22122       0.0225277       0.0208514 
        2.22736       0.0224016       0.0207067 
        2.23349       0.0222485       0.0205634 
        2.23962       0.0221405       0.0204214 
        2.24577       0.0219811       0.0202807 
         2.2519       0.0218186       0.0201414 
        2.25802       0.0217044       0.0200037 
        2.26417       0.0215672       0.0198668 
        2.27031        0.021436       0.0197311 
        2.27644        0.021309       0.0195971 
        2.28257       0.0211322       0.0194643 
        2.28872       0.0210241       0.0193325 
        2.29486       0.0208914       0.0192019 
        2.30099       0.0207521       0.0190728 
        2.30712       0.0206503       0.0189449 
        2.31326       0.0204743       0.0188178 
         2.3194       0.0203573       0.0186921 
        2.32553        0.020245       0.0185676 
        2.33166       0.0200832       0.0184444 
         2.3378       0.0199765       0.0183221 
        2.34394        0.019852       0.0182008 
        2.35007       0.0197427       0.0180809 
        2.35619       0.0196575       0.0179621 
        2.36233       0.0194899       0.0178442 
        2.36848       0.0193746        0.017727 
        2.37462       0.0192795       0.0176111 
        2.38075       0.0191477       0.0174964 
        2.38689       0.0190426       0.0173826 
        2.39303       0.0189349       0.0172698 
        2.39916        0.018783       0.0171582 
        2.40529       0.0186675       0.0170475 
        2.41143       0.0185591       0.0169377 
        2.41757       0.0184641       0.0168289 
         2.4237       0.0183344       0.0167212 
        2.42983       0.0182343       0.0166144 
        2.43598       0.0181275       0.0165083 
        2.44211       0.0180101       0.0164033 
        2.44823       0.0179143       0.0162994 
        2.45437       0.0178021       0.0161962 
        2.46052       0.0177052       0.0160937 
        2.46665       0.0175886       0.0159923 
        2.47279       0.0175156       0.0158918 
        2.47892       0.0174219       0.0157921 
        2.48507        0.017293       0.0156932 
         2.4912       0.0172029       0.0155953 
