# k  (h/Mpc)    Pcb(k)  (Mpc/h)^3    Pcb_linear(k)  (Mpc/h)^3
     0.00783031         226.751         228.856 
       0.013688         253.835           255.9 
       0.019231         234.859         235.475 
      0.0249154           196.1         195.915 
      0.0312784         150.687         150.253 
      0.0375637         115.308          115.01 
      0.0433917         93.8716         93.4569 
      0.0492413         80.9664         80.7731 
      0.0555754         73.7605         73.5181 
      0.0619321         68.8931         69.0722 
       0.067871         64.6344         64.6743 
      0.0738098          58.654         58.6871 
      0.0800417         50.8852         50.8231 
      0.0862327         42.6826         42.6211 
      0.0921407         35.7935         35.7228 
      0.0982031         30.5507         30.3992 
       0.104506         26.9546         26.9122 
       0.110769         25.1599         25.1279 
       0.116806         24.4015         24.3469 
       0.122832         23.7733         23.7923 
       0.129052         22.8716         22.8649 
       0.135211         21.3429         21.3121 
       0.141259           19.27         19.2622 
       0.147318         17.0195         17.0196 
       0.153489         14.9648          14.928 
       0.159709         13.3427         13.2903 
       0.165845         12.2283          12.222 
       0.171974         11.6804         11.6234 
       0.178125         11.3503         11.3183 
       0.184229         11.1067         11.0998 
        0.19034          10.817         10.7854 
       0.196428         10.3003         10.2802 
       0.202534         9.57124         9.58727 
       0.208729          8.8083         8.78358 
       0.214876         8.05414          8.0066 
       0.220989         7.37536         7.35245 
       0.227147         6.91047         6.86167 
        0.23329         6.58289         6.53527 
       0.239377           6.374         6.32867 
       0.245482         6.21667         6.17528 
       0.251667         6.03121         6.01141 
       0.257832         5.83543         5.79658 
       0.263955         5.54619         5.52198 
       0.270079         5.22829         5.20342 
        0.27624         4.89252         4.87364 
       0.282372         4.59325         4.57161 
        0.28843         4.36057         4.32172 
       0.294538         4.16181         4.12648 
       0.300721         3.99995         3.97792 
        0.30691         3.89384          3.8609 
       0.313033         3.78396         3.75429 
       0.319153         3.68423         3.64028 
       0.325316         3.52862         3.50813 
        0.33145         3.38125         3.36111 
       0.337538         3.23155         3.20718 
       0.343633         3.08955          3.0569 
       0.349808         2.94575         2.91802 
       0.355968         2.82371         2.79885 
       0.362074         2.73233         2.70006 
       0.368217         2.64523         2.61587 
       0.374374         2.57641         2.54067 
       0.380519         2.49472         2.46764 
       0.386598          2.4155         2.39317 
       0.392688         2.33326         2.31458 
        0.39888         2.25524         2.23134 
       0.405048         2.17446         2.14859 
       0.411186          2.0942         2.06963 
       0.417313         2.02145          1.9967 
       0.423458         1.95089         1.93119 
       0.429607         1.89912         1.87255 
       0.435692         1.84668         1.81962 
       0.441815         1.79378         1.76969 
       0.447964         1.73871         1.72083 
       0.454126          1.6951          1.6716 
       0.460267         1.64822          1.6222 
       0.466387         1.59812         1.57325 
        0.47254         1.55168         1.52495 
       0.478662         1.50298         1.47885 
       0.484765         1.46182         1.43572 
       0.490885         1.41761         1.39558 
       0.497035         1.37636         1.35786 
       0.503198         1.34529         1.32218 
       0.509342         1.30704         1.28817 
       0.515458         1.27665         1.25532 
       0.521598         1.24497         1.22284 
       0.527764          1.2156         1.19056 
       0.533884         1.17772         1.15915 
           0.54         1.14955         1.12875 
       0.546137         1.11805         1.09947 
       0.552299         1.09108         1.07136 
       0.558452         1.06391         1.04457 
       0.564573         1.03846         1.01914 
       0.570708         1.01439        0.994779 
       0.576825        0.991353        0.971393 
       0.582926        0.966053        0.948744 
       0.589034        0.946642         0.92657 
       0.595184        0.925875        0.904695 
       0.601379        0.902447        0.883224 
       0.607522        0.880272        0.862588 
       0.613639        0.859119        0.842761 
       0.619772         0.84214        0.823635 
       0.625918        0.823514         0.80516 
       0.632068        0.805372        0.787298 
       0.638161        0.787553         0.77016 
         0.6443        0.770306          0.7534 
       0.650464        0.755005        0.737062 
       0.656582        0.739855         0.72131 
       0.662703        0.723651        0.705998 
       0.668861        0.706239        0.691032 
       0.675024        0.692452        0.676476 
       0.681124        0.682019        0.662478 
       0.687237        0.666042        0.648845 
       0.693381         0.65041        0.635534 
       0.699536        0.640089        0.622579 
       0.705665        0.627583        0.610052 
       0.711789        0.612733        0.597891 
       0.717957        0.601685        0.585989 
        0.72409        0.590011        0.574483 
       0.730186        0.580684        0.563359 
       0.736317        0.567275        0.552471 
       0.742472        0.558218        0.541829 
       0.748622          0.5481        0.531475 
        0.75476        0.536456         0.52141 
       0.760888        0.528021         0.51162 
       0.767043        0.514332        0.502041 
       0.773185        0.506957        0.492727 
       0.779291        0.499832        0.483701 
       0.785407        0.490009        0.474888 
       0.791564        0.480436         0.46624 
       0.797719        0.472101        0.457812 
       0.803834        0.463618        0.449647 
       0.809972        0.455818        0.441653 
       0.816124        0.447671        0.433836 
       0.822261        0.440371         0.42623 
       0.828378        0.432573        0.418831 
       0.834502        0.424977        0.411601 
       0.840667        0.418567        0.404497 
       0.846816        0.411056        0.397582 
       0.852925        0.403769        0.390872 
       0.859047        0.397044        0.384303 
       0.865192        0.390903        0.377865 
       0.871341        0.385146         0.37157 
       0.877463        0.377691        0.365447 
       0.883569        0.372016        0.359478 
       0.889708        0.366485        0.353612 
       0.895864        0.360653        0.347862 
       0.902008         0.35425        0.342251 
       0.908149        0.349311        0.336768 
       0.914301        0.344465        0.331396 
       0.920448        0.339158        0.326147 
       0.926574        0.334419        0.321029 
       0.932687        0.329132        0.316033 
       0.938823        0.322983        0.311125 
       0.944975        0.318646         0.30631 
       0.951105        0.312981        0.301614 
       0.957225        0.308429        0.297025 
       0.963368        0.304678        0.292516 
       0.969511        0.300436        0.288101 
       0.975621        0.295195          0.2838 
       0.981748        0.290062        0.279576 
       0.987916        0.286428        0.275412 
        0.99406        0.282981        0.271348 
        1.00019        0.278466        0.267375 
        1.00632        0.275261        0.263484 
        1.01246        0.271257        0.259665 
        1.01859        0.267434        0.255928 
        1.02471        0.263001        0.252269 
        1.03085        0.259026        0.248669 
        1.03698        0.256107        0.245147 
        1.04314        0.252344        0.241678 
        1.04929        0.249684        0.238285 
        1.05541        0.245301         0.23497 
        1.06154        0.242428         0.23171 
        1.06769        0.239349        0.228507 
        1.07382        0.236061        0.225376 
        1.07993        0.233008         0.22231 
        1.08607        0.229758        0.219288 
        1.09222        0.226688        0.216319 
        1.09836        0.223837        0.213409 
        1.10449        0.220532        0.210556 
        1.11063        0.217666        0.207752 
        1.11677        0.215407        0.204999 
         1.1229        0.212006        0.202302 
        1.12903        0.209675        0.199651 
        1.13518        0.206831        0.197045 
        1.14131        0.204339        0.194487 
        1.14745         0.20259        0.191976 
        1.15359        0.199341        0.189508 
        1.15973         0.19715        0.187083 
        1.16584        0.194527        0.184712 
        1.17197        0.191742        0.182378 
        1.17811          0.1894        0.180077 
        1.18424        0.187195        0.177823 
        1.19038        0.184626          0.1756 
        1.19652         0.18304        0.173417 
        1.20267        0.180859         0.17127 
        1.20881        0.177936        0.169161 
        1.21495        0.176122         0.16709 
        1.22108        0.174257        0.165054 
         1.2272        0.171832        0.163057 
        1.23334        0.169948        0.161088 
        1.23949        0.168308        0.159147 
        1.24562        0.166168        0.157244 
        1.25174         0.16443        0.155374 
        1.25789        0.161911        0.153529 
        1.26402        0.160635        0.151717 
        1.27014        0.158301        0.149938 
        1.27628        0.156776        0.148183 
        1.28244        0.155022        0.146453 
        1.28858        0.153058        0.144752 
        1.29471        0.151476        0.143082 
        1.30084        0.149655         0.14144 
        1.30697        0.148461        0.139821 
        1.31312        0.146708        0.138226 
        1.31925        0.144961         0.13666 
        1.32537        0.143408         0.13512 
        1.33151        0.141839        0.133598 
        1.33765        0.140164          0.1321 
        1.34378        0.138545        0.130629 
        1.34992        0.137506        0.129178 
        1.35606        0.135735        0.127747 
         1.3622        0.134373        0.126339 
        1.36833        0.133202        0.124957 
        1.37445        0.131786        0.123595 
        1.38059        0.130366         0.12225 
        1.38675        0.128729        0.120922 
        1.39288        0.127136        0.119618 
        1.39901        0.126276        0.118334 
        1.40515        0.124844        0.117067 
         1.4113        0.123743        0.115818 
        1.41742         0.12255        0.114592 
        1.42355        0.120695        0.113382 
         1.4297        0.119976        0.112185 
        1.43585        0.118535        0.111006 
        1.44198        0.117492        0.109849 
        1.44809        0.116267         0.10871 
        1.45423        0.115007        0.107583 
        1.46036        0.113908        0.106474 
        1.46649        0.112778         0.10538 
        1.47263         0.11128        0.104301 
        1.47877        0.110851        0.103237 
        1.48491        0.109218        0.102186 
        1.49104        0.108787        0.101153 
        1.49718        0.107356        0.100132 
        1.50333        0.106407       0.0991244 
        1.50947         0.10543       0.0981324 
         1.5156        0.104383       0.0971554 
        1.52172        0.103398       0.0961917 
        1.52787        0.102183       0.0952391 
          1.534        0.101431       0.0943005 
        1.54013        0.100344       0.0933755 
        1.54627       0.0995976       0.0924612 
        1.55241       0.0986324        0.091559 
        1.55855       0.0976612         0.09067 
        1.56467       0.0968242       0.0897952 
         1.5708       0.0958771       0.0889295 
        1.57695       0.0950382       0.0880739 
        1.58308       0.0938543       0.0872314 
        1.58922         0.09328       0.0863994 
        1.59535       0.0922989       0.0855785 
         1.6015       0.0916257       0.0847671 
        1.60764       0.0906168       0.0839666 
        1.61376        0.089862       0.0831786 
        1.61989       0.0889986          0.0824 
        1.62604       0.0882101       0.0816297 
        1.63218       0.0875175       0.0808696 
        1.63831       0.0866649        0.080121 
        1.64444       0.0859632       0.0793815 
        1.65059       0.0849961       0.0786496 
        1.65673        0.084381       0.0779277 
        1.66285       0.0837892       0.0772168 
        1.66898       0.0828669       0.0765146 
        1.67512       0.0821558       0.0758196 
        1.68127       0.0814206       0.0751327 
         1.6874       0.0808171       0.0744558 
        1.69353       0.0800616       0.0737876 
        1.69967       0.0791973        0.073126 
        1.70581       0.0788537       0.0724727 
        1.71193       0.0781744       0.0718299 
        1.71806       0.0773732       0.0711935 
        1.72421       0.0766453       0.0705636 
        1.73035       0.0761056       0.0699419 
        1.73649       0.0754651       0.0693279 
        1.74262       0.0747875       0.0687217 
        1.74876       0.0743314       0.0681223 
        1.75489       0.0735971       0.0675313 
        1.76101       0.0730453       0.0669475 
        1.76715        0.072414       0.0663697 
        1.77329       0.0717404        0.065798 
        1.77943       0.0711112       0.0652328 
        1.78557        0.070716        0.064675 
        1.79171       0.0701158       0.0641236 
        1.79785       0.0694369       0.0635786 
        1.80399       0.0688081       0.0630399 
        1.81012       0.0683863       0.0625082 
        1.81625       0.0678721       0.0619828 
        1.82239       0.0674089       0.0614627 
        1.82853       0.0667518       0.0609488 
        1.83466       0.0662155       0.0604412 
        1.84078       0.0657185       0.0599399 
        1.84692       0.0652308       0.0594435 
        1.85306       0.0646951       0.0589521 
         1.8592       0.0642275        0.058467 
        1.86533       0.0637646       0.0579876 
        1.87147       0.0631839        0.057513 
        1.87761       0.0626489       0.0570434 
        1.88375       0.0621032       0.0565797 
        1.88988       0.0617169       0.0561216 
        1.89601       0.0611298       0.0556683 
        1.90215       0.0607241       0.0552197 
        1.90829       0.0601716       0.0547761 
        1.91442       0.0598709       0.0543374 
        1.92056       0.0594019       0.0539039 
         1.9267       0.0589552       0.0534747 
        1.93284       0.0583901       0.0530498 
        1.93897       0.0579561       0.0526303 
        1.94509       0.0575765       0.0522163 
        1.95123       0.0571502       0.0518057 
        1.95737       0.0568336       0.0513991 
        1.96349        0.056383        0.050998 
        1.96964       0.0558494       0.0505999 
        1.97578       0.0554931       0.0502059 
        1.98192       0.0551162       0.0498169 
        1.98805       0.0547451        0.049432 
        1.99419       0.0543604       0.0490511 
        2.00033       0.0538504        0.048674 
        2.00647       0.0535257        0.048301 
         2.0126         0.05321       0.0479325 
        2.01874       0.0527492       0.0475672 
        2.02488       0.0523881       0.0472055 
        2.03101       0.0519631       0.0468481 
        2.03714        0.051819       0.0464948 
        2.04328       0.0511891       0.0461447 
        2.04941       0.0509435       0.0457985 
        2.05554       0.0506008       0.0454561 
        2.06167       0.0501948       0.0451167 
        2.06781       0.0498313       0.0447807 
        2.07396       0.0494793       0.0444476 
        2.08009        0.049115       0.0441185 
        2.08622       0.0488569        0.043793 
        2.09237       0.0484737       0.0434702 
        2.09851        0.048129       0.0431506 
        2.10464       0.0478354       0.0428348 
        2.11077       0.0474404       0.0425224 
        2.11691       0.0472209       0.0422125 
        2.12305       0.0467434       0.0419056 
        2.12918       0.0464649       0.0416025 
        2.13531       0.0461712       0.0413024 
        2.14145       0.0458877       0.0410045 
         2.1476       0.0455996       0.0407092 
        2.15372        0.045291       0.0404183 
        2.15985       0.0449539       0.0401299 
        2.16599       0.0445759       0.0398435 
        2.17213       0.0444046       0.0395602 
        2.17827       0.0440798       0.0392797 
         2.1844       0.0437512       0.0390022 
        2.19054       0.0435123       0.0387272 
        2.19666       0.0432436       0.0384553 
         2.2028       0.0428073       0.0381857 
        2.20893       0.0426688       0.0379186 
        2.21508       0.0423276       0.0376537 
        2.22122       0.0420236       0.0373913 
        2.22736       0.0417658       0.0371319 
        2.23349       0.0415139        0.036875 
        2.23962       0.0412862       0.0366203 
        2.24577       0.0410137       0.0363679 
         2.2519        0.040695       0.0361182 
        2.25802       0.0404714       0.0358712 
        2.26417       0.0402348       0.0356258 
        2.27031       0.0399461       0.0353825 
        2.27644       0.0398052       0.0351421 
        2.28257       0.0394303        0.034904 
        2.28872       0.0392097       0.0346676 
        2.29486        0.039013       0.0344335 
        2.30099       0.0387105        0.034202 
        2.30712       0.0385327       0.0339725 
        2.31326       0.0382211       0.0337447 
         2.3194       0.0379948       0.0335192 
        2.32553       0.0377852        0.033296 
        2.33166       0.0375054        0.033075 
         2.3378       0.0372779       0.0328557 
        2.34394       0.0370874       0.0326383 
        2.35007       0.0368753       0.0324232 
        2.35619       0.0367203       0.0322102 
        2.36233        0.036413       0.0319987 
        2.36848       0.0361627       0.0317886 
        2.37462       0.0359958       0.0315808 
        2.38075        0.035772       0.0313751 
        2.38689       0.0355913        0.031171 
        2.39303       0.0353854       0.0309688 
        2.39916       0.0351094       0.0307686 
        2.40529       0.0348908       0.0305701 
        2.41143       0.0346414       0.0303733 
        2.41757       0.0344964       0.0301781 
         2.4237       0.0342875       0.0299849 
        2.42983       0.0340815       0.0297935 
        2.43598       0.0338738       0.0296032 
        2.44211       0.0336271       0.0294149 
        2.44823       0.0334974       0.0292286 
        2.45437       0.0332794       0.0290434 
        2.46052       0.0330872       0.0288597 
        2.46665       0.0329117       0.0286779 
        2.47279       0.0327361       0.0284977 
        2.47892        0.032604       0.0283189 
        2.48507       0.0323422       0.0281415 
         2.4912       0.0321845        0.027966 
