# k  (h/Mpc)    P(k)  (Mpc/h)^3    P_linear(k)  (Mpc/h)^3
     0.00783031         1944.17         1959.08 
       0.013688         2499.42         2532.86 
       0.019231          2651.5          2668.5 
      0.0249154          2563.2         2563.49 
      0.0312784         2301.73         2308.54 
      0.0375637         2019.99          2030.8 
      0.0433917         1808.75         1807.99 
      0.0492413         1629.91         1635.98 
      0.0555754         1503.81         1501.97 
      0.0619321         1383.77         1401.74 
       0.067871         1311.81          1318.5 
      0.0738098         1226.66         1230.95 
      0.0800417         1127.83         1128.67 
      0.0862327         1016.33         1020.13 
      0.0921407         915.741           918.7 
      0.0982031         828.143         825.894 
       0.104506         744.119           747.8 
       0.110769         687.963         690.037 
       0.116806         654.329         649.951 
       0.122832         618.534         619.617 
       0.129052         593.194         591.995 
       0.135211         567.505         563.103 
       0.141259         531.802         530.738 
       0.147318         492.282         494.697 
       0.153489         458.047         456.758 
       0.159709         426.073         420.629 
       0.165845         389.963         389.785 
       0.171974         372.929         365.046 
       0.178125         354.273         346.075 
       0.184229         335.817          331.63 
        0.19034          326.87         319.525 
       0.196428         315.043         307.844 
       0.202534         297.704         295.132 
       0.208729         287.553         280.717 
       0.214876         274.528         265.299 
       0.220989         254.991         249.822 
       0.227147         245.735          235.18 
        0.23329         234.146         222.353 
       0.239377         225.151         211.751 
       0.245482         214.736         203.079 
       0.251667         206.024         195.771 
       0.257832         202.564         189.272 
       0.263955          193.08         182.942 
       0.270079         186.403         176.304 
        0.27624         178.145         169.199 
       0.282372         171.804         161.838 
        0.28843         168.226         154.606 
       0.294538         160.341         147.697 
       0.300721         152.975         141.373 
        0.30691         149.643         135.828 
       0.313033         143.798         131.069 
       0.319153         141.293         126.863 
       0.325316         135.548         122.952 
        0.33145         131.477         119.165 
       0.337538         127.707         115.373 
       0.343633         124.029         111.489 
       0.349808         119.908         107.516 
       0.355968         116.185         103.604 
       0.362074         113.726         99.9002 
       0.368217         110.432           96.43 
       0.374374             108         93.2552 
       0.380519         103.443         90.3758 
       0.386598         100.795         87.7545 
       0.392688         98.0447          85.288 
        0.39888         96.2641         82.8641 
       0.405048          94.061         80.4825 
       0.411186         91.7981         78.1284 
       0.417313          89.291         75.7935 
       0.423458         86.8332         73.5012 
       0.429607         85.3184         71.2927 
       0.435692         83.8096         69.2153 
       0.441815         80.7788         67.2502 
       0.447964           78.48          65.405 
       0.454126         77.1067         63.6624 
       0.460267         76.4546         62.0094 
       0.466387         74.4125         60.4234 
        0.47254         73.4229         58.8691 
       0.478662         71.0684         57.3495 
       0.484765         69.7354         55.8654 
       0.490885         67.8382         54.4146 
       0.497035         67.0142         53.0014 
       0.503198         65.3897          51.639 
       0.509342         63.7543         50.3416 
       0.515458         63.0203         49.1116 
       0.521598         61.5372         47.9306 
       0.527764         60.7769         46.7909 
       0.533884         59.6423         45.6986 
           0.54          58.385         44.6402 
       0.546137         56.7293         43.6057 
       0.552299         55.8448          42.591 
       0.558452         54.7605         41.6037 
       0.564573         54.3716         40.6503 
       0.570708         52.8423         39.7263 
       0.576825         52.2325         38.8376 
       0.582926         51.4402         37.9823 
       0.589034         50.4824         37.1551 
       0.595184         49.8321         36.3503 
       0.601379         48.5181          35.566 
       0.607522         47.8603         34.8116 
       0.613639         47.1887         34.0811 
       0.619772          46.402         33.3674 
       0.625918         45.5442         32.6701 
       0.632068         45.1802         31.9912 
       0.638161         44.2773         31.3376 
         0.6443         43.6898         30.6988 
       0.650464         42.6589         30.0773 
       0.656582         42.4294         29.4789 
       0.662703         41.9639         28.8976 
       0.668861         40.9011         28.3291 
       0.675024         40.5209         27.7753 
       0.681124         40.1813         27.2415 
       0.687237         39.3967         26.7206 
       0.693381          38.708         26.2107 
       0.699536         38.5377         25.7133 
       0.705665          37.845          25.231 
       0.711789         37.2169         24.7617 
       0.717957          36.545         24.3014 
        0.72409         36.2317         23.8555 
       0.730186         36.0664         23.4236 
       0.736317         35.3754         23.0003 
       0.742472         34.9487         22.5859 
       0.748622         34.4209         22.1823 
        0.75476         33.6474         21.7896 
       0.760888         33.5672         21.4071 
       0.767043         33.0244         21.0323 
       0.773185         32.7287         20.6674 
       0.779291         32.3766         20.3134 
       0.785407         31.8515         19.9671 
       0.791564         31.7141         19.6269 
       0.797719         31.0812         19.2948 
       0.803834         30.9216         18.9726 
       0.809972         30.3861         18.6567 
       0.816124         30.0838         18.3473 
       0.822261         29.7749         18.0459 
       0.828378         29.4896         17.7522 
       0.834502         29.2119         17.4648 
       0.840667          28.915          17.182 
       0.846816         28.3134         16.9063 
       0.852925         28.2619         16.6385 
       0.859047         27.9547          16.376 
       0.865192         27.5762         16.1183 
       0.871341         27.2424         15.8661 
       0.877463         26.9954         15.6204 
       0.883569         26.8613         15.3807 
       0.889708         26.4588         15.1448 
       0.895864         26.1403         14.9133 
       0.902008         25.8463         14.6871 
       0.908149         25.5794         14.4659 
       0.914301         25.4604         14.2488 
       0.920448         25.0942         14.0365 
       0.926574         24.8877         13.8293 
       0.932687         24.6092         13.6267 
       0.938823         24.3226         13.4276 
       0.944975         24.1322         13.2319 
       0.951105         23.9028         13.0409 
       0.957225         23.7717         12.8541 
       0.963368         23.4221         12.6702 
       0.969511         23.2125           12.49 
       0.975621         23.0106         12.3144 
       0.981748         22.7427         12.1416 
       0.987916         22.6073         11.9711 
        0.99406         22.3612         11.8046 
        1.00019         22.2022         11.6416 
        1.00632         22.0182         11.4818 
        1.01246         21.8379         11.3248 
        1.01859         21.5807          11.171 
        1.02471         21.3788         11.0203 
        1.03085         21.3037         10.8719 
        1.03698         21.1128         10.7265 
        1.04314         20.8685         10.5832 
        1.04929         20.6386         10.4429 
        1.05541          20.572         10.3057 
        1.06154         20.4118         10.1706 
        1.06769         20.2258         10.0378 
        1.07382         19.9577         9.90781 
        1.07993          19.803         9.78043 
        1.08607         19.7218         9.65478 
        1.09222         19.5003         9.53123 
        1.09836         19.4004            9.41 
        1.10449         19.1949         9.29104 
        1.11063         19.1034         9.17402 
        1.11677         19.0047         9.05907 
         1.1229         18.8162          8.9463 
        1.12903          18.688         8.83538 
        1.13518          18.464         8.72625 
        1.14131         18.3859         8.61904 
        1.14745         18.1403         8.51371 
        1.15359         18.0112         8.41013 
        1.15973         17.8711         8.30824 
        1.16584         17.7425         8.20851 
        1.17197         17.5944         8.11029 
        1.17811         17.4727         8.01338 
        1.18424         17.3642         7.91835 
        1.19038         17.2761          7.8246 
        1.19652          17.117          7.7324 
        1.20267         17.0104         7.64171 
        1.20881          16.839         7.55249 
        1.21495         16.7181         7.46485 
        1.22108         16.6824         7.37862 
         1.2272         16.5407         7.29397 
        1.23334         16.4451         7.21045 
        1.23949          16.304         7.12805 
        1.24562         16.1646         7.04718 
        1.25174         16.0897         6.96768 
        1.25789          15.933         6.88918 
        1.26402         15.8853         6.81204 
        1.27014         15.7985         6.73627 
        1.27628         15.6033         6.66143 
        1.28244          15.606          6.5876 
        1.28858         15.4476         6.51499 
        1.29471         15.2604         6.44364 
        1.30084         15.1847         6.37343 
        1.30697         15.1765         6.30417 
        1.31312         15.0109         6.23585 
        1.31925         14.9412         6.16875 
        1.32537         14.8419         6.10272 
        1.33151         14.7428         6.03742 
        1.33765         14.6464         5.97312 
        1.34378         14.6086         5.90989 
        1.34992         14.4752         5.84754 
        1.35606         14.3495         5.78596 
         1.3622         14.2518         5.72538 
        1.36833         14.2129         5.66581 
        1.37445          14.134         5.60713 
        1.38059         14.0514         5.54911 
        1.38675         13.9505         5.49177 
        1.39288         13.8224         5.43547 
        1.39901         13.7722            5.38 
        1.40515         13.6787         5.32518 
         1.4113         13.5831         5.27114 
        1.41742         13.5353         5.21807 
        1.42355         13.4087         5.16563 
         1.4297         13.3632         5.11375 
        1.43585         13.2961         5.06262 
        1.44198         13.2269         5.01238 
        1.44809         13.1438         4.96292 
        1.45423          13.041         4.91395 
        1.46036         12.9824         4.86573 
        1.46649         12.8998         4.81815 
        1.47263         12.8512         4.77117 
        1.47877         12.7658         4.72483 
        1.48491         12.7026         4.67904 
        1.49104         12.6052         4.63396 
        1.49718         12.5681         4.58944 
        1.50333         12.4888         4.54544 
        1.50947         12.4079         4.50211 
         1.5156         12.3668         4.45941 
        1.52172         12.2925         4.41726 
        1.52787         12.2272         4.37558 
          1.534          12.167         4.33448 
        1.54013         12.1049         4.29396 
        1.54627         12.0252         4.25389 
        1.55241         11.9334         4.21432 
        1.55855         11.9238         4.17531 
        1.56467         11.8401         4.13691 
         1.5708         11.7966         4.09888 
        1.57695         11.7058         4.06128 
        1.58308         11.6347         4.02424 
        1.58922         11.5949         3.98764 
        1.59535         11.5224          3.9515 
         1.6015         11.4331         3.91577 
        1.60764         11.4072          3.8805 
        1.61376         11.3708         3.84576 
        1.61989         11.2687         3.81142 
        1.62604         11.2462         3.77742 
        1.63218         11.1947         3.74387 
        1.63831          11.122         3.71079 
        1.64444         11.0394         3.67811 
        1.65059         10.9897         3.64575 
        1.65673         10.9623         3.61381 
        1.66285         10.9053         3.58234 
        1.66898         10.8556         3.55124 
        1.67512         10.7905         3.52045 
        1.68127         10.7122            3.49 
         1.6874         10.6922         3.45998 
        1.69353          10.624         3.43034 
        1.69967         10.5817         3.40097 
        1.70581         10.5165         3.37195 
        1.71193          10.494         3.34339 
        1.71806         10.4459          3.3151 
        1.72421         10.3684         3.28708 
        1.73035          10.331         3.25942 
        1.73649         10.2947         3.23209 
        1.74262         10.1977         3.20509 
        1.74876         10.2079         3.17838 
        1.75489          10.144         3.15203 
        1.76101         10.0737         3.12599 
        1.76715         10.0557         3.10021 
        1.77329         10.0112         3.07468 
        1.77943         9.93309         3.04944 
        1.78557         9.93245         3.02452 
        1.79171         9.87599         2.99987 
        1.79785         9.83927         2.97549 
        1.80399         9.75042         2.95139 
        1.81012         9.73739         2.92759 
        1.81625         9.66682         2.90407 
        1.82239         9.63289         2.88077 
        1.82853         9.58039         2.85773 
        1.83466         9.52232         2.83497 
        1.84078           9.509         2.81249 
        1.84692         9.47095         2.79021 
        1.85306         9.43087         2.76815 
         1.8592         9.39556         2.74636 
        1.86533         9.35876         2.72482 
        1.87147         9.29865         2.70348 
        1.87761         9.27835         2.68237 
        1.88375          9.2228         2.66151 
        1.88988         9.17516         2.64089 
        1.89601         9.16036         2.62048 
        1.90215         9.09034         2.60027 
        1.90829         9.06981         2.58028 
        1.91442         9.01792          2.5605 
        1.92056           9.014         2.54095 
         1.9267         8.94524         2.52158 
        1.93284         8.94042         2.50241 
        1.93897         8.88047         2.48347 
        1.94509         8.82719         2.46477 
        1.95123         8.81638         2.44621 
        1.95737         8.78148         2.42783 
        1.96349         8.70998         2.40969 
        1.96964         8.68935         2.39168 
        1.97578         8.65669         2.37385 
        1.98192         8.61306         2.35624 
        1.98805         8.58766          2.3388 
        1.99419         8.56398         2.32154 
        2.00033         8.51304         2.30445 
        2.00647         8.49491         2.28754 
         2.0126         8.45653         2.27082 
        2.01874          8.4116         2.25424 
        2.02488         8.38548         2.23782 
        2.03101          8.3366         2.22159 
        2.03714         8.29898         2.20554 
        2.04328         8.27555         2.18963 
        2.04941         8.23134         2.17388 
        2.05554         8.22064         2.15831 
        2.06167         8.18353         2.14287 
        2.06781         8.14291         2.12757 
        2.07396         8.11503         2.11241 
        2.08009         8.07903         2.09742 
        2.08622         8.06306         2.08259 
        2.09237         8.03956         2.06787 
        2.09851         7.97724          2.0533 
        2.10464         7.96438         2.03889 
        2.11077         7.92536         2.02464 
        2.11691         7.92086         2.01049 
        2.12305         7.86721         1.99648 
        2.12918         7.84177         1.98263 
        2.13531         7.81089         1.96892 
        2.14145         7.78628          1.9553 
         2.1476         7.75573          1.9418 
        2.15372         7.71976         1.92849 
        2.15985         7.70075          1.9153 
        2.16599         7.67164         1.90219 
        2.17213          7.6616         1.88922 
        2.17827         7.60735         1.87637 
         2.1844         7.58592         1.86365 
        2.19054         7.56185         1.85105 
        2.19666         7.53081         1.83858 
         2.2028         7.49274         1.82621 
        2.20893         7.47999         1.81396 
        2.21508         7.45477          1.8018 
        2.22122          7.3982         1.78975 
        2.22736         7.38894         1.77784 
        2.23349         7.36215         1.76603 
        2.23962         7.34523         1.75433 
        2.24577         7.30282         1.74273 
         2.2519         7.29688         1.73124 
        2.25802         7.23565         1.71988 
        2.26417         7.23036         1.70859 
        2.27031         7.19829         1.69739 
        2.27644         7.17118         1.68632 
        2.28257         7.14348         1.67535 
        2.28872         7.13263         1.66446 
        2.29486         7.10303         1.65367 
        2.30099         7.07617           1.643 
        2.30712         7.04911         1.63242 
        2.31326         7.02169         1.62191 
         2.3194         6.99565          1.6115 
        2.32553         6.96344          1.6012 
        2.33166         6.94614         1.59099 
         2.3378         6.92561         1.58086 
        2.34394          6.9025         1.57082 
        2.35007         6.86557         1.56088 
        2.35619         6.86008         1.55103 
        2.36233         6.81867         1.54125 
        2.36848         6.80621         1.53153 
        2.37462         6.78106         1.52191 
        2.38075         6.76679         1.51239 
        2.38689         6.74194         1.50294 
        2.39303         6.70598         1.49358 
        2.39916         6.69267          1.4843 
        2.40529         6.66212          1.4751 
        2.41143         6.64747         1.46598 
        2.41757          6.6266         1.45693 
         2.4237         6.59569         1.44797 
        2.42983          6.5868         1.43909 
        2.43598         6.56628         1.43025 
        2.44211         6.54335         1.42151 
        2.44823         6.50317         1.41286 
        2.45437         6.48979         1.40426 
        2.46052         6.47176         1.39573 
        2.46665         6.45661         1.38728 
        2.47279         6.42184          1.3789 
        2.47892         6.39835         1.37058 
        2.48507         6.38773         1.36233 
         2.4912         6.36245         1.35416 
