# k  (h/Mpc)    Pcb(k)  (Mpc/h)^3    Pcb_linear(k)  (Mpc/h)^3
     0.00783031         2157.18         2169.39 
       0.013688         2792.19         2828.56 
       0.019231         2983.61         3002.14 
      0.0249154         2907.02         2906.47 
      0.0312784         2633.59         2642.11 
      0.0375637         2332.99         2347.11 
      0.0433917         2107.56         2107.81 
      0.0492413         1912.33         1921.05 
      0.0555754         1772.82         1772.59 
      0.0619321         1633.67         1657.57 
       0.067871         1548.44         1558.76 
      0.0738098         1446.99         1453.73 
      0.0800417         1329.73         1332.21 
      0.0862327         1199.83         1205.55 
      0.0921407         1084.39         1089.32 
      0.0982031         986.107         984.611 
       0.104506         891.548         897.437 
       0.110769         828.845         832.948 
       0.116806         791.228         787.232 
       0.122832         747.981         750.921 
       0.129052         715.965         716.022 
       0.135211         683.274         678.793 
       0.141259         638.281          637.77 
       0.147318          589.76           593.5 
       0.153489         549.544         548.442 
       0.159709         513.317         506.825 
       0.165845         471.765         472.125 
       0.171974         453.845         444.615 
       0.178125         433.016         423.311 
       0.184229         410.583         406.395 
        0.19034         399.631         391.267 
       0.196428         384.502         375.944 
       0.202534          362.05         359.161 
       0.208729         349.258         340.601 
       0.214876         333.433         321.482 
       0.220989         309.664         303.004 
       0.227147          299.64          286.09 
        0.23329          286.63         271.614 
       0.239377         276.751         259.725 
       0.245482         264.348         249.821 
       0.251667         253.913         241.103 
       0.257832         249.718          232.91 
       0.263955         237.506         224.634 
       0.270079         228.998         215.928 
        0.27624         218.507         206.794 
       0.282372         210.906         197.639 
        0.28843         206.988         188.942 
       0.294538         197.469         180.865 
       0.300721         188.856         173.607 
        0.30691         185.187         167.252 
       0.313033         178.134         161.705 
       0.319153         175.131         156.628 
       0.325316         168.147          151.73 
        0.33145         163.139         146.865 
       0.337538         158.274         141.973 
       0.343633         153.534         137.025 
       0.349808         148.575         132.078 
       0.355968          144.11         127.332 
       0.362074         141.166         122.929 
       0.368217         137.399         118.861 
       0.374374         134.527         115.135 
       0.380519         128.873         111.716 
       0.386598          125.75         108.536 
       0.392688         122.371         105.468 
        0.39888         120.116          102.41 
       0.405048         117.366         99.3873 
       0.411186          114.69         96.4165 
       0.417313         111.608         93.5164 
       0.423458         108.642         90.7099 
       0.429607         106.778         88.0435 
       0.435692         104.905         85.5604 
       0.441815         101.301         83.2097 
       0.447964         98.4451         80.9847 
       0.454126         96.7052         78.8621 
       0.460267         95.9544         76.8199 
       0.466387         93.4644         74.8372 
        0.47254         92.2748         72.8887 
       0.478662         89.2747         70.9913 
       0.484765         87.6908         69.1471 
       0.490885         85.4167         67.3592 
       0.497035         84.5271         65.6348 
       0.503198         82.4415         63.9827 
       0.509342          80.425         62.4076 
       0.515458         79.5339         60.9081 
       0.521598         77.6433         59.4621 
       0.527764         76.7449         58.0586 
       0.533884         75.5003         56.7038 
           0.54         73.8103         55.3848 
       0.546137         71.7774         54.0965 
       0.552299         70.7179         52.8395 
       0.558452         69.3744         51.6223 
       0.564573          68.965           50.45 
       0.570708         66.9564         49.3154 
       0.576825         66.2495         48.2251 
       0.582926         65.3207         47.1766 
       0.589034         64.1415         46.1613 
       0.595184         63.2965         45.1696 
       0.601379         61.6379         44.1986 
       0.607522         60.8426         43.2616 
       0.613639          60.075         42.3541 
       0.619772         59.0612         41.4696 
       0.625918         58.0346         40.6085 
       0.632068         57.5418         39.7716 
       0.638161         56.3904         38.9664 
         0.6443         55.7437         38.1786 
       0.650464         54.4736         37.4111 
       0.656582         54.1877         36.6715 
       0.662703           53.59         35.9528 
       0.668861         52.2877         35.2498 
       0.675024         51.8885         34.5651 
       0.681124         51.3528         33.9051 
       0.687237         50.3519         33.2604 
       0.693381         49.6227         32.6289 
       0.699536         49.3452         32.0126 
       0.705665         48.4687         31.4149 
       0.711789         47.6991         30.8335 
       0.717957         46.9042         30.2634 
        0.72409           46.49         29.7116 
       0.730186         46.2633         29.1773 
       0.736317         45.4111         28.6536 
       0.742472         44.8936          28.141 
       0.748622         44.2032         27.6415 
        0.75476         43.2847         27.1551 
       0.760888         43.2017          26.681 
       0.767043         42.4887         26.2163 
       0.773185         42.1465         25.7637 
       0.779291         41.6574         25.3244 
       0.785407         40.9912         24.8948 
       0.791564         40.8838         24.4726 
       0.797719         40.1245         24.0606 
       0.803834         39.8704         23.6609 
       0.809972         39.2388          23.269 
       0.816124         38.8505         22.8853 
       0.822261         38.4423         22.5114 
       0.828378         38.1228         22.1471 
       0.834502         37.7516         21.7906 
       0.840667         37.3841         21.4397 
       0.846816         36.6386         21.0976 
       0.852925         36.5892         20.7652 
       0.859047         36.2081         20.4394 
       0.865192         35.7047         20.1195 
       0.871341         35.3077         19.8063 
       0.877463         35.0066         19.5012 
       0.883569         34.8441         19.2035 
       0.889708         34.3578         18.9104 
       0.895864         33.9596         18.6228 
       0.902008         33.5638         18.3419 
       0.908149         33.2816          18.067 
       0.914301         33.1086         17.7973 
       0.920448         32.6638         17.5334 
       0.926574         32.3135         17.2759 
       0.932687         32.0289         17.0241 
       0.938823         31.6679         16.7765 
       0.944975         31.4105         16.5333 
       0.951105         31.1271         16.2958 
       0.957225          30.972         16.0634 
       0.963368          30.526         15.8349 
       0.969511         30.2829         15.6108 
       0.975621         30.0177         15.3922 
       0.981748         29.6882         15.1774 
       0.987916         29.5155         14.9653 
        0.99406          29.193         14.7581 
        1.00019         28.9877         14.5552 
        1.00632          28.749         14.3564 
        1.01246         28.5424          14.161 
        1.01859         28.2027         13.9697 
        1.02471         27.9623         13.7821 
        1.03085         27.8706         13.5973 
        1.03698         27.6157         13.4164 
        1.04314         27.3222          13.238 
        1.04929         27.0391         13.0632 
        1.05541         26.9528         12.8924 
        1.06154         26.7708         12.7243 
        1.06769         26.4709         12.5589 
        1.07382         26.1884          12.397 
        1.07993          25.978         12.2383 
        1.08607         25.8622         12.0818 
        1.09222         25.6066         11.9279 
        1.09836         25.4427         11.7769 
        1.10449          25.235         11.6287 
        1.11063         25.0826         11.4829 
        1.11677         24.9831         11.3397 
         1.1229         24.7277         11.1992 
        1.12903         24.5671          11.061 
        1.13518          24.329          10.925 
        1.14131         24.2053         10.7914 
        1.14745         23.8918         10.6601 
        1.15359         23.7226          10.531 
        1.15973         23.5411          10.404 
        1.16584         23.3824         10.2797 
        1.17197         23.1753         10.1572 
        1.17811         23.0357         10.0364 
        1.18424         22.8822         9.91786 
        1.19038         22.7704         9.80094 
        1.19652         22.5649         9.68597 
        1.20267         22.4367         9.57285 
        1.20881         22.2328         9.46158 
        1.21495         22.0782         9.35226 
        1.22108         22.0511          9.2447 
         1.2272         21.8675         9.13909 
        1.23334         21.7176          9.0349 
        1.23949         21.5542          8.9321 
        1.24562         21.3557         8.83119 
        1.25174         21.2697           8.732 
        1.25789         21.1115         8.63404 
        1.26402         21.0231         8.53777 
        1.27014         20.9013          8.4432 
        1.27628         20.6628          8.3498 
        1.28244         20.6705         8.25764 
        1.28858         20.4428           8.167 
        1.29471         20.2288         8.07793 
        1.30084         20.1291         7.99029 
        1.30697         20.1046         7.90382 
        1.31312         19.8955         7.81851 
        1.31925         19.8066         7.73474 
        1.32537         19.6704         7.65229 
        1.33151         19.5485         7.57075 
        1.33765         19.4542         7.49046 
        1.34378         19.3624          7.4115 
        1.34992         19.2191         7.33363 
        1.35606         19.0504         7.25671 
         1.3622          18.915         7.18105 
        1.36833          18.878         7.10665 
        1.37445         18.7879         7.03335 
        1.38059          18.672         6.96086 
        1.38675         18.5276         6.88923 
        1.39288         18.3809          6.8189 
        1.39901         18.3229         6.74959 
        1.40515         18.1925         6.68109 
         1.4113         18.0862         6.61358 
        1.41742         18.0149         6.54726 
        1.42355         17.8515         6.48173 
         1.4297         17.7843          6.4169 
        1.43585         17.6979         6.35299 
        1.44198         17.6209          6.2902 
        1.44809          17.506         6.22838 
        1.45423          17.382         6.16717 
        1.46036         17.3027         6.10689 
        1.46649         17.1913          6.0474 
        1.47263         17.1357         5.98866 
        1.47877         17.0353         5.93073 
        1.48491         16.9327         5.87347 
        1.49104         16.8231          5.8171 
        1.49718         16.7623         5.76143 
        1.50333         16.6701          5.7064 
        1.50947         16.5826         5.65221 
         1.5156         16.5039         5.59881 
        1.52172          16.406          5.5461 
        1.52787         16.3164         5.49397 
          1.534         16.2605         5.44257 
        1.54013         16.1712         5.39189 
        1.54627         16.0625         5.34176 
        1.55241         15.9501         5.29227 
        1.55855         15.9241         5.24347 
        1.56467         15.8319         5.19543 
         1.5708         15.7786         5.14786 
        1.57695          15.661         5.10082 
        1.58308         15.5593         5.05448 
        1.58922         15.5102         5.00868 
        1.59535         15.4054         4.96347 
         1.6015         15.2939         4.91876 
        1.60764         15.2627         4.87462 
        1.61376         15.2146         4.83115 
        1.61989         15.0921         4.78817 
        1.62604         15.0628         4.74563 
        1.63218         14.9899         4.70363 
        1.63831         14.8843         4.66224 
        1.64444         14.7984         4.62133 
        1.65059         14.7223         4.58082 
        1.65673          14.684         4.54084 
        1.66285         14.5977         4.50145 
        1.66898         14.5524         4.46252 
        1.67512         14.4771         4.42398 
        1.68127         14.3581         4.38585 
         1.6874         14.3369         4.34826 
        1.69353         14.2475         4.31114 
        1.69967         14.1806         4.27436 
        1.70581          14.124         4.23803 
        1.71193         14.0734         4.20226 
        1.71806         14.0178         4.16683 
        1.72421         13.9149         4.13174 
        1.73035         13.8594          4.0971 
        1.73649          13.823         4.06286 
        1.74262          13.685         4.02904 
        1.74876         13.6948         3.99559 
        1.75489         13.6168         3.96258 
        1.76101         13.5363         3.92997 
        1.76715         13.4966         3.89767 
        1.77329         13.4354          3.8657 
        1.77943          13.341         3.83408 
        1.78557          13.335         3.80285 
        1.79171         13.2514         3.77198 
        1.79785         13.2241         3.74144 
        1.80399         13.1078         3.71124 
        1.81012         13.0904         3.68142 
        1.81625         12.9856         3.65194 
        1.82239         12.9417         3.62275 
        1.82853         12.8836         3.59388 
        1.83466         12.8035         3.56537 
        1.84078         12.7938         3.53719 
        1.84692         12.7445         3.50927 
        1.85306         12.6885         3.48162 
         1.8592         12.6361         3.45431 
        1.86533         12.5723         3.42732 
        1.87147         12.5045         3.40058 
        1.87761         12.4624         3.37411 
        1.88375         12.4067         3.34796 
        1.88988         12.3347         3.32212 
        1.89601         12.3134         3.29654 
        1.90215         12.2286          3.2712 
        1.90829         12.1887         3.24615 
        1.91442         12.1352         3.22135 
        1.92056         12.1304         3.19684 
         1.9267         12.0433         3.17256 
        1.93284         12.0284         3.14852 
        1.93897         11.9466         3.12477 
        1.94509          11.896         3.10132 
        1.95123         11.8726         3.07805 
        1.95737         11.8246         3.05501 
        1.96349         11.7257         3.03226 
        1.96964         11.7005         3.00968 
        1.97578         11.6654         2.98731 
        1.98192         11.5987         2.96523 
        1.98805          11.564         2.94336 
        1.99419          11.526         2.92171 
        2.00033          11.483         2.90027 
        2.00647         11.4397         2.87906 
         2.0126         11.3955         2.85809 
        2.01874         11.3192          2.8373 
        2.02488         11.2937         2.81669 
        2.03101         11.2394         2.79634 
        2.03714         11.1908          2.7762 
        2.04328          11.139         2.75624 
        2.04941         11.0881         2.73649 
        2.05554         11.0775         2.71695 
        2.06167         11.0262         2.69758 
        2.06781         10.9678         2.67839 
        2.07396         10.9503         2.65936 
        2.08009         10.8782         2.64055 
        2.08622         10.8694         2.62195 
        2.09237         10.8335         2.60348 
        2.09851         10.7528          2.5852 
        2.10464         10.7438         2.56711 
        2.11077         10.6711         2.54923 
        2.11691         10.6723         2.53148 
        2.12305         10.6014         2.51389 
        2.12918          10.551         2.49651 
        2.13531         10.5295          2.4793 
        2.14145         10.4901         2.46221 
         2.1476         10.4479         2.44527 
        2.15372         10.4032         2.42856 
        2.15985         10.3736           2.412 
        2.16599         10.3346         2.39555 
        2.17213         10.3204         2.37926 
        2.17827         10.2627         2.36314 
         2.1844         10.2339         2.34717 
        2.19054         10.1968         2.33135 
        2.19666         10.1556          2.3157 
         2.2028         10.1094         2.30018 
        2.20893         10.0833         2.28479 
        2.21508          10.044         2.26953 
        2.22122         9.98392          2.2544 
        2.22736         9.96801         2.23945 
        2.23349         9.92876         2.22463 
        2.23962         9.90154         2.20994 
        2.24577         9.86233         2.19536 
         2.2519          9.8424         2.18094 
        2.25802         9.75377         2.16668 
        2.26417         9.75946          2.1525 
        2.27031         9.70754         2.13843 
        2.27644         9.67681         2.12454 
        2.28257         9.62471         2.11076 
        2.28872         9.61915         2.09709 
        2.29486         9.58111         2.08354 
        2.30099         9.55228         2.07013 
        2.30712         9.50177         2.05684 
        2.31326         9.45954         2.04364 
         2.3194          9.4379         2.03057 
        2.32553           9.389         2.01763 
        2.33166         9.36277         2.00481 
         2.3378         9.34185         1.99209 
        2.34394         9.31562         1.97947 
        2.35007         9.25848         1.96698 
        2.35619         9.24866         1.95462 
        2.36233         9.19717         1.94233 
        2.36848         9.17524         1.93012 
        2.37462         9.14802         1.91804 
        2.38075          9.1231         1.90608 
        2.38689         9.09197         1.89421 
        2.39303         9.03528         1.88244 
        2.39916         9.01874         1.87079 
        2.40529         8.98427         1.85923 
        2.41143         8.95591         1.84777 
        2.41757         8.92532         1.83639 
         2.4237          8.8911         1.82514 
        2.42983          8.8725         1.81397 
        2.43598         8.84419         1.80288 
        2.44211         8.82418         1.79189 
        2.44823         8.77009         1.78102 
        2.45437         8.74677         1.77021 
        2.46052         8.72579         1.75949 
        2.46665         8.69922         1.74887 
        2.47279         8.67115         1.73834 
        2.47892         8.62092         1.72789 
        2.48507          8.6047         1.71752 
         2.4912         8.57316         1.70725 
