# k  (h/Mpc)    P(k)  (Mpc/h)^3    P_linear(k)  (Mpc/h)^3
     0.00783031          4884.4         4950.22 
       0.013688         6023.52         6010.46 
       0.019231         5970.22         5963.92 
      0.0249154         5313.02         5371.28 
      0.0312784         4484.99         4498.56 
      0.0375637         3727.79         3713.04 
      0.0433917         3149.85         3164.26 
      0.0492413         2794.92         2792.42 
      0.0555754         2511.88         2539.93 
      0.0619321         2384.11          2367.7 
       0.067871         2197.99         2218.24 
      0.0738098         2024.04         2043.99 
      0.0800417         1801.41         1827.85 
      0.0862327         1589.48         1598.69 
      0.0921407         1400.39          1394.1 
      0.0982031         1222.28         1220.97 
       0.104506         1113.57         1090.78 
       0.110769         1027.16         1007.86 
       0.116806         968.922         958.778 
       0.122832         936.715         923.515 
       0.129052         885.774          885.56 
       0.135211         837.339         836.252 
       0.141259         785.659         774.738 
       0.147318         722.784         705.444 
       0.153489          651.07         635.912 
       0.159709         597.349         575.286 
       0.165845         559.685         529.399 
       0.171974          522.89         497.669 
       0.178125         501.698         476.833 
       0.184229         485.883         462.032 
        0.19034         460.143         447.853 
       0.196428         449.741         430.513 
       0.202534         432.741         408.398 
       0.208729         405.024         382.095 
       0.214876         376.999         354.779 
       0.220989         358.116         329.373 
       0.227147         334.606         307.785 
        0.23329         318.762         291.134 
       0.239377         309.426         279.016 
       0.245482         291.858         269.888 
       0.251667          288.25         261.931 
       0.257832         279.181         253.639 
       0.263955         268.826         244.081 
       0.270079         257.672         233.039 
        0.27624         250.635         220.997 
       0.282372         239.241          209.05 
        0.28843         228.493         198.172 
       0.294538         217.871         188.764 
       0.300721         213.889         180.973 
        0.30691         204.252         174.681 
       0.313033         199.059         169.395 
       0.319153          190.82         164.455 
       0.325316         187.117         159.315 
        0.33145         180.233         153.804 
       0.337538         176.565         147.932 
       0.343633         169.952         141.899 
       0.349808         164.204         135.927 
       0.355968         160.304         130.422 
       0.362074         155.325          125.57 
       0.368217         150.777         121.328 
       0.374374         146.152          117.61 
       0.380519         143.128         114.231 
       0.386598         139.289         111.032 
       0.392688         136.824          107.81 
        0.39888          133.08         104.443 
       0.405048          129.72         101.025 
       0.411186         126.598         97.6233 
       0.417313         123.202         94.3383 
       0.423458         120.228         91.2526 
       0.429607         117.173         88.4075 
       0.435692         113.308         85.8418 
       0.441815         112.241         83.4741 
       0.447964         110.224         81.2371 
       0.454126         105.322         79.0705 
       0.460267         104.042         76.9473 
       0.466387         102.044          74.838 
        0.47254         100.024         72.7218 
       0.478662         98.7058         70.6557 
       0.484765         95.7598         68.6685 
       0.490885         93.9477          66.769 
       0.497035         92.6782         64.9645 
       0.503198         90.0515         63.2692 
       0.509342         88.1006         61.6775 
       0.515458         86.7025         60.1635 
       0.521598         85.3933         58.6895 
       0.527764         83.9612         57.2422 
       0.533884         82.5672          55.836 
           0.54         80.8432          54.459 
       0.546137          79.954         53.1069 
       0.552299         78.6702         51.7894 
       0.558452         76.6596         50.5239 
       0.564573         75.2589         49.3222 
       0.570708          74.253         48.1723 
       0.576825          73.025         47.0717 
       0.582926         71.5015         46.0119 
       0.589034         70.0579         44.9817 
       0.595184          69.167          43.973 
       0.601379         68.1923         42.9844 
       0.607522         66.5433         42.0295 
       0.613639         66.3284          41.103 
       0.619772         64.7569         40.1993 
       0.625918         64.1258         39.3207 
       0.632068         63.2868         38.4701 
       0.638161         62.3442         37.6568 
         0.6443         61.3957         36.8661 
       0.650464         60.4961         36.0983 
       0.656582         59.8008         35.3589 
       0.662703         58.6079         34.6393 
       0.668861         57.8694          33.933 
       0.675024         57.1054         33.2432 
       0.681124         56.2108         32.5779 
       0.687237         55.2054         31.9288 
       0.693381         54.7208         31.2947 
       0.699536         53.7538         30.6779 
       0.705665         53.9411         30.0821 
       0.711789         52.4552         29.5039 
       0.717957          51.964         28.9378 
        0.72409         51.2539           28.39 
       0.730186         50.4235         27.8596 
       0.736317         50.1945         27.3395 
       0.742472         49.4214         26.8301 
       0.748622          48.926         26.3337 
        0.75476         48.3124         25.8506 
       0.760888         47.5556         25.3803 
       0.767043         47.0484         24.9199 
       0.773185         46.4142         24.4721 
       0.779291         46.1781         24.0382 
       0.785407         45.7239         23.6146 
       0.791564         45.0043         23.1988 
       0.797719         44.1944         22.7934 
       0.803834         44.0746         22.4004 
       0.809972         43.3561         22.0154 
       0.816124         42.7873         21.6387 
       0.822261         42.4598         21.2717 
       0.828378         42.1689         20.9144 
       0.834502         41.6475         20.5649 
       0.840667         41.2308         20.2211 
       0.846816         40.6018         19.8862 
       0.852925         40.2767         19.5609 
       0.859047         39.7425         19.2423 
       0.865192         39.4267         18.9298 
       0.871341         39.2646         18.6241 
       0.877463         38.4609         18.3265 
       0.883569         38.1662         18.0363 
       0.889708         37.8941         17.7509 
       0.895864         37.5161          17.471 
       0.902008         37.1731         17.1978 
       0.908149         36.8308         16.9307 
       0.914301         36.6339         16.6688 
       0.920448         36.1099         16.4127 
       0.926574          35.788         16.1629 
       0.932687         35.4645         15.9189 
       0.938823         34.9422         15.6791 
       0.944975         34.8196         15.4436 
       0.951105           34.46         15.2139 
       0.957225         34.0314         14.9893 
       0.963368         33.9976         14.7685 
       0.969511         33.6518         14.5521 
       0.975621         33.3638         14.3412 
       0.981748         32.9207          14.134 
       0.987916         32.7259         13.9296 
        0.99406         32.4804         13.7301 
        1.00019         32.0803         13.5348 
        1.00632         31.8939         13.3435 
        1.01246         31.7051         13.1557 
        1.01859         31.2259         12.9718 
        1.02471         31.2091         12.7917 
        1.03085         30.9116         12.6143 
        1.03698         30.4802         12.4408 
        1.04314         30.2597         12.2697 
        1.04929         30.0438         12.1023 
        1.05541         29.7182         11.9387 
        1.06154         29.6364         11.7778 
        1.06769         29.3793         11.6195 
        1.07382          29.142         11.4647 
        1.07993         29.0103         11.3131 
        1.08607          28.624         11.1637 
        1.09222         28.5303         11.0168 
        1.09836         28.2412         10.8727 
        1.10449         28.0423         10.7313 
        1.11063         27.6805         10.5924 
        1.11677         27.5815         10.4559 
         1.1229         27.4633         10.3221 
        1.12903         27.0941         10.1906 
        1.13518         26.9822         10.0612 
        1.14131         26.8841         9.93417 
        1.14745         26.5686          9.8094 
        1.15359         26.5136         9.68676 
        1.15973         26.1974         9.56618 
        1.16584         25.9495         9.44819 
        1.17197         25.9586         9.33203 
        1.17811          25.621         9.21748 
        1.18424         25.4105         9.10518 
        1.19038         25.3659         8.99444 
        1.19652         25.2127         8.88559 
        1.20267         25.0215         8.77854 
        1.20881          24.797         8.67329 
        1.21495         24.6405         8.56993 
        1.22108         24.4763         8.46827 
         1.2272         24.2109          8.3685 
        1.23334         24.1438         8.27011 
        1.23949         23.9871         8.17308 
        1.24562         23.8321         8.07787 
        1.25174         23.7212         7.98432 
        1.25789         23.5235         7.89198 
        1.26402         23.4114         7.80126 
        1.27014         23.1477          7.7122 
        1.27628         23.0313         7.62426 
        1.28244         22.9214         7.53753 
        1.28858         22.8208         7.45227 
        1.29471         22.6671         7.36852 
        1.30084         22.5155         7.28614 
        1.30697         22.3448          7.2049 
        1.31312         22.1409         7.12478 
        1.31925         22.0506         7.04614 
        1.32537         21.9664         6.96876 
        1.33151          21.783         6.89227 
        1.33765         21.7262         6.81698 
        1.34378         21.5875         6.74296 
        1.34992         21.3256            6.67 
        1.35606         21.2665         6.59796 
         1.3622         21.1399         6.52712 
        1.36833         20.9911         6.45748 
        1.37445         20.9864         6.38891 
        1.38059         20.8005         6.32112 
        1.38675         20.5763         6.25415 
        1.39288         20.5576         6.18842 
        1.39901         20.3859         6.12367 
        1.40515         20.3089          6.0597 
         1.4113         20.1791         5.99667 
        1.41742         19.9866         5.93477 
        1.42355         19.9621         5.87364 
         1.4297         19.8462         5.81318 
        1.43585         19.7854          5.7536 
        1.44198         19.5866         5.69508 
        1.44809         19.4985         5.63749 
        1.45423         19.4139         5.58048 
        1.46036         19.3416         5.52437 
        1.46649         19.2076         5.46901 
        1.47263         19.0726         5.41436 
        1.47877         18.9943         5.36048 
        1.48491         18.9081         5.30726 
        1.49104         18.8447         5.25487 
        1.49718         18.6646         5.20315 
        1.50333         18.6171         5.15205 
        1.50947         18.5341         5.10173 
         1.5156          18.379         5.05216 
        1.52172         18.2585         5.00326 
        1.52787         18.2559          4.9549 
          1.534         18.0933         4.90724 
        1.54013          17.948         4.86026 
        1.54627         17.9076          4.8138 
        1.55241         17.7991         4.76795 
        1.55855         17.6932         4.72276 
        1.56467         17.6174         4.67829 
         1.5708         17.5744         4.63426 
        1.57695         17.4027         4.59073 
        1.58308         17.4172         4.54786 
        1.58922         17.2893         4.50551 
        1.59535         17.1805         4.46372 
         1.6015         17.0929         4.42239 
        1.60764         17.0506         4.38162 
        1.61376         16.9219         4.34146 
        1.61989         16.8008         4.30178 
        1.62604           16.79         4.26251 
        1.63218         16.6738         4.22375 
        1.63831         16.6385         4.18557 
        1.64444           16.49         4.14784 
        1.65059         16.4168         4.11048 
        1.65673         16.3623         4.07363 
        1.66285         16.2622         4.03733 
        1.66898         16.2271         4.00147 
        1.67512         16.1558         3.96597 
        1.68127         16.0538         3.93086 
         1.6874          15.961         3.89627 
        1.69353         15.9025         3.86211 
        1.69967         15.7983         3.82827 
        1.70581         15.7417         3.79486 
        1.71193          15.661         3.76198 
        1.71806         15.5845         3.72941 
        1.72421         15.5144         3.69717 
        1.73035         15.4411         3.66534 
        1.73649         15.3777          3.6339 
        1.74262         15.3477         3.60284 
        1.74876         15.2581         3.57214 
        1.75489         15.1844         3.54185 
        1.76101         15.0996         3.51192 
        1.76715         15.0698          3.4823 
        1.77329         14.9744         3.45298 
        1.77943         14.8947         3.42399 
        1.78557         14.8529         3.39537 
        1.79171          14.801         3.36708 
        1.79785         14.6749          3.3391 
        1.80399         14.6257         3.31145 
        1.81012         14.6137         3.28414 
        1.81625         14.5117         3.25716 
        1.82239         14.4875         3.23044 
        1.82853         14.3605         3.20403 
        1.83466         14.2836         3.17795 
        1.84078          14.208         3.15218 
        1.84692         14.2068         3.12666 
        1.85306         14.1137         3.10138 
         1.8592         14.0614         3.07643 
        1.86533         14.0174         3.05176 
        1.87147         13.9427         3.02734 
        1.87761         13.9128         3.00317 
        1.88375         13.8073          2.9793 
        1.88988         13.7707         2.95571 
        1.89601         13.7014         2.93236 
        1.90215         13.6385         2.90925 
        1.90829         13.6059         2.88639 
        1.91442         13.5462         2.86378 
        1.92056         13.4843         2.84144 
         1.9267         13.4281          2.8193 
        1.93284         13.3512         2.79739 
        1.93897         13.2972         2.77576 
        1.94509         13.2429          2.7544 
        1.95123         13.1889         2.73321 
        1.95737         13.1482         2.71223 
        1.96349         13.0844         2.69152 
        1.96964         13.0227         2.67097 
        1.97578         12.9804         2.65063 
        1.98192         12.9037         2.63053 
        1.98805         12.8766         2.61065 
        1.99419         12.7988         2.59096 
        2.00033         12.7495         2.57148 
        2.00647          12.706         2.55219 
         2.0126         12.6447         2.53314 
        2.01874         12.5777         2.51425 
        2.02488         12.5269         2.49554 
        2.03101         12.5156         2.47706 
        2.03714         12.4671         2.45878 
        2.04328         12.3867         2.44066 
        2.04941         12.3159         2.42274 
        2.05554         12.3236         2.40501 
        2.06167         12.2494         2.38743 
        2.06781         12.2163         2.37003 
        2.07396         12.1802         2.35278 
        2.08009          12.122         2.33573 
        2.08622         12.0332         2.31886 
        2.09237         12.0141         2.30214 
        2.09851         11.9696         2.28557 
        2.10464          11.913         2.26919 
        2.11077         11.8524         2.25299 
        2.11691         11.8249         2.23692 
        2.12305         11.7799           2.221 
        2.12918         11.7125         2.20528 
        2.13531         11.6937          2.1897 
        2.14145         11.6208         2.17424 
         2.1476         11.6123         2.15891 
        2.15372         11.5564         2.14381 
        2.15985         11.4857         2.12883 
        2.16599         11.4673         2.11396 
        2.17213          11.423         2.09924 
        2.17827         11.3896         2.08467 
         2.1844         11.3388         2.07025 
        2.19054         11.2761         2.05596 
        2.19666         11.2706         2.04182 
         2.2028         11.2201          2.0278 
        2.20893         11.1703         2.01391 
        2.21508         11.1048         2.00014 
        2.22122         11.0671         1.98648 
        2.22736         11.0339         1.97299 
        2.23349         10.9784         1.95962 
        2.23962         10.9403         1.94637 
        2.24577         10.8931         1.93323 
         2.2519         10.8889         1.92023 
        2.25802         10.8364         1.90736 
        2.26417         10.8048         1.89459 
        2.27031         10.7389         1.88191 
        2.27644         10.7053         1.86939 
        2.28257         10.6632         1.85698 
        2.28872         10.6325         1.84467 
        2.29486         10.6023         1.83246 
        2.30099         10.5747          1.8204 
        2.30712         10.5233         1.80843 
        2.31326         10.4904         1.79656 
         2.3194          10.443         1.78479 
        2.32553         10.4048         1.77315 
        2.33166         10.3363         1.76162 
         2.3378         10.3268         1.75018 
        2.34394         10.2892         1.73883 
        2.35007          10.236          1.7276 
        2.35619          10.191         1.71649 
        2.36233          10.165         1.70544 
        2.36848         10.1548         1.69447 
        2.37462          10.124         1.68362 
        2.38075         10.0457         1.67287 
        2.38689         10.0238         1.66221 
        2.39303         9.99223         1.65165 
        2.39916         9.96917         1.64118 
        2.40529         9.92287         1.63081 
        2.41143          9.8948         1.62052 
        2.41757         9.86666         1.61031 
         2.4237          9.8242         1.60022 
        2.42983         9.78043          1.5902 
        2.43598          9.7692         1.58025 
        2.44211          9.7152          1.5704 
        2.44823         9.67511         1.56065 
        2.45437         9.66882         1.55097 
        2.46052         9.61252         1.54135 
        2.46665          9.5697         1.53183 
        2.47279         9.53225          1.5224 
        2.47892         9.51386         1.51304 
        2.48507         9.48983         1.50375 
         2.4912         9.45576         1.49456 
