# k  (h/Mpc)    P(k)  (Mpc/h)^3    P_linear(k)  (Mpc/h)^3
     0.00783031         7531.68         7648.51 
       0.013688          9397.7         9366.78 
       0.019231         9348.27         9341.03 
      0.0249154         8333.73         8454.29 
      0.0312784         7083.49         7122.61 
      0.0375637         5931.85         5914.33 
      0.0433917         5024.19         5065.91 
      0.0492413            4484         4488.73 
      0.0555754         4026.04         4094.87 
      0.0619321         3846.32         3824.08 
       0.067871         3534.66         3587.35 
      0.0738098          3260.7         3310.56 
      0.0800417          2903.5         2967.03 
      0.0862327         2575.62         2602.53 
      0.0921407         2284.75         2276.54 
      0.0982031         2000.49         1999.79 
       0.104506         1836.29         1790.56 
       0.110769         1695.49         1656.05 
       0.116806         1599.25         1575.29 
       0.122832         1543.52         1516.64 
       0.129052         1453.55         1454.02 
       0.135211         1376.44         1373.93 
       0.141259         1298.32         1274.97 
       0.147318         1200.72         1163.85 
       0.153489         1085.03         1052.22 
       0.159709         1004.03         954.411 
       0.165845         946.898         879.666 
       0.171974         887.362         827.157 
       0.178125         849.671         791.877 
       0.184229         821.073         766.354 
        0.19034         774.604         742.186 
       0.196428         759.669         713.501 
       0.202534         732.334         677.699 
       0.208729          689.03         635.537 
       0.214876         645.912         591.811 
       0.220989         617.541         550.931 
       0.227147         581.115         515.778 
        0.23329         555.222         488.148 
       0.239377         541.216         467.541 
       0.245482         507.332         451.655 
       0.251667         502.733         437.743 
       0.257832         486.114         423.614 
       0.263955         469.072         407.826 
       0.270079         450.539         389.946 
        0.27624         441.866         370.655 
       0.282372         422.786         351.484 
        0.28843         407.864         333.893 
       0.294538         388.275         318.421 
       0.300721         383.962         305.333 
        0.30691         366.367         294.522 
       0.313033         358.348         285.305 
       0.319153         345.325         276.739 
       0.325316         336.681         268.019 
        0.33145         325.653         258.889 
       0.337538         320.594         249.333 
       0.343633         309.469         239.582 
       0.349808         299.113         229.928 
       0.355968         294.399         220.923 
       0.362074         287.031         212.886 
       0.368217         279.117         205.708 
       0.374374         269.123         199.326 
       0.380519         265.295         193.492 
       0.386598         258.467         187.987 
       0.392688         255.239          182.54 
        0.39888         248.432          176.93 
       0.405048          242.49         171.305 
       0.411186          237.22          165.75 
       0.417313          232.39         160.367 
       0.423458         227.503         155.265 
       0.429607         222.397         150.521 
       0.435692         215.859         146.175 
       0.441815          214.19         142.124 
       0.447964         210.149         138.293 
       0.454126         201.671         134.597 
       0.460267         199.316         130.995 
       0.466387         196.753         127.463 
        0.47254         192.414         123.952 
       0.478662         191.105         120.528 
       0.484765         185.194         117.227 
       0.490885         182.481         114.063 
       0.497035         179.918         111.039 
       0.503198         175.304         108.166 
       0.509342         172.932         105.452 
       0.515458         170.515          102.87 
       0.521598         167.729         100.366 
       0.527764          165.31         97.9157 
       0.533884          162.86         95.5415 
           0.54         160.155         93.2284 
       0.546137         158.938         90.9678 
       0.552299         156.033         88.7647 
       0.558452         153.492         86.6403 
       0.564573         150.907         84.6085 
       0.570708         148.339         82.6569 
       0.576825         146.526         80.7867 
       0.582926         143.961         78.9861 
       0.589034         142.006         77.2377 
       0.595184         140.308         75.5256 
       0.601379         138.692         73.8489 
       0.607522          135.66         72.2324 
       0.613639         135.129         70.6678 
       0.619772         132.189         69.1436 
       0.625918         130.782         67.6611 
       0.632068          129.31         66.2228 
       0.638161         128.113         64.8423 
         0.6443          126.37         63.4961 
       0.650464         124.991         62.1873 
       0.656582          123.28          60.927 
       0.662703           121.5         59.7018 
       0.668861         119.822         58.5023 
       0.675024           118.5         57.3323 
       0.681124         117.559         56.2042 
       0.687237         115.412         55.1031 
       0.693381          113.94         54.0264 
       0.699536         112.993         52.9773 
       0.705665         113.126         51.9623 
       0.711789         110.288         50.9765 
       0.717957         109.857         50.0109 
        0.72409         108.233         49.0765 
       0.730186         106.487          48.172 
       0.736317         106.093         47.2855 
       0.742472         105.177         46.4176 
       0.748622         104.109         45.5719 
        0.75476         103.087         44.7489 
       0.760888         101.633         43.9473 
       0.767043         100.923         43.1623 
       0.773185         99.7864         42.3984 
       0.779291         98.6487         41.6577 
       0.785407         97.9923          40.934 
       0.791564         97.0128         40.2234 
       0.797719         95.4865         39.5304 
       0.803834         95.0751         38.8584 
       0.809972         93.6724         38.1999 
       0.816124         93.2972         37.5553 
       0.822261         92.4437         36.9276 
       0.828378         91.6263         36.3161 
       0.834502         90.9513          35.718 
       0.840667         89.8856         35.1297 
       0.846816         88.8386         34.5563 
       0.852925         88.2009         33.9994 
       0.859047         87.0847         33.4537 
       0.865192         86.6672         32.9184 
       0.871341         85.9937         32.3945 
       0.877463           84.84         31.8845 
       0.883569          84.326         31.3869 
       0.889708         83.7628         30.8974 
       0.895864         83.0705         30.4173 
       0.902008         82.3328         29.9485 
       0.908149         81.8306         29.4899 
       0.914301          80.984         29.0403 
       0.920448         80.4254         28.6006 
       0.926574         79.7331         28.1717 
       0.932687         79.4956         27.7525 
       0.938823         78.2268         27.3404 
       0.944975         77.7052         26.9358 
       0.951105         77.1388          26.541 
       0.957225         76.2248         26.1548 
       0.963368         75.9782         25.7751 
       0.969511         75.5941         25.4029 
       0.975621         75.1545         25.0402 
       0.981748         74.3877         24.6837 
       0.987916         73.7659          24.332 
        0.99406         73.3138         23.9884 
        1.00019         72.6151         23.6523 
        1.00632         72.2339         23.3229 
        1.01246         71.6387         22.9994 
        1.01859         70.7007         22.6826 
        1.02471         70.8313         22.3722 
        1.03085         70.0711         22.0666 
        1.03698         69.6138         21.7674 
        1.04314         68.9562         21.4726 
        1.04929         68.5437         21.1839 
        1.05541         67.9071         20.9017 
        1.06154         67.8055          20.624 
        1.06769         67.2726          20.351 
        1.07382         66.9728         20.0838 
        1.07993         66.5344         19.8221 
        1.08607         65.9552          19.564 
        1.09222         65.6227         19.3103 
        1.09836         65.1297         19.0614 
        1.10449         64.7352         18.8172 
        1.11063          64.192         18.5771 
        1.11677         63.8344         18.3413 
         1.1229          63.323           18.11 
        1.12903         62.5726         17.8825 
        1.13518         62.8457         17.6588 
        1.14131         62.3787         17.4391 
        1.14745         61.6107         17.2232 
        1.15359          61.477          17.011 
        1.15973         60.9285         16.8023 
        1.16584         60.5716         16.5981 
        1.17197         60.2187          16.397 
        1.17811         59.9402         16.1987 
        1.18424         59.3709         16.0042 
        1.19038         59.0609         15.8124 
        1.19652          58.878         15.6238 
        1.20267         58.3462         15.4383 
        1.20881         58.0646         15.2559 
        1.21495         57.5842         15.0768 
        1.22108         57.3253         14.9006 
         1.2272         56.7692         14.7276 
        1.23334           56.57          14.557 
        1.23949         56.4442         14.3887 
        1.24562         55.9591         14.2235 
        1.25174         55.7365         14.0612 
        1.25789         55.4677          13.901 
        1.26402          55.028         13.7436 
        1.27014         54.5235          13.589 
        1.27628         54.3698         13.4363 
        1.28244         53.9591         13.2857 
        1.28858         53.7495         13.1376 
        1.29471         53.5596         12.9921 
        1.30084          53.226          12.849 
        1.30697         52.8462         12.7079 
        1.31312         52.4778         12.5686 
        1.31925         52.3594         12.4319 
        1.32537         52.1017         12.2974 
        1.33151         51.5731         12.1644 
        1.33765         51.4661         12.0334 
        1.34378         51.1435         11.9047 
        1.34992         50.7981         11.7777 
        1.35606         50.5255         11.6524 
         1.3622         50.1956         11.5291 
        1.36833         49.9853         11.4079 
        1.37445         49.8281         11.2885 
        1.38059          49.462         11.1705 
        1.38675         49.1513         11.0539 
        1.39288         48.9725         10.9394 
        1.39901         48.7079         10.8266 
        1.40515         48.4336         10.7151 
         1.4113         48.2587         10.6053 
        1.41742         47.9714         10.4974 
        1.42355         47.6518         10.3909 
         1.4297         47.4495         10.2855 
        1.43585         47.2325         10.1816 
        1.44198          46.935         10.0796 
        1.44809         46.7749         9.97917 
        1.45423         46.5441         9.87975 
        1.46036         46.3326         9.78186 
        1.46649          46.042         9.68528 
        1.47263         45.7598         9.58993 
        1.47877         45.6268         9.49591 
        1.48491         45.5317         9.40301 
        1.49104         45.1321         9.31156 
        1.49718         44.7063         9.22126 
        1.50333         44.6651         9.13203 
        1.50947         44.4891         9.04416 
         1.5156          44.191         8.95758 
        1.52172         44.0217         8.87214 
        1.52787         43.9499         8.78765 
          1.534         43.6297         8.70436 
        1.54013         43.3782         8.62225 
        1.54627         43.2388         8.54105 
        1.55241         42.9142         8.46089 
        1.55855         42.7321         8.38187 
        1.56467         42.3624         8.30409 
         1.5708         42.4207         8.22708 
        1.57695         42.1175         8.15093 
        1.58308         41.9406         8.07593 
        1.58922          41.911         8.00183 
        1.59535         41.6522         7.92869 
         1.6015         41.2908         7.85636 
        1.60764         41.1318         7.78498 
        1.61376         40.9564         7.71469 
        1.61989         40.6612         7.64521 
        1.62604         40.5992         7.57643 
        1.63218         40.4638         7.50855 
        1.63831         40.2192         7.44167 
        1.64444         40.0229         7.37557 
        1.65059         39.7466         7.31013 
        1.65673         39.5681         7.24555 
        1.66285         39.4034         7.18194 
        1.66898         39.1929         7.11908 
        1.67512         39.0382         7.05685 
        1.68127         38.8029         6.99531 
         1.6874         38.7106         6.93465 
        1.69353         38.4672         6.87474 
        1.69967         38.2954         6.81541 
        1.70581         38.2396          6.7568 
        1.71193         38.0231         6.69911 
        1.71806         37.7211         6.64198 
        1.72421         37.5813          6.5854 
        1.73035         37.3924         6.52954 
        1.73649         37.1617         6.47435 
        1.74262         37.0887         6.41985 
        1.74876         37.0283         6.36593 
        1.75489         36.7716         6.31275 
        1.76101         36.5868          6.2602 
        1.76715         36.4443         6.20817 
        1.77329         36.2769         6.15667 
        1.77943         36.1426         6.10574 
        1.78557         35.9394         6.05546 
        1.79171         35.7512         6.00574 
        1.79785         35.5879         5.95657 
        1.80399         35.5024         5.90796 
        1.81012         35.3384         5.85997 
        1.81625         35.0856         5.81252 
        1.82239         35.0062         5.76554 
        1.82853          34.748          5.7191 
        1.83466         34.6797         5.67322 
        1.84078         34.4012          5.6279 
        1.84692         34.3226         5.58299 
        1.85306         34.1442         5.53853 
         1.8592         33.9939         5.49462 
        1.86533         33.8433         5.45121 
        1.87147         33.7428         5.40823 
        1.87761         33.6339         5.36569 
        1.88375         33.4484         5.32366 
        1.88988         33.3658         5.28213 
        1.89601         33.1414         5.24102 
        1.90215         33.0355         5.20032 
        1.90829         32.9654         5.16007 
        1.91442         32.7337         5.12024 
        1.92056         32.6514         5.08087 
         1.9267          32.408         5.04188 
        1.93284         32.2446         5.00328 
        1.93897         32.1995         4.96515 
        1.94509         31.9978         4.92751 
        1.95123         31.9041         4.89016 
        1.95737         31.6961         4.85318 
        1.96349         31.5993         4.81667 
        1.96964         31.4522         4.78044 
        1.97578         31.3481         4.74456 
        1.98192         31.1713         4.70913 
        1.98805         31.0772         4.67405 
        1.99419         30.8891         4.63934 
        2.00033          30.752         4.60496 
        2.00647          30.646         4.57094 
         2.0126         30.5127         4.53732 
        2.01874         30.4179         4.50399 
        2.02488         30.3298         4.47096 
        2.03101         30.1126         4.43833 
        2.03714         29.9982         4.40606 
        2.04328         29.8504         4.37407 
        2.04941         29.7631         4.34243 
        2.05554         29.6092         4.31112 
        2.06167         29.5075         4.28008 
        2.06781         29.3665         4.24934 
        2.07396         29.2646         4.21887 
        2.08009         29.1728         4.18874 
        2.08622         28.9909         4.15895 
        2.09237         28.8652         4.12938 
        2.09851         28.7471          4.1001 
        2.10464         28.6909         4.07116 
        2.11077         28.4967         4.04252 
        2.11691         28.4085         4.01411 
        2.12305         28.3001         3.98596 
        2.12918         28.2528         3.95816 
        2.13531         28.0818         3.93061 
        2.14145         28.0313         3.90327 
         2.1476         27.8249         3.87616 
        2.15372         27.6964         3.84944 
        2.15985         27.5843         3.82294 
        2.16599         27.5555         3.79663 
        2.17213         27.4478         3.77058 
        2.17827          27.212         3.74479 
         2.1844          27.117         3.71927 
        2.19054         27.0145         3.69397 
        2.19666         26.9255         3.66895 
         2.2028         26.8227         3.64413 
        2.20893         26.7437         3.61954 
        2.21508         26.6222         3.59514 
        2.22122         26.4284         3.57096 
        2.22736         26.4147         3.54706 
        2.23349         26.2761         3.52338 
        2.23962         26.1548         3.49991 
        2.24577         26.0273         3.47663 
         2.2519         25.9757         3.45359 
        2.25802         25.8192          3.4308 
        2.26417         25.7765         3.40815 
        2.27031         25.6716         3.38569 
        2.27644         25.5154          3.3635 
        2.28257         25.4234         3.34151 
        2.28872         25.3038         3.31967 
        2.29486         25.2688         3.29803 
        2.30099         25.1331         3.27663 
        2.30712         25.0575         3.25542 
        2.31326         24.9948         3.23435 
         2.3194         24.8536         3.21349 
        2.32553         24.7164         3.19284 
        2.33166         24.6064         3.17239 
         2.3378         24.5167         3.15208 
        2.34394         24.4148         3.13195 
        2.35007         24.3171         3.11202 
        2.35619         24.2275          3.0923 
        2.36233         24.1868         3.07269 
        2.36848         24.0053         3.05322 
        2.37462         23.9289         3.03395 
        2.38075         23.8532         3.01487 
        2.38689         23.7949         2.99595 
        2.39303         23.6414         2.97718 
        2.39916         23.5302          2.9586 
        2.40529         23.4399         2.94018 
        2.41143          23.362          2.9219 
        2.41757         23.2861         2.90377 
         2.4237         23.1575         2.88583 
        2.42983         23.0736         2.86804 
        2.43598         23.0108         2.85035 
        2.44211         22.8924         2.83285 
        2.44823         22.7815         2.81553 
        2.45437         22.7113          2.7983 
        2.46052         22.6377         2.78121 
        2.46665         22.5716         2.76429 
        2.47279         22.4413         2.74752 
        2.47892         22.3619         2.73088 
        2.48507         22.2754         2.71436 
         2.4912         22.2288         2.69801 
