# k  (h/Mpc)    Pcb(k)  (Mpc/h)^3    Pcb_linear(k)  (Mpc/h)^3
     0.00783031         4330.14         4358.95 
       0.013688         5084.62         5164.82 
       0.019231         5033.65         5071.66 
      0.0249154         4582.39         4569.47 
      0.0312784         3867.68         3874.48 
      0.0375637         3246.72         3264.73 
      0.0433917         2843.41         2838.97 
      0.0492413         2532.44         2540.35 
      0.0555754         2321.93          2315.8 
      0.0619321         2103.27         2135.28 
       0.067871         1957.17         1966.62 
      0.0738098         1780.28         1781.87 
      0.0800417         1583.03         1576.91 
      0.0862327         1383.71         1381.77 
      0.0921407         1226.63         1221.76 
      0.0982031         1108.04         1094.11 
       0.104506          1001.2         999.905 
       0.110769         938.974         935.378 
       0.116806         900.289         887.432 
       0.122832          845.63         841.516 
       0.129052         796.231         788.301 
       0.135211         744.239         728.247 
       0.141259         677.748         665.977 
       0.147318         614.155         606.386 
       0.153489         566.849          553.98 
       0.159709         531.764          512.37 
       0.165845         491.263         481.844 
       0.171974         478.786         458.935 
       0.178125         458.607         439.649 
       0.184229         432.426         420.669 
        0.19034         416.893         399.731 
       0.196428         395.584         376.647 
       0.202534         365.087         352.449 
       0.208729          349.68         328.734 
       0.214876         331.527         307.731 
       0.220989         308.075         290.232 
       0.227147         299.646         275.981 
        0.23329         288.147         264.353 
       0.239377         280.232         254.246 
       0.245482          266.92         244.445 
       0.251667         254.798         234.159 
       0.257832         249.354         223.367 
       0.263955         234.154         212.393 
       0.270079         223.598         201.691 
        0.27624         212.839         191.719 
       0.282372         205.458         182.905 
        0.28843         202.386         175.337 
       0.294538         193.035          168.66 
       0.300721         185.143         162.558 
        0.30691         181.705         156.756 
       0.313033         173.852          151.08 
       0.319153         170.278         145.359 
       0.325316         163.558         139.604 
        0.33145         157.926         134.004 
       0.337538         152.316         128.728 
       0.343633         147.445         123.832 
       0.349808         142.582         119.306 
       0.355968         138.634         115.188 
       0.362074          135.62         111.407 
       0.368217          132.25         107.809 
       0.374374         128.904         104.315 
       0.380519         123.383         100.897 
       0.386598           120.4         97.5775 
       0.392688         116.655         94.3347 
        0.39888         114.392         91.1673 
       0.405048         111.566          88.175 
       0.411186         109.164         85.3728 
       0.417313         106.223         82.7516 
       0.423458         103.363         80.2728 
       0.429607         101.223         77.9115 
       0.435692         99.5456         75.6671 
       0.441815         96.2258         73.4786 
       0.447964         93.2126         71.3401 
       0.454126         91.4669         69.2615 
       0.460267         90.5798         67.2623 
       0.466387         88.2002         65.3479 
        0.47254         87.0247          63.507 
       0.478662         83.9475         61.7615 
       0.484765         82.5174         60.1007 
       0.490885         80.3964          58.504 
       0.497035         79.6074         56.9594 
       0.503198         77.7344         55.4657 
       0.509342         75.6598         54.0246 
       0.515458         74.5991         52.6338 
       0.521598         72.7301         51.2815 
       0.527764         71.8214         49.9702 
       0.533884         70.9541         48.7164 
           0.54         69.0979         47.5106 
       0.546137         67.2522         46.3447 
       0.552299         66.1061         45.2159 
       0.558452         64.7968         44.1285 
       0.564573         64.4188         43.0827 
       0.570708         62.5094          42.068 
       0.576825          61.845         41.0874 
       0.582926         60.9989         40.1387 
       0.589034         59.8027         39.2179 
       0.595184         58.9842           38.32 
       0.601379         57.4804         37.4451 
       0.607522          56.497          36.606 
       0.613639         55.9187          35.797 
       0.619772         54.8093         35.0112 
       0.625918         54.0497         34.2476 
       0.632068         53.3568         33.5061 
       0.638161          52.312         32.7931 
         0.6443         51.7996         32.0956 
       0.650464         50.5676         31.4158 
       0.656582         50.3205         30.7607 
       0.662703         49.6103         30.1242 
       0.668861         48.4071         29.5023 
       0.675024         48.1165         28.8976 
       0.681124         47.5283         28.3161 
       0.687237         46.5591         27.7495 
       0.693381         45.9886         27.1959 
       0.699536         45.5488         26.6566 
       0.705665         44.7829         26.1342 
       0.711789         44.0814         25.6265 
       0.717957         43.3792         25.1288 
        0.72409         42.9251         24.6472 
       0.730186         42.6703         24.1812 
       0.736317          41.855         23.7247 
       0.742472         41.3518         23.2784 
       0.748622         40.7191          22.844 
        0.75476         40.0085         22.4217 
       0.760888         39.9405         22.0107 
       0.767043         39.1394         21.6084 
       0.773185         38.6976         21.2171 
       0.779291         38.2088         20.8377 
       0.785407         37.6834          20.467 
       0.791564         37.6303         20.1031 
       0.797719         36.8659         19.7482 
       0.803834          36.618         19.4042 
       0.809972         36.0767         19.0672 
       0.816124         35.6931         18.7375 
       0.822261         35.2362         18.4165 
       0.828378          35.022          18.104 
       0.834502         34.5867         17.7986 
       0.840667         34.2648         17.4982 
       0.846816         33.6745         17.2057 
       0.852925         33.4787         16.9217 
       0.859047         33.2788         16.6435 
       0.865192         32.7228         16.3707 
       0.871341         32.3388         16.1039 
       0.877463          32.023         15.8442 
       0.883569         31.8805          15.591 
       0.889708         31.4599          15.342 
       0.895864         31.1018         15.0978 
       0.902008         30.7782         14.8595 
       0.908149         30.4511         14.6264 
       0.914301         30.2222          14.398 
       0.920448         29.9306         14.1747 
       0.926574         29.5277          13.957 
       0.932687         29.2609         13.7443 
       0.938823         28.8906         13.5352 
       0.944975         28.6623         13.3301 
       0.951105         28.4347         13.1299 
       0.957225          28.221         12.9342 
       0.963368         27.8703         12.7419 
       0.969511         27.6339         12.5534 
       0.975621         27.4213         12.3698 
       0.981748         27.0931         12.1894 
       0.987916          26.917         12.0115 
        0.99406         26.5816         11.8377 
        1.00019         26.4177         11.6678 
        1.00632         26.2032         11.5014 
        1.01246         25.9516         11.3379 
        1.01859         25.7034          11.178 
        1.02471         25.4674         11.0213 
        1.03085         25.3435          10.867 
        1.03698          25.151         10.7161 
        1.04314         24.8895         10.5673 
        1.04929         24.5904         10.4218 
        1.05541         24.5117         10.2796 
        1.06154         24.3269         10.1397 
        1.06769         23.9786         10.0022 
        1.07382         23.8471         9.86764 
        1.07993         23.6401         9.73591 
        1.08607         23.4646         9.60604 
        1.09222         23.2835         9.47842 
        1.09836         23.0466         9.35327 
        1.10449          22.956         9.23053 
        1.11063         22.7451         9.10986 
        1.11677         22.6809         8.99139 
         1.1229         22.4292         8.87524 
        1.12903         22.2304         8.76105 
        1.13518         22.1385         8.64877 
        1.14131         21.9473         8.53852 
        1.14745         21.6946         8.43026 
        1.15359         21.4962         8.32386 
        1.15973         21.3929         8.21926 
        1.16584         21.2168         8.11692 
        1.17197         20.9806         8.01619 
        1.17811         20.8956         7.91685 
        1.18424         20.6707         7.81949 
        1.19038         20.6164         7.72348 
        1.19652         20.3992         7.62913 
        1.20267         20.3209         7.53635 
        1.20881         20.1234         7.44513 
        1.21495         20.0228         7.35556 
        1.22108         19.9425         7.26748 
         1.2272         19.7701         7.18104 
        1.23334         19.6463         7.09582 
        1.23949         19.4798         7.01177 
        1.24562          19.282         6.92932 
        1.25174         19.2268         6.84832 
        1.25789         19.1212         6.76836 
        1.26402         18.9876         6.68983 
        1.27014         18.8754         6.61273 
        1.27628         18.6824         6.53661 
        1.28244         18.6722         6.46155 
        1.28858         18.4663         6.38777 
        1.29471         18.3083          6.3153 
        1.30084         18.1918         6.24403 
        1.30697         18.1094         6.17374 
        1.31312         17.9706         6.10444 
        1.31925         17.8576         6.03641 
        1.32537         17.7144         5.96949 
        1.33151         17.5995         5.90335 
        1.33765         17.5664         5.83824 
        1.34378          17.449         5.77425 
        1.34992         17.3232         5.71117 
        1.35606          17.165          5.6489 
         1.3622         17.0673         5.58767 
        1.36833         17.0187         5.52749 
        1.37445          16.893         5.46823 
        1.38059         16.7873         5.40966 
        1.38675         16.6843          5.3518 
        1.39288          16.557         5.29502 
        1.39901         16.4585         5.23909 
        1.40515         16.3888         5.18384 
         1.4113          16.292          5.1294 
        1.41742         16.2137         5.07596 
        1.42355         16.0756         5.02317 
         1.4297         15.9808         4.97098 
        1.43585         15.8952         4.91955 
        1.44198         15.8548         4.86904 
        1.44809         15.7385         4.81934 
        1.45423          15.637         4.77015 
        1.46036         15.5465         4.72173 
        1.46649         15.4549         4.67396 
        1.47263         15.3752         4.62682 
        1.47877         15.2861         4.58035 
        1.48491         15.2095         4.53444 
        1.49104         15.1131         4.48926 
        1.49718         15.0558         4.44465 
        1.50333         14.9821         4.40059 
        1.50947         14.8935          4.3572 
         1.5156         14.8121         4.31447 
        1.52172         14.7075          4.2723 
        1.52787         14.6747         4.23062 
          1.534         14.5841         4.18954 
        1.54013         14.5181         4.14905 
        1.54627         14.3925         4.10901 
        1.55241         14.3033          4.0695 
        1.55855         14.2525         4.03057 
        1.56467         14.2129         3.99225 
         1.5708         14.1277         3.95432 
        1.57695         14.0579         3.91682 
        1.58308          13.947          3.8799 
        1.58922         13.8902         3.84342 
        1.59535         13.8261         3.80743 
         1.6015         13.7147         3.77185 
        1.60764         13.6698         3.73674 
        1.61376         13.6216         3.70217 
        1.61989         13.5076         3.66801 
        1.62604         13.4752         3.63421 
        1.63218         13.4134         3.60085 
        1.63831          13.312         3.56799 
        1.64444         13.2462         3.53552 
        1.65059         13.1862         3.50338 
        1.65673         13.1425         3.47167 
        1.66285         13.0373         3.44045 
        1.66898         13.0185          3.4096 
        1.67512         12.9781         3.37906 
        1.68127         12.8798         3.34887 
         1.6874         12.8452         3.31912 
        1.69353         12.7135         3.28975 
        1.69967         12.6778         3.26066 
        1.70581         12.6344         3.23193 
        1.71193         12.5529         3.20366 
        1.71806         12.5098         3.17566 
        1.72421         12.4432         3.14795 
        1.73035         12.3878         3.12059 
        1.73649         12.3452         3.09357 
        1.74262         12.2543         3.06688 
        1.74876         12.2181          3.0405 
        1.75489         12.1709         3.01447 
        1.76101         12.0731         2.98876 
        1.76715          12.064         2.96331 
        1.77329         11.9798         2.93812 
        1.77943         11.9197         2.91322 
        1.78557         11.9025         2.88864 
        1.79171         11.8114         2.86434 
        1.79785         11.7669         2.84032 
        1.80399         11.7012         2.81657 
        1.81012         11.6657         2.79313 
        1.81625         11.6037         2.76996 
        1.82239         11.5477         2.74702 
        1.82853         11.4932         2.72435 
        1.83466          11.422         2.70196 
        1.84078         11.3907         2.67985 
        1.84692         11.3831         2.65794 
        1.85306          11.313         2.63625 
         1.8592         11.2682         2.61484 
        1.86533         11.1795         2.59368 
        1.87147         11.1426         2.57272 
        1.87761          11.108         2.55199 
        1.88375         11.0709         2.53151 
        1.88988          10.982         2.51128 
        1.89601         10.9667         2.49125 
        1.90215         10.8931         2.47143 
        1.90829         10.8364         2.45183 
        1.91442         10.7907         2.43244 
        1.92056         10.7814         2.41328 
         1.9267         10.7361         2.39431 
        1.93284         10.7113         2.37553 
        1.93897          10.628         2.35698 
        1.94509          10.586         2.33867 
        1.95123         10.5396         2.32051 
        1.95737         10.5044         2.30253 
        1.96349         10.4362         2.28479 
        1.96964         10.4166         2.26718 
        1.97578         10.3804         2.24975 
        1.98192         10.3429         2.23253 
        1.98805         10.2668          2.2155 
        1.99419         10.2441         2.19864 
        2.00033         10.2009         2.18194 
        2.00647         10.1445         2.16543 
         2.0126         10.1175         2.14911 
        2.01874          10.064         2.13293 
        2.02488         10.0117         2.11691 
        2.03101         10.0073         2.10108 
        2.03714         9.93973         2.08543 
        2.04328         9.89531         2.06992 
        2.04941         9.85109         2.05457 
        2.05554         9.83352          2.0394 
        2.06167         9.79992         2.02435 
        2.06781         9.75673         2.00946 
        2.07396         9.72798         1.99469 
        2.08009         9.64858          1.9801 
        2.08622         9.64629         1.96567 
        2.09237          9.6127         1.95136 
        2.09851          9.5465         1.93718 
        2.10464         9.53068         1.92317 
        2.11077         9.46318         1.90931 
        2.11691         9.45071         1.89556 
        2.12305         9.40497         1.88194 
        2.12918         9.34554         1.86849 
        2.13531         9.33171         1.85517 
        2.14145         9.28628         1.84195 
         2.1476         9.25691         1.82884 
        2.15372         9.23317         1.81593 
        2.15985         9.18183         1.80312 
        2.16599         9.15813          1.7904 
        2.17213         9.14657         1.77782 
        2.17827         9.08581         1.76536 
         2.1844         9.05709         1.75303 
        2.19054         9.02768         1.74082 
        2.19666         8.99602         1.72874 
         2.2028         8.96687         1.71676 
        2.20893          8.9141         1.70489 
        2.21508         8.89273         1.69311 
        2.22122          8.8359         1.68145 
        2.22736         8.81509         1.66992 
        2.23349         8.78049         1.65849 
        2.23962         8.75923         1.64717 
        2.24577         8.73888         1.63595 
         2.2519         8.70549         1.62484 
        2.25802         8.63591         1.61386 
        2.26417         8.63889         1.60294 
        2.27031         8.60835         1.59212 
        2.27644         8.58399         1.58143 
        2.28257         8.51182         1.57083 
        2.28872         8.50288         1.56032 
        2.29486         8.47714          1.5499 
        2.30099         8.44473          1.5396 
        2.30712         8.38908         1.52938 
        2.31326         8.36652         1.51924 
         2.3194         8.33546          1.5092 
        2.32553          8.3163         1.49927 
        2.33166          8.2722         1.48942 
         2.3378         8.25645         1.47966 
        2.34394         8.21959         1.46998 
        2.35007         8.20068         1.46039 
        2.35619         8.16582         1.45091 
        2.36233         8.11925         1.44148 
        2.36848         8.09657         1.43212 
        2.37462         8.07028         1.42287 
        2.38075         8.04212          1.4137 
        2.38689         8.02643         1.40461 
        2.39303         7.98166         1.39559 
        2.39916         7.97239         1.38667 
        2.40529         7.94595         1.37782 
        2.41143         7.90388         1.36905 
        2.41757         7.86842         1.36034 
         2.4237         7.85365         1.35173 
        2.42983         7.82834          1.3432 
        2.43598         7.79656         1.33471 
        2.44211         7.76433         1.32631 
        2.44823         7.74179           1.318 
        2.45437         7.71099         1.30974 
        2.46052         7.70709         1.30155 
        2.46665         7.67271         1.29344 
        2.47279         7.63688          1.2854 
        2.47892         7.60487         1.27742 
        2.48507         7.58386          1.2695 
         2.4912         7.56812         1.26167 
