# k  (h/Mpc)    P(k)  (Mpc/h)^3    P_linear(k)  (Mpc/h)^3
     0.00783031         285.928         288.494 
       0.013688         381.132         382.411 
       0.019231         410.477         410.901 
      0.0249154           400.5         402.229 
      0.0312784         369.175          369.59 
      0.0375637         331.555         331.126 
      0.0433917         298.824          299.06 
      0.0492413         273.827          273.58 
      0.0555754         252.586         253.108 
      0.0619321         237.889         237.265 
       0.067871          223.38         223.793 
      0.0738098         209.035         209.553 
      0.0800417         192.206         193.005 
      0.0862327         175.191         175.544 
      0.0921407         159.146         159.265 
      0.0982031         144.058         144.338 
       0.104506          132.01          131.68 
       0.110769         122.417         122.168 
       0.116806         115.165         115.388 
       0.122832         110.159         110.081 
       0.129052         104.851         105.132 
       0.135211         99.6133         99.9717 
       0.141259         94.2173         94.2999 
       0.147318         88.2833         88.1062 
       0.153489         81.6893         81.6795 
       0.159709         75.6826         75.6091 
       0.165845         70.9162         70.4323 
       0.171974          66.361         66.2494 
       0.178125          63.147         62.9817 
       0.184229         60.6997         60.4164 
        0.19034         58.1282         58.1963 
       0.196428         56.1613         56.0239 
       0.202534         54.0834         53.6811 
       0.208729         51.3148         51.0777 
       0.214876         48.4242         48.3487 
       0.220989         46.1019         45.6508 
       0.227147         43.2482         43.1216 
        0.23329         41.0752         40.9104 
       0.239377         39.3156         39.0701 
       0.245482         37.6573         37.5386 
       0.251667           36.55         36.2156 
       0.257832         35.2706         35.0108 
       0.263955          34.108         33.8248 
       0.270079         32.8928         32.5886 
        0.27624         31.7542         31.2837 
       0.282372         30.4134         29.9534 
        0.28843         29.0236         28.6636 
       0.294538         27.8281         27.4415 
       0.300721         26.8474         26.3256 
        0.30691         25.7322         25.3415 
       0.313033         24.9055         24.4866 
       0.319153         23.9324         23.7176 
       0.325316         23.4769         22.9915 
        0.33145          22.718         22.2824 
       0.337538         22.0093         21.5735 
       0.343633         21.2463         20.8531 
       0.349808         20.5742          20.124 
       0.355968          19.874         19.4133 
       0.362074         19.1928         18.7446 
       0.368217         18.5918         18.1198 
       0.374374         17.9432         17.5457 
       0.380519         17.4904         17.0214 
       0.386598         17.0319         16.5388 
       0.392688         16.6089           16.08 
        0.39888         16.1268         15.6268 
       0.405048         15.7052         15.1808 
       0.411186         15.2903         14.7415 
       0.417313         14.7891         14.3087 
       0.423458         14.4093          13.886 
       0.429607         13.9673         13.4807 
       0.435692          13.579         13.1004 
       0.441815         13.2428         12.7398 
       0.447964         12.9719         12.3998 
       0.454126         12.5633         12.0769 
       0.460267         12.2616         11.7687 
       0.466387          11.927         11.4715 
        0.47254         11.6779         11.1801 
       0.478662         11.4163         10.8955 
       0.484765          11.107         10.6181 
       0.490885         10.8317         10.3477 
       0.497035         10.6523         10.0853 
       0.503198         10.3649         9.83271 
       0.509342         10.1308         9.59174 
       0.515458         9.87873         9.36282 
       0.521598         9.67329         9.14253 
       0.527764         9.43401         8.92928 
       0.533884         9.26702         8.72415 
           0.54         9.05702         8.52498 
       0.546137         8.87764         8.33039 
       0.552299         8.68766         8.13989 
       0.558452         8.45177         7.95473 
       0.564573         8.31118           7.776 
       0.570708          8.1406          7.6028 
       0.576825         7.94324          7.4363 
       0.582926         7.80912         7.27602 
       0.589034         7.59253         7.12082 
       0.595184         7.46388         6.96945 
       0.601379         7.30954         6.82157 
       0.607522         7.19671         6.67913 
       0.613639         7.09008          6.5412 
       0.619772         6.90566         6.40656 
       0.625918          6.8009         6.27513 
       0.632068         6.69041         6.14716 
       0.638161         6.53799          6.0239 
         0.6443         6.40744         5.90332 
       0.650464         6.27218         5.78594 
       0.656582         6.19163         5.67289 
       0.662703         6.08009         5.56304 
       0.668861         5.98415         5.45556 
       0.675024         5.85753         5.35081 
       0.681124         5.74386         5.24978 
       0.687237         5.66576         5.15106 
       0.693381         5.57161         5.05438 
       0.699536         5.42825         4.96001 
       0.705665         5.35006          4.8685 
       0.711789         5.26985         4.77947 
       0.717957         5.17227         4.69214 
        0.72409         5.08989         4.60756 
       0.730186         5.00619         4.52562 
       0.736317         4.95322         4.44527 
       0.742472         4.86891         4.36658 
       0.748622         4.77817         4.28988 
        0.75476         4.67939         4.21518 
       0.760888         4.61495         4.14238 
       0.767043         4.56479         4.07102 
       0.773185          4.4715         4.00151 
       0.779291          4.4142         3.93405 
       0.785407         4.34497         3.86807 
       0.791564         4.27794         3.80321 
       0.797719          4.2206         3.73991 
       0.803834         4.16196         3.67848 
       0.809972         4.10207         3.61823 
       0.816124         4.02803         3.55921 
       0.822261           3.961         3.50169 
       0.828378         3.91429         3.44563 
       0.834502         3.86994         3.39076 
       0.840667         3.79112         3.33674 
       0.846816         3.73725         3.28406 
       0.852925         3.70211         3.23286 
       0.859047         3.64905         3.18266 
       0.865192         3.59856         3.13337 
       0.871341         3.54887         3.08511 
       0.877463         3.51024         3.03809 
       0.883569          3.4469         2.99219 
       0.889708         3.39491         2.94701 
       0.895864         3.35701         2.90266 
       0.902008         3.30265         2.85933 
       0.908149         3.26353         2.81693 
       0.914301         3.20405         2.77532 
       0.920448         3.16799          2.7346 
       0.926574         3.12305         2.69486 
       0.932687         3.08838         2.65599 
       0.938823         3.05879         2.61776 
       0.944975         3.01451         2.58021 
       0.951105         2.98026         2.54353 
       0.957225         2.95439         2.50764 
       0.963368         2.91166         2.47232 
       0.969511         2.86929         2.43769 
       0.975621         2.82497         2.40392 
       0.981748         2.80202         2.37071 
       0.987916         2.76601         2.33792 
        0.99406         2.72348         2.30588 
        1.00019         2.69937         2.27452 
        1.00632         2.66081         2.24376 
        1.01246         2.63054         2.21354 
        1.01859         2.60325         2.18393 
        1.02471         2.56771          2.1549 
        1.03085         2.54455         2.12631 
        1.03698         2.50776          2.0983 
        1.04314         2.48347         2.07068 
        1.04929         2.44931         2.04363 
        1.05541         2.42547         2.01718 
        1.06154         2.39571         1.99113 
        1.06769         2.36886         1.96551 
        1.07382         2.34384         1.94043 
        1.07993         2.30837         1.91585 
        1.08607         2.29587         1.89159 
        1.09222         2.26465         1.86774 
        1.09836         2.24936         1.84433 
        1.10449         2.22214         1.82135 
        1.11063         2.19124         1.79874 
        1.11677         2.16551         1.77653 
         1.1229         2.14364         1.75474 
        1.12903         2.11776         1.73329 
        1.13518         2.10294         1.71219 
        1.14131         2.07322         1.69146 
        1.14745         2.03978         1.67109 
        1.15359         2.03122         1.65105 
        1.15973         1.99995         1.63133 
        1.16584         1.99397         1.61203 
        1.17197         1.96802         1.59301 
        1.17811         1.94812         1.57425 
        1.18424         1.93643         1.55584 
        1.19038         1.90939         1.53768 
        1.19652         1.88697         1.51982 
        1.20267         1.87474         1.50224 
        1.20881         1.84827         1.48495 
        1.21495         1.83684         1.46796 
        1.22108         1.81873         1.45124 
         1.2272         1.80502         1.43483 
        1.23334          1.7823         1.41863 
        1.23949         1.76301         1.40264 
        1.24562         1.74974         1.38695 
        1.25174         1.73135         1.37152 
        1.25789         1.71644         1.35628 
        1.26402         1.69352         1.34131 
        1.27014         1.67832         1.32659 
        1.27628         1.67064         1.31206 
        1.28244         1.64612         1.29772 
        1.28858         1.63353         1.28361 
        1.29471         1.62069         1.26975 
        1.30084         1.60253          1.2561 
        1.30697         1.58928         1.24264 
        1.31312         1.56664         1.22935 
        1.31925         1.55909         1.21631 
        1.32537         1.54659         1.20347 
        1.33151         1.53352         1.19077 
        1.33765         1.51744         1.17826 
        1.34378         1.49904         1.16596 
        1.34992         1.49336         1.15382 
        1.35606         1.47467         1.14184 
         1.3622         1.46469         1.13004 
        1.36833         1.45055         1.11845 
        1.37445          1.4342         1.10702 
        1.38059         1.42192         1.09572 
        1.38675         1.42031         1.08455 
        1.39288         1.39993         1.07358 
        1.39901         1.38885         1.06277 
        1.40515          1.3782         1.05209 
         1.4113         1.36413         1.04156 
        1.41742         1.35272         1.03121 
        1.42355         1.34856         1.02099 
         1.4297         1.32988         1.01087 
        1.43585         1.32066          1.0009 
        1.44198          1.3151        0.991096 
        1.44809         1.29654        0.981446 
        1.45423         1.28757         0.97189 
        1.46036         1.27769         0.96248 
        1.46649         1.26685        0.953192 
        1.47263         1.25499        0.944019 
        1.47877         1.24381        0.934973 
        1.48491         1.23446        0.926031 
        1.49104         1.22373        0.917226 
        1.49718         1.21715         0.90853 
        1.50333         1.20604        0.899934 
        1.50947         1.19788        0.891467 
         1.5156         1.18706        0.883123 
        1.52172         1.17752        0.874886 
        1.52787          1.1671        0.866738 
          1.534         1.16145        0.858705 
        1.54013         1.14687        0.850782 
        1.54627          1.1394        0.842946 
        1.55241         1.13015        0.835208 
        1.55855         1.12038        0.827578 
        1.56467         1.11601        0.820066 
         1.5708         1.10325        0.812626 
        1.57695         1.09865        0.805268 
        1.58308         1.08942        0.798019 
        1.58922         1.08103        0.790855 
        1.59535         1.07291        0.783782 
         1.6015         1.06488        0.776786 
        1.60764         1.05769        0.769879 
        1.61376         1.04684        0.763076 
        1.61989         1.04173         0.75635 
        1.62604         1.03336        0.749691 
        1.63218         1.02828        0.743117 
        1.63831         1.01765        0.736637 
        1.64444         1.01034        0.730232 
        1.65059         1.00364        0.723889 
        1.65673        0.995895        0.717628 
        1.66285        0.988019         0.71146 
        1.66898        0.983413        0.705362 
        1.67512        0.973664        0.699325 
        1.68127        0.967091        0.693353 
         1.6874        0.962584        0.687464 
        1.69353        0.953702        0.681648 
        1.69967        0.947724        0.675886 
        1.70581        0.941175        0.670193 
        1.71193        0.934355        0.664588 
        1.71806        0.928127        0.659036 
        1.72421        0.921691        0.653536 
        1.73035        0.914282        0.648106 
        1.73649        0.909815        0.642739 
        1.74262        0.903261        0.637437 
        1.74876         0.89595        0.632192 
        1.75489        0.890104        0.627017 
        1.76101        0.882603        0.621902 
        1.76715         0.87787        0.616838 
        1.77329        0.871845        0.611824 
        1.77943        0.865856        0.606863 
        1.78557        0.859898        0.601966 
        1.79171        0.854836        0.597122 
        1.79785        0.848959         0.59233 
        1.80399        0.843126        0.587593 
        1.81012        0.838449        0.582914 
        1.81625        0.831807        0.578288 
        1.82239         0.82801        0.573706 
        1.82853        0.818857        0.569176 
        1.83466        0.815715          0.5647 
        1.84078        0.809463        0.560277 
        1.84692        0.805945        0.555894 
        1.85306        0.800005        0.551553 
         1.8592        0.795499        0.547266 
        1.86533        0.790636        0.543027 
        1.87147        0.785061        0.538828 
        1.87761        0.781215        0.534672 
        1.88375         0.77294        0.530565 
        1.88988        0.770454        0.526505 
        1.89601        0.764688        0.522486 
        1.90215        0.760608        0.518507 
        1.90829        0.754787         0.51457 
        1.91442        0.750264        0.510675 
        1.92056         0.74551        0.506823 
         1.9267        0.740664        0.503007 
        1.93284        0.736779        0.499229 
        1.93897         0.73272        0.495497 
        1.94509        0.727892        0.491811 
        1.95123        0.722232        0.488153 
        1.95737        0.719176        0.484531 
        1.96349          0.7139        0.480954 
        1.96964        0.709567        0.477404 
        1.97578         0.70506        0.473888 
        1.98192        0.703296        0.470415 
        1.98805        0.697852        0.466976 
        1.99419        0.693082        0.463572 
        2.00033        0.689822          0.4602 
        2.00647        0.685304        0.456863 
         2.0126        0.681098        0.453565 
        2.01874        0.677606        0.450294 
        2.02488        0.673847        0.447054 
        2.03101          0.6688        0.443851 
        2.03714        0.664522        0.440682 
        2.04328        0.661683        0.437541 
        2.04941         0.65748        0.434434 
        2.05554        0.653777        0.431359 
        2.06167        0.650474         0.42831 
        2.06781         0.64467         0.42529 
        2.07396        0.641058        0.422295 
        2.08009        0.638043        0.419334 
        2.08622        0.634723        0.416405 
        2.09237        0.633057        0.413498 
        2.09851        0.628975        0.410619 
        2.10464        0.625243        0.407772 
        2.11077        0.620767        0.404956 
        2.11691        0.617172         0.40216 
        2.12305        0.614077        0.399391 
        2.12918         0.61029        0.396654 
        2.13531        0.607132        0.393943 
        2.14145        0.603929        0.391252 
         2.1476        0.600314        0.388582 
        2.15372        0.598458        0.385951 
        2.15985        0.593753        0.383342 
        2.16599        0.589838        0.380749 
        2.17213        0.587679        0.378184 
        2.17827        0.585381        0.375642 
         2.1844        0.582142        0.373127 
        2.19054        0.578749        0.370633 
        2.19666        0.574563        0.368167 
         2.2028        0.572546         0.36572 
        2.20893          0.5693        0.363295 
        2.21508         0.56557        0.360889 
        2.22122        0.562802        0.358504 
        2.22736        0.559781        0.356146 
        2.23349        0.557623        0.353809 
        2.23962        0.554487        0.351492 
        2.24577        0.550293        0.349195 
         2.2519        0.548743        0.346921 
        2.25802        0.545175        0.344671 
        2.26417        0.541952        0.342435 
        2.27031        0.539021        0.340216 
        2.27644        0.537186        0.338024 
        2.28257        0.533726        0.335852 
        2.28872        0.531387        0.333694 
        2.29486        0.528101        0.331556 
        2.30099        0.526008        0.329442 
        2.30712        0.523747        0.327344 
        2.31326        0.520136        0.325262 
         2.3194        0.519915        0.323199 
        2.32553        0.516599        0.321158 
        2.33166        0.513669        0.319135 
         2.3378        0.511352        0.317126 
        2.34394         0.50737        0.315135 
        2.35007        0.505243        0.313163 
        2.35619         0.50255        0.311211 
        2.36233        0.499286        0.309271 
        2.36848        0.498032        0.307344 
        2.37462        0.495126        0.305437 
        2.38075        0.493752        0.303548 
        2.38689        0.490404        0.301674 
        2.39303        0.488982        0.299815 
        2.39916        0.485625        0.297975 
        2.40529        0.483335         0.29615 
        2.41143        0.481604        0.294339 
        2.41757        0.478608        0.292543 
         2.4237        0.476247        0.290765 
        2.42983        0.474436        0.289002 
        2.43598        0.472539        0.287249 
        2.44211        0.470328        0.285513 
        2.44823        0.468585        0.283796 
        2.45437        0.465119        0.282089 
        2.46052        0.464184        0.280394 
        2.46665        0.461421        0.278716 
        2.47279        0.458646        0.277052 
        2.47892        0.456531        0.275401 
        2.48507        0.455066        0.273762 
         2.4912        0.453034        0.272139 
