# k  (h/Mpc)    P(k)  (Mpc/h)^3    P_linear(k)  (Mpc/h)^3
     0.00783031         140.225         141.423 
       0.013688         181.382         182.027 
       0.019231         190.995         191.123 
      0.0249154         182.591         183.134 
      0.0312784         164.643         164.659 
      0.0375637         145.099         144.823 
      0.0433917         129.125         129.034 
      0.0492413         117.081         116.886 
      0.0555754         107.352         107.382 
      0.0619321          100.41          100.16 
       0.067871         93.9938         94.0492 
      0.0738098          87.481         87.5823 
      0.0800417         79.9137         80.0837 
      0.0862327         72.1922         72.2375 
      0.0921407           65.04         65.0166 
      0.0982031         58.4816         58.5039 
       0.104506         53.2273         53.0907 
       0.110769         49.2138         49.1124 
       0.116806         46.2964         46.3319 
       0.122832         44.2071         44.1698 
       0.129052         42.0637         42.1272 
       0.135211          39.862         39.9525 
       0.141259         37.5164         37.5349 
       0.147318         34.9482         34.8959 
       0.153489         32.1952         32.1822 
       0.159709         29.6784         29.6561 
       0.165845         27.6654         27.5404 
       0.171974         25.8828         25.8644 
       0.178125         24.6094          24.578 
       0.184229         23.6339         23.5758 
        0.19034         22.6656         22.6998 
       0.196428         21.8358         21.8239 
       0.202534         20.9471         20.8626 
       0.208729         19.8247         19.7885 
       0.214876         18.6615         18.6677 
       0.220989          17.662          17.572 
       0.227147         16.5659         16.5599 
        0.23329         15.7011         15.6887 
       0.239377         14.9994         14.9739 
       0.245482         14.3852         14.3842 
       0.251667         13.9225         13.8735 
       0.257832         13.4261         13.4022 
       0.263955         12.9642         12.9313 
       0.270079          12.474         12.4352 
        0.27624         11.9883         11.9111 
       0.282372         11.4551         11.3804 
        0.28843         10.9161         10.8707 
       0.294538         10.4454         10.3938 
       0.300721          10.046         9.96279 
        0.30691         9.63642         9.58632 
       0.313033         9.31497          9.2595 
       0.319153         8.96794         8.96447 
       0.325316         8.75732         8.68287 
        0.33145         8.46794         8.40575 
       0.337538         8.18518         8.12689 
       0.343633         7.89068         7.84422 
       0.349808         7.61993         7.55928 
       0.355968         7.34941         7.28386 
       0.362074         7.08594         7.02699 
       0.368217         6.85096         6.78835 
       0.374374         6.61135         6.57045 
       0.380519         6.43239         6.37099 
       0.386598         6.25444         6.18698 
       0.392688          6.0884         6.01108 
        0.39888          5.9037         5.83617 
       0.405048         5.73537         5.66401 
       0.411186         5.57078         5.49441 
       0.417313         5.39041         5.32795 
       0.423458         5.24093         5.16643 
       0.429607         5.07452         5.01226 
       0.435692         4.93015         4.86807 
       0.441815         4.79724         4.73194 
       0.447964         4.68537         4.60336 
       0.454126         4.54343         4.48095 
       0.460267         4.42474         4.36387 
       0.466387         4.30529         4.25079 
        0.47254         4.20044         4.13956 
       0.478662         4.09741         4.03115 
       0.484765         3.98486         3.92584 
       0.490885         3.88411         3.82349 
       0.497035         3.80383         3.72435 
       0.503198         3.69884         3.62917 
       0.509342         3.61354         3.53868 
       0.515458         3.51939         3.45262 
       0.521598         3.43881         3.36964 
       0.527764         3.35017         3.28922 
       0.533884         3.28515          3.2119 
           0.54         3.20658         3.13683 
       0.546137         3.13711         3.06343 
       0.552299         3.06327         2.99162 
       0.558452         2.98461         2.92202 
       0.564573          2.9244         2.85501 
       0.570708         2.85996         2.79023 
       0.576825         2.79239         2.72792 
       0.582926          2.7395          2.6679 
       0.589034         2.66553         2.60979 
       0.595184         2.61344         2.55315 
       0.601379         2.55805         2.49784 
       0.607522         2.51152         2.44458 
       0.613639         2.46719         2.39298 
       0.619772         2.40472          2.3426 
       0.625918         2.35948         2.29347 
       0.632068         2.31702         2.24571 
       0.638161         2.26511         2.19979 
         0.6443         2.21913         2.15493 
       0.650464         2.17019         2.11128 
       0.656582         2.13406         2.06922 
       0.662703         2.09356         2.02832 
       0.668861         2.05865          1.9883 
       0.675024         2.01396          1.9493 
       0.681124          1.9711         1.91172 
       0.687237         1.94109         1.87505 
       0.693381         1.90596         1.83916 
       0.699536         1.85968         1.80416 
       0.705665         1.82843         1.77025 
       0.711789         1.79916         1.73725 
       0.717957         1.76273         1.70489 
        0.72409         1.73324         1.67355 
       0.730186         1.70104         1.64319 
       0.736317         1.67858         1.61343 
       0.742472         1.64734          1.5843 
       0.748622          1.6162         1.55593 
        0.75476         1.58401         1.52831 
       0.760888         1.55688         1.50141 
       0.767043         1.53898         1.47506 
       0.773185         1.50717         1.44941 
       0.779291         1.48294         1.42451 
       0.785407         1.45901         1.40018 
       0.791564          1.4354         1.37626 
       0.797719         1.41411         1.35293 
       0.803834         1.39142         1.33028 
       0.809972         1.36787         1.30808 
       0.816124         1.34394         1.28634 
       0.822261         1.32031         1.26516 
       0.828378         1.30277         1.24453 
       0.834502         1.28473         1.22434 
       0.840667         1.25927         1.20447 
       0.846816         1.24041          1.1851 
       0.852925         1.22592         1.16628 
       0.859047         1.20661         1.14784 
       0.865192         1.18616         1.12974 
       0.871341         1.16796         1.11202 
       0.877463         1.15476         1.09476 
       0.883569         1.13417         1.07792 
       0.889708          1.1169         1.06135 
       0.895864         1.10071         1.04509 
       0.902008         1.08303         1.02921 
       0.908149         1.06748         1.01367 
       0.914301         1.04782         0.99843 
       0.920448         1.03494        0.983519 
       0.926574         1.01958        0.968968 
       0.932687         1.00511        0.954745 
       0.938823        0.995043        0.940758 
       0.944975        0.979521        0.927022 
       0.951105        0.966785        0.913612 
       0.957225        0.955538        0.900492 
       0.963368        0.941129        0.887587 
       0.969511        0.926216        0.874937 
       0.975621        0.912274        0.862603 
       0.981748        0.903859        0.850477 
       0.987916        0.890416         0.83851 
        0.99406        0.877345        0.826819 
        1.00019         0.86821        0.815376 
        1.00632        0.853204        0.804162 
        1.01246        0.842293        0.793143 
        1.01859        0.832897         0.78235 
        1.02471        0.821066        0.771773 
        1.03085        0.813196        0.761356 
        1.03698        0.800455        0.751155 
        1.04314        0.791024        0.741099 
        1.04929        0.779662        0.731252 
        1.05541        0.771548        0.721625 
        1.06154        0.760446        0.712148 
        1.06769        0.749967        0.702829 
        1.07382        0.741967        0.693708 
        1.07993        0.730794         0.68477 
        1.08607        0.725312        0.675955 
        1.09222        0.714116        0.667286 
        1.09836        0.708393        0.658782 
        1.10449        0.699101        0.650436 
        1.11063        0.688588        0.642227 
        1.11677        0.679249        0.634163 
         1.1229        0.672713        0.626253 
        1.12903        0.663588        0.618472 
        1.13518        0.657466        0.610818 
        1.14131        0.648495        0.603298 
        1.14745        0.637942         0.59591 
        1.15359        0.633218        0.588646 
        1.15973        0.623707          0.5815 
        1.16584        0.619828        0.574505 
        1.17197        0.611592        0.567617 
        1.17811         0.60535        0.560821 
        1.18424        0.600079        0.554157 
        1.19038        0.591341        0.547582 
        1.19652        0.583099        0.541118 
        1.20267        0.579051        0.534758 
        1.20881        0.571301        0.528502 
        1.21495        0.566556        0.522357 
        1.22108         0.55991        0.516311 
         1.2272        0.554348        0.510375 
        1.23334        0.547431         0.50452 
        1.23949        0.541559        0.498743 
        1.24562        0.535863        0.493073 
        1.25174        0.530508          0.4875 
        1.25789         0.52539        0.481996 
        1.26402         0.51783        0.476589 
        1.27014        0.512976        0.471277 
        1.27628        0.508792        0.466031 
        1.28244         0.50115        0.460856 
        1.28858        0.496969        0.455766 
        1.29471        0.493208        0.450765 
        1.30084        0.486717        0.445844 
        1.30697        0.481803        0.440989 
        1.31312         0.47507          0.4362 
        1.31925        0.471207        0.431498 
        1.32537         0.46731         0.42687 
        1.33151        0.463175        0.422293 
        1.33765        0.458129        0.417787 
        1.34378        0.452299        0.413356 
        1.34992        0.448775        0.408986 
        1.35606        0.443896        0.404671 
         1.3622        0.439635        0.400425 
        1.36833        0.435118        0.396252 
        1.37445        0.429598         0.39214 
        1.38059        0.425784        0.388074 
        1.38675        0.424124        0.384056 
        1.39288        0.418618        0.380112 
        1.39901         0.41485        0.376225 
        1.40515        0.411174        0.372383 
         1.4113        0.406187        0.368598 
        1.41742        0.402426        0.364879 
        1.42355        0.399897        0.361205 
         1.4297        0.394814        0.357571 
        1.43585        0.391713        0.353989 
        1.44198         0.38897        0.350469 
        1.44809        0.384221        0.347005 
        1.45423         0.38095        0.343574 
        1.46036        0.377193        0.340196 
        1.46649        0.374515        0.336863 
        1.47263        0.370437        0.333572 
        1.47877        0.366329        0.330327 
        1.48491         0.36367         0.32712 
        1.49104        0.359516        0.323962 
        1.49718        0.356672        0.320844 
        1.50333        0.354254        0.317762 
        1.50947        0.350678        0.314727 
         1.5156        0.347188        0.311736 
        1.52172        0.344371        0.308784 
        1.52787        0.341196        0.305865 
          1.534        0.338041        0.302987 
        1.54013        0.334699        0.300149 
        1.54627        0.332589        0.297342 
        1.55241        0.329083        0.294571 
        1.55855        0.325668         0.29184 
        1.56467        0.324509        0.289151 
         1.5708        0.320798        0.286488 
        1.57695        0.318178        0.283855 
        1.58308        0.315236        0.281261 
        1.58922        0.312879        0.278698 
        1.59535        0.309989        0.276168 
         1.6015         0.30714        0.273666 
        1.60764        0.304983        0.271196 
        1.61376        0.301572        0.268764 
        1.61989         0.29956         0.26636 
        1.62604        0.297331        0.263979 
        1.63218        0.295014         0.26163 
        1.63831        0.292579        0.259315 
        1.64444        0.290082        0.257026 
        1.65059        0.287685        0.254761 
        1.65673        0.285385        0.252525 
        1.66285         0.28344        0.250322 
        1.66898        0.281026        0.248145 
        1.67512         0.27819         0.24599 
        1.68127          0.2758        0.243858 
         1.6874        0.274365        0.241757 
        1.69353        0.271457        0.239681 
        1.69967        0.270121        0.237626 
        1.70581        0.267126        0.235595 
        1.71193        0.265283        0.233596 
        1.71806        0.262814        0.231615 
        1.72421        0.261593        0.229654 
        1.73035        0.258986        0.227718 
        1.73649        0.257462        0.225805 
        1.74262        0.255206        0.223915 
        1.74876        0.253132        0.222046 
        1.75489        0.251484        0.220202 
        1.76101        0.248988        0.218379 
        1.76715         0.24723        0.216575 
        1.77329        0.245044        0.214789 
        1.77943        0.243423        0.213022 
        1.78557        0.241956        0.211278 
        1.79171        0.240073        0.209553 
        1.79785        0.238136        0.207847 
        1.80399        0.236287        0.206161 
        1.81012        0.234737        0.204495 
        1.81625        0.232812        0.202849 
        1.82239        0.231263        0.201218 
        1.82853        0.229103        0.199607 
        1.83466        0.227762        0.198014 
        1.84078        0.225944        0.196441 
        1.84692        0.224277        0.194882 
        1.85306        0.222945        0.193338 
         1.8592         0.22096        0.191814 
        1.86533        0.219746        0.190307 
        1.87147        0.218053        0.188814 
        1.87761         0.21676        0.187337 
        1.88375        0.214681        0.185877 
        1.88988        0.213316        0.184434 
        1.89601        0.211594        0.183006 
        1.90215        0.210411        0.181593 
        1.90829        0.208542        0.180194 
        1.91442        0.207641        0.178811 
        1.92056        0.205735        0.177443 
         1.9267        0.204149        0.176088 
        1.93284        0.202801        0.174747 
        1.93897        0.201356        0.173422 
        1.94509        0.200364        0.172113 
        1.95123        0.198712        0.170815 
        1.95737        0.197666         0.16953 
        1.96349        0.196038        0.168261 
        1.96964        0.194559        0.167001 
        1.97578         0.19326        0.165754 
        1.98192        0.192267        0.164522 
        1.98805        0.191112        0.163303 
        1.99419        0.189302        0.162095 
        2.00033        0.188056          0.1609 
        2.00647        0.187295        0.159717 
         2.0126        0.185593        0.158547 
        2.01874         0.18468        0.157388 
        2.02488        0.183331        0.156239 
        2.03101         0.18217        0.155104 
        2.03714        0.180748        0.153982 
        2.04328        0.179845        0.152869 
        2.04941        0.178398        0.151768 
        2.05554        0.177479        0.150679 
        2.06167        0.176543        0.149599 
        2.06781        0.174962        0.148529 
        2.07396        0.173828        0.147468 
        2.08009        0.172721         0.14642 
        2.08622        0.171831        0.145383 
        2.09237        0.170857        0.144354 
        2.09851        0.169749        0.143335 
        2.10464        0.168679        0.142328 
        2.11077        0.167333        0.141331 
        2.11691        0.166412        0.140342 
        2.12305        0.165296        0.139362 
        2.12918        0.164461        0.138394 
        2.13531        0.163249        0.137435 
        2.14145        0.162047        0.136483 
         2.1476        0.161231        0.135539 
        2.15372        0.160529        0.134608 
        2.15985        0.159246        0.133685 
        2.16599        0.158201        0.132769 
        2.17213        0.157369        0.131862 
        2.17827        0.156228        0.130964 
         2.1844         0.15552        0.130074 
        2.19054        0.154493        0.129193 
        2.19666        0.153202        0.128322 
         2.2028        0.152578        0.127457 
        2.20893        0.151908          0.1266 
        2.21508         0.15051         0.12575 
        2.22122        0.149667        0.124908 
        2.22736        0.149105        0.124075 
        2.23349        0.148042         0.12325 
        2.23962        0.147319        0.122432 
        2.24577        0.146201         0.12162 
         2.2519        0.145571        0.120818 
        2.25802        0.144539        0.120023 
        2.26417        0.143834        0.119234 
        2.27031        0.142834        0.118451 
        2.27644        0.142059        0.117678 
        2.28257        0.141201        0.116911 
        2.28872        0.140502         0.11615 
        2.29486        0.139831        0.115395 
        2.30099        0.138793        0.114649 
        2.30712        0.138089         0.11391 
        2.31326        0.136999        0.113175 
         2.3194        0.136865        0.112448 
        2.32553        0.135913        0.111728 
        2.33166        0.135265        0.111014 
         2.3378        0.134322        0.110306 
        2.34394        0.133529        0.109604 
        2.35007        0.132763        0.108909 
        2.35619        0.131844        0.108221 
        2.36233        0.131242        0.107537 
        2.36848        0.130682        0.106858 
        2.37462        0.129676        0.106186 
        2.38075         0.12923        0.105521 
        2.38689        0.128497         0.10486 
        2.39303        0.127962        0.104206 
        2.39916        0.126923        0.103557 
        2.40529        0.126428        0.102915 
        2.41143        0.125613        0.102277 
        2.41757        0.124915        0.101645 
         2.4237        0.124454        0.101018 
        2.42983        0.123642        0.100398 
        2.43598        0.123241       0.0997806 
        2.44211        0.122321       0.0991697 
        2.44823         0.12196       0.0985653 
        2.45437        0.120933       0.0979643 
        2.46052        0.120544       0.0973678 
        2.46665        0.119769       0.0967773 
        2.47279        0.119073       0.0961919 
        2.47892        0.118309        0.095611 
        2.48507        0.117736       0.0950344 
         2.4912        0.117237       0.0944636 
