# k  (h/Mpc)    P(k)  (Mpc/h)^3    P_linear(k)  (Mpc/h)^3
     0.00783031          644.77         651.654 
       0.013688         836.994         839.586 
       0.019231         878.589         879.442 
      0.0249154         835.258         839.754 
      0.0312784         749.916         750.951 
      0.0375637         656.659         655.576 
      0.0433917         578.445          579.26 
      0.0492413         521.022         520.423 
      0.0555754         473.387         475.008 
      0.0619321         443.795         442.081 
       0.067871         414.773         415.964 
      0.0738098         387.907         389.264 
      0.0800417          355.94          358.07 
      0.0862327         323.471         324.341 
      0.0921407         291.794         292.012 
      0.0982031         260.967         261.618 
       0.104506         236.425          235.34 
       0.110769         216.431         215.479 
       0.116806         201.518          201.66 
       0.122832         192.155         191.583 
       0.129052         182.732         183.116 
       0.135211         174.346         174.864 
       0.141259         165.901         165.768 
       0.147318         156.105         155.395 
       0.153489         144.295         144.013 
       0.159709         133.186         132.642 
       0.165845         124.007         122.457 
       0.171974         114.664         113.929 
       0.178125         108.171         107.202 
       0.184229         103.335         102.113 
        0.19034         98.4465         98.1087 
       0.196428         95.5063         94.6149 
       0.202534         92.5448         91.0904 
       0.208729         88.1987         87.1675 
       0.214876         83.5268         82.8634 
       0.220989         79.7736         78.3343 
       0.227147         74.5998         73.8054 
        0.23329         70.5233         69.6089 
       0.239377          67.161          65.967 
       0.245482         63.7106         62.9027 
       0.251667         61.7223         60.3431 
       0.257832         59.4521         58.1876 
       0.263955         57.5246         56.2568 
       0.270079         55.6382         54.3672 
        0.27624         54.0398         52.3999 
       0.282372         51.9411         50.3445 
        0.28843         49.6352         48.2501 
       0.294538         47.5824         46.1538 
       0.300721         45.9085         44.1339 
        0.30691         43.7645         42.2858 
       0.313033         42.2223         40.6585 
       0.319153         40.3591         39.2258 
       0.325316         39.6311          37.939 
        0.33145         38.3209         36.7602 
       0.337538          37.226         35.6369 
       0.343633         35.9928         34.5228 
       0.349808         34.9674         33.3847 
       0.355968         33.8418         32.2459 
       0.362074         32.6935         31.1304 
       0.368217         31.6683         30.0477 
       0.374374         30.5362         29.0237 
       0.380519         29.7132          28.075 
       0.386598         28.9015         27.2114 
       0.392688         28.1912         26.4104 
        0.39888         27.3678          25.648 
       0.405048         26.6961         24.9236 
       0.411186         26.0352         24.2224 
       0.417313         25.1908         23.5354 
       0.423458         24.5659         22.8563 
       0.429607         23.8399         22.1898 
       0.435692         23.1576         21.5503 
       0.441815         22.6174         20.9323 
       0.447964         22.1761         20.3416 
       0.454126         21.4075         19.7823 
       0.460267         20.9373         19.2553 
       0.466387         20.3259         18.7557 
        0.47254         19.9607         18.2748 
       0.478662         19.5517          17.813 
       0.484765         19.0066         17.3652 
       0.490885         18.5515         16.9269 
       0.497035         18.2901         16.4979 
       0.503198         17.8011         16.0803 
       0.509342         17.3749         15.6774 
       0.515458         16.9646         15.2909 
       0.521598         16.6288         14.9186 
       0.527764         16.2283         14.5601 
       0.533884         15.9486         14.2182 
           0.54         15.5967          13.889 
       0.546137         15.3032         13.5697 
       0.552299         15.0114         13.2591 
       0.558452         14.5754         12.9578 
       0.564573         14.3708          12.666 
       0.570708         14.0884         12.3815 
       0.576825         13.7315         12.1063 
       0.582926         13.5053         11.8405 
       0.589034         13.1303         11.5828 
       0.595184         12.9303         11.3317 
       0.601379         12.6616         11.0871 
       0.607522         12.4787         10.8523 
       0.613639         12.3128         10.6257 
       0.619772         11.9868         10.4053 
       0.625918         11.8595         10.1907 
       0.632068         11.6684          9.9816 
       0.638161         11.3971         9.77997 
         0.6443         11.1685         9.58232 
       0.650464         10.9442         9.38943 
       0.656582         10.8397          9.2034 
       0.662703         10.6431         9.02261 
       0.668861         10.4647         8.84586 
       0.675024         10.2523         8.67388 
       0.681124         10.0711         8.50833 
       0.687237         9.92992         8.34687 
       0.693381         9.78656         8.18889 
       0.699536         9.52492         8.03478 
       0.705665         9.41455         7.88535 
       0.711789          9.2673         7.73988 
       0.717957         9.11076          7.5971 
        0.72409         8.96134         7.45875 
       0.730186         8.83295          7.3247 
       0.736317         8.74566         7.19327 
       0.742472          8.6057         7.06462 
       0.748622          8.4546         6.93931 
        0.75476         8.28105         6.81738 
       0.760888         8.18386         6.69863 
       0.767043         8.08801          6.5823 
       0.773185         7.92434         6.46903 
       0.779291         7.85031         6.35912 
       0.785407         7.72402         6.25164 
       0.791564          7.6073           6.146 
       0.797719         7.49406         6.04288 
       0.803834         7.41951         5.94281 
       0.809972         7.33188         5.84467 
       0.816124         7.18782         5.74857 
       0.822261         7.07541         5.65491 
       0.828378         6.99308         5.56365 
       0.834502         6.92993         5.47436 
       0.840667         6.79405         5.38649 
       0.846816         6.69131         5.30081 
       0.852925         6.63505         5.21757 
       0.859047         6.54684         5.13597 
       0.865192         6.47811         5.05587 
       0.871341         6.40103         4.97745 
       0.877463         6.31367         4.90107 
       0.883569         6.20561          4.8265 
       0.889708         6.11171         4.75313 
       0.895864         6.05756         4.68111 
       0.902008         5.97215         4.61075 
       0.908149         5.90987          4.5419 
       0.914301         5.81057         4.47436 
       0.920448         5.73901         4.40827 
       0.926574         5.66405         4.34377 
       0.932687          5.6127         4.28071 
       0.938823         5.54739         4.21869 
       0.944975         5.47375         4.15777 
       0.951105         5.41933         4.09829 
       0.957225         5.38683         4.04009 
       0.963368         5.30928         3.98283 
       0.969511         5.24052          3.9267 
       0.975621         5.16608         3.87197 
       0.981748         5.11961         3.81815 
       0.987916         5.06306         3.76503 
        0.99406         4.98132         3.71313 
        1.00019          4.9284         3.66233 
        1.00632         4.88843         3.61253 
        1.01246          4.8359          3.5636 
        1.01859         4.77829         3.51567 
        1.02471         4.72266         3.46869 
        1.03085          4.6754         3.42242 
        1.03698         4.61374          3.3771 
        1.04314         4.57654         3.33242 
        1.04929         4.51667         3.28867 
        1.05541         4.46948         3.24588 
        1.06154         4.42707         3.20376 
        1.06769          4.3942         3.16233 
        1.07382         4.33224         3.12178 
        1.07993         4.27688         3.08204 
        1.08607         4.25643         3.04284 
        1.09222         4.20547         3.00429 
        1.09836         4.17308         2.96645 
        1.10449         4.12542         2.92932 
        1.11063         4.07962          2.8928 
        1.11677          4.0415         2.85691 
         1.1229         4.00024          2.8217 
        1.12903         3.95507         2.78706 
        1.13518         3.92465         2.75298 
        1.14131         3.87068          2.7195 
        1.14745         3.81774         2.68659 
        1.15359         3.80273         2.65423 
        1.15973         3.75246         2.62239 
        1.16584         3.73077         2.59123 
        1.17197         3.69224         2.56053 
        1.17811         3.65911         2.53024 
        1.18424         3.63556         2.50053 
        1.19038         3.59692         2.47122 
        1.19652         3.56185         2.44239 
        1.20267         3.53039         2.41403 
        1.20881          3.4922         2.38613 
        1.21495         3.46703         2.35872 
        1.22108         3.43487         2.33175 
         1.2272         3.41583         2.30527 
        1.23334         3.37108         2.27914 
        1.23949         3.33691         2.25337 
        1.24562         3.32046         2.22806 
        1.25174         3.27964         2.20319 
        1.25789         3.25635         2.17863 
        1.26402         3.21922         2.15448 
        1.27014         3.19065         2.13077 
        1.27628         3.17869         2.10735 
        1.28244         3.13624         2.08424 
        1.28858         3.11751          2.0615 
        1.29471         3.08679         2.03917 
        1.30084         3.05757         2.01718 
        1.30697         3.04538          1.9955 
        1.31312         2.99528          1.9741 
        1.31925         2.98529         1.95309 
        1.32537         2.96021          1.9324 
        1.33151         2.93989         1.91195 
        1.33765          2.9043          1.8918 
        1.34378         2.87955         1.87199 
        1.34992         2.87189         1.85245 
        1.35606         2.83221         1.83315 
         1.3622         2.82023         1.81416 
        1.36833         2.79501         1.79549 
        1.37445         2.76985         1.77709 
        1.38059         2.75205          1.7589 
        1.38675         2.74032         1.74092 
        1.39288         2.70627         1.72327 
        1.39901         2.68374         1.70587 
        1.40515         2.66569         1.68868 
         1.4113         2.64584         1.67172 
        1.41742         2.62649         1.65507 
        1.42355          2.6149         1.63862 
         1.4297         2.58166         1.62234 
        1.43585         2.57028         1.60629 
        1.44198          2.5563         1.59053 
        1.44809         2.52316           1.575 
        1.45423         2.50677         1.55963 
        1.46036          2.4887         1.54449 
        1.46649         2.46812         1.52955 
        1.47263         2.44918          1.5148 
        1.47877         2.42686         1.50025 
        1.48491         2.41074         1.48587 
        1.49104         2.39829         1.47171 
        1.49718         2.38338         1.45772 
        1.50333         2.36257          1.4439 
        1.50947         2.34929         1.43029 
         1.5156         2.33054         1.41687 
        1.52172          2.3137         1.40363 
        1.52787         2.29541         1.39053 
          1.534         2.28401         1.37762 
        1.54013         2.26265         1.36488 
        1.54627         2.24361         1.35229 
        1.55241         2.22783         1.33985 
        1.55855         2.21674         1.32759 
        1.56467          2.2026         1.31551 
         1.5708         2.17849         1.30356 
        1.57695          2.1712         1.29174 
        1.58308         2.15588         1.28009 
        1.58922         2.14239         1.26858 
        1.59535         2.12734         1.25721 
         1.6015         2.11341         1.24597 
        1.60764         2.10124         1.23488 
        1.61376         2.08569         1.22395 
        1.61989         2.07078         1.21314 
        1.62604         2.05507         1.20244 
        1.63218         2.04956         1.19188 
        1.63831         2.02664         1.18147 
        1.64444         2.01388         1.17119 
        1.65059         2.00579           1.161 
        1.65673         1.99042         1.15094 
        1.66285         1.97538         1.14103 
        1.66898          1.9675         1.13124 
        1.67512         1.94926         1.12154 
        1.68127         1.93777         1.11195 
         1.6874         1.93007          1.1025 
        1.69353         1.90953         1.09316 
        1.69967         1.89913          1.0839 
        1.70581         1.89462         1.07476 
        1.71193           1.878         1.06576 
        1.71806         1.87062         1.05685 
        1.72421         1.85654         1.04802 
        1.73035         1.84354          1.0393 
        1.73649         1.83337         1.03068 
        1.74262         1.82224         1.02217 
        1.74876         1.81257         1.01375 
        1.75489          1.7963         1.00544 
        1.76101         1.78671        0.997233 
        1.76715         1.77726        0.989103 
        1.77329         1.76676        0.981055 
        1.77943         1.75366        0.973094 
        1.78557         1.74334        0.965233 
        1.79171         1.73763        0.957459 
        1.79785         1.72389         0.94977 
        1.80399         1.71533        0.942167 
        1.81012         1.70836        0.934658 
        1.81625         1.69328        0.927236 
        1.82239          1.6842        0.919883 
        1.82853         1.66839        0.912614 
        1.83466         1.66434        0.905432 
        1.84078         1.65311        0.898335 
        1.84692         1.64662        0.891303 
        1.85306          1.6345        0.884339 
         1.8592          1.6277         0.87746 
        1.86533         1.61651        0.870659 
        1.87147         1.60904        0.863923 
        1.87761          1.5997        0.857255 
        1.88375         1.58505        0.850666 
        1.88988         1.58217        0.844154 
        1.89601         1.57036        0.837707 
        1.90215         1.56064        0.831322 
        1.90829         1.55154        0.825008 
        1.91442         1.54306        0.818759 
        1.92056         1.53609        0.812581 
         1.9267         1.52771         0.80646 
        1.93284         1.52166          0.8004 
        1.93897         1.51205        0.794414 
        1.94509         1.50189        0.788502 
        1.95123          1.4923        0.782636 
        1.95737         1.48549        0.776825 
        1.96349         1.47651         0.77109 
        1.96964         1.47036        0.765395 
        1.97578         1.46188        0.759757 
        1.98192         1.45657        0.754187 
        1.98805         1.44473        0.748672 
        1.99419         1.43987        0.743213 
        2.00033         1.43594        0.737806 
        2.00647         1.42316        0.732455 
         2.0126         1.41841        0.727166 
        2.01874          1.4092        0.721922 
        2.02488         1.40302        0.716725 
        2.03101         1.39239        0.711589 
        2.03714         1.38349        0.706509 
        2.04328         1.38138        0.701473 
        2.04941         1.37134        0.696491 
        2.05554         1.36601        0.691561 
        2.06167         1.35714        0.686672 
        2.06781         1.35127         0.68183 
        2.07396         1.34267        0.677029 
        2.08009         1.33719        0.672282 
        2.08622          1.3283        0.667586 
        2.09237         1.32702        0.662927 
        2.09851         1.31921        0.658311 
        2.10464         1.31313        0.653747 
        2.11077         1.30438        0.649233 
        2.11691          1.2965        0.644751 
        2.12305         1.29231        0.640312 
        2.12918         1.28491        0.635926 
        2.13531         1.27967         0.63158 
        2.14145         1.27148        0.627266 
         2.1476         1.26503        0.622987 
        2.15372         1.26033         0.61877 
        2.15985         1.25275        0.614587 
        2.16599         1.24607        0.610432 
        2.17213         1.24078         0.60632 
        2.17827         1.23732        0.602247 
         2.1844         1.23103        0.598215 
        2.19054         1.22673        0.594219 
        2.19666         1.21831        0.590265 
         2.2028         1.21294        0.586344 
        2.20893         1.20519        0.582457 
        2.21508         1.20312        0.578601 
        2.22122         1.19313        0.574779 
        2.22736         1.18724        0.570999 
        2.23349         1.18723        0.567255 
        2.23962         1.17794        0.563542 
        2.24577         1.17158         0.55986 
         2.2519         1.16621        0.556216 
        2.25802         1.16311        0.552611 
        2.26417         1.15421        0.549027 
        2.27031         1.15148        0.545472 
        2.27644         1.14597         0.54196 
        2.28257         1.14122        0.538478 
        2.28872         1.13468        0.535021 
        2.29486         1.13096        0.531595 
        2.30099         1.12403        0.528207 
        2.30712         1.12015        0.524846 
        2.31326         1.11618        0.521509 
         2.3194         1.11127        0.518204 
        2.32553         1.10653        0.514933 
        2.33166         1.10018        0.511691 
         2.3378         1.09435        0.508474 
        2.34394         1.08805        0.505283 
        2.35007         1.08436        0.502124 
        2.35619         1.08167        0.498996 
        2.36233         1.07411        0.495887 
        2.36848         1.07102        0.492799 
        2.37462         1.06548        0.489744 
        2.38075         1.06298        0.486718 
        2.38689         1.05692        0.483715 
        2.39303         1.05368        0.480738 
        2.39916         1.04621        0.477789 
        2.40529         1.04488        0.474865 
        2.41143         1.03963        0.471964 
        2.41757         1.03422        0.469086 
         2.4237          1.0308        0.466238 
        2.42983         1.02591        0.463413 
        2.43598         1.02197        0.460605 
        2.44211         1.01782        0.457825 
        2.44823         1.01307        0.455074 
        2.45437         1.00951        0.452338 
        2.46052         1.00696        0.449623 
        2.46665         1.00158        0.446935 
        2.47279         0.99691         0.44427 
        2.47892        0.991362        0.441624 
        2.48507        0.988281        0.438999 
         2.4912        0.983746        0.436399 
