# k  (h/Mpc)    P(k)  (Mpc/h)^3    P_linear(k)  (Mpc/h)^3
     0.00783031         5623.92         5704.67 
       0.013688         7196.72         7179.18 
       0.019231         7410.28         7410.27 
      0.0249154         6898.19         6992.33 
      0.0312784         6149.77         6188.32 
      0.0375637         5366.98         5364.31 
      0.0433917         4674.06         4722.32 
      0.0492413         4220.85         4235.63 
      0.0555754         3794.33         3861.89 
      0.0619321         3598.63         3586.43 
       0.067871         3309.56         3360.94 
      0.0738098         3075.55         3126.38 
      0.0800417          2786.9          2854.4 
      0.0862327          2528.7         2567.26 
      0.0921407         2287.84         2300.03 
      0.0982031         2037.25          2056.4 
       0.104506         1875.59         1852.12 
       0.110769         1722.98         1701.63 
       0.116806         1606.44         1597.85 
       0.122832         1536.71         1520.11 
       0.129052         1443.82         1450.27 
       0.135211          1373.6         1377.95 
       0.141259         1308.83         1297.16 
       0.147318         1228.65         1207.14 
       0.153489         1126.63         1112.16 
       0.159709         1050.95         1021.42 
       0.165845         992.846         943.668 
       0.171974         924.562         881.066 
       0.178125         878.379         832.933 
       0.184229         843.745         796.363 
        0.19034          793.44         766.062 
       0.196428         779.055         737.352 
       0.202534         755.186         706.571 
       0.208729         716.724         671.906 
       0.214876         676.452         634.824 
       0.220989         652.039         597.434 
       0.227147          612.63         561.813 
        0.23329         584.975         530.319 
       0.239377         568.257         504.008 
       0.245482         531.728         482.304 
       0.251667         525.097             464 
       0.257832          507.69         447.862 
       0.263955         490.733         432.436 
       0.270079         473.735         416.565 
        0.27624         466.041          399.75 
       0.282372         446.607         382.424 
        0.28843         431.562         365.338 
       0.294538         411.967         348.904 
       0.300721         406.925         333.685 
        0.30691          387.92         320.185 
       0.313033         378.886         308.486 
       0.319153         364.703         298.107 
       0.325316         355.723         288.513 
        0.33145         344.696         279.356 
       0.337538         339.921         270.318 
       0.343633         328.711         261.191 
       0.349808         318.492         251.896 
       0.355968         313.353         242.761 
       0.362074          305.21         234.049 
       0.368217         297.009         225.828 
       0.374374         287.128         218.221 
       0.380519         282.248         211.261 
       0.386598         275.244         204.911 
       0.392688         271.878         198.938 
        0.39888         264.696         193.125 
       0.405048         258.968         187.479 
       0.411186         253.336         181.938 
       0.417313         248.224         176.496 
       0.423458         243.298         171.154 
       0.429607         237.612         165.988 
       0.435692         230.723         161.112 
       0.441815         229.133         156.466 
       0.447964          225.11         152.066 
       0.454126         215.837         147.907 
       0.460267         213.486         143.965 
       0.466387         210.679          140.19 
        0.47254         206.428         136.514 
       0.478662         204.637         132.955 
       0.484765          198.94         129.489 
       0.490885         195.959         126.104 
       0.497035         193.355          122.81 
       0.503198         188.315         119.632 
       0.509342         185.699         116.589 
       0.515458         183.198         113.688 
       0.521598          180.71           110.9 
       0.527764          177.92         108.213 
       0.533884         175.131         105.641 
           0.54         172.442         103.151 
       0.546137          171.22         100.725 
       0.552299         168.303         98.3591 
       0.558452         165.233         96.0637 
       0.564573         162.368         93.8455 
       0.570708         160.083         91.6908 
       0.576825         157.991         89.6136 
       0.582926         155.443         87.6145 
       0.589034         153.026         85.6815 
       0.595184         151.459         83.7993 
       0.601379         149.935         81.9635 
       0.607522         146.424         80.1975 
       0.613639         146.128         78.4903 
       0.619772         142.852         76.8274 
       0.625918         141.521         75.2078 
       0.632068         139.951          73.632 
       0.638161         138.634         72.1142 
         0.6443         136.732         70.6282 
       0.650464         135.199           69.18 
       0.656582         133.616          67.785 
       0.662703         131.393         66.4306 
       0.668861         129.943         65.1074 
       0.675024         128.505         63.8201 
       0.681124         127.361         62.5808 
       0.687237         125.112         61.3714 
       0.693381         123.697         60.1875 
       0.699536         122.503         59.0324 
       0.705665         122.966         57.9126 
       0.711789         119.712         56.8231 
       0.717957         119.232         55.7549 
        0.72409         117.555         54.7208 
       0.730186          115.62         53.7198 
       0.736317         115.374          52.739 
       0.742472          114.25         51.7794 
       0.748622           113.3         50.8448 
        0.75476         112.139         49.9354 
       0.760888         110.606         49.0496 
       0.767043         109.681         48.1819 
       0.773185          108.51         47.3372 
       0.779291         107.514         46.5176 
       0.785407         106.727         45.7165 
       0.791564         105.498         44.9294 
       0.797719           104.1         44.1616 
       0.803834         103.691         43.4168 
       0.809972         102.055         42.6867 
       0.816124         101.625          41.972 
       0.822261         100.747         41.2759 
       0.828378         99.8361         40.5977 
       0.834502         99.0543         39.9344 
       0.840667         98.0764         39.2817 
       0.846816         97.0359         38.6455 
       0.852925         96.1631         38.0275 
       0.859047         95.0165         37.4218 
       0.865192          94.718         36.8274 
       0.871341          93.937         36.2457 
       0.877463         92.6378         35.6792 
       0.883569         92.0654         35.1264 
       0.889708         91.5746         34.5826 
       0.895864         90.7697          34.049 
       0.902008         90.0443         33.5279 
       0.908149         89.4792          33.018 
       0.914301         88.5439         32.5181 
       0.920448         87.9559         32.0291 
       0.926574         87.2879         31.5519 
       0.932687         86.8483         31.0855 
       0.938823         85.5371          30.627 
       0.944975         85.2264         30.1767 
       0.951105          84.478         29.7372 
       0.957225         83.4525         29.3073 
       0.963368         83.2611         28.8845 
       0.969511         82.7826           28.47 
       0.975621         82.2861          28.066 
       0.981748         81.4466         27.6689 
       0.987916         80.8983          27.277 
        0.99406         80.4548         26.8943 
        1.00019         79.4993         26.5197 
        1.00632         79.2293         26.1526 
        1.01246         78.4755          25.792 
        1.01859         77.5307         25.4389 
        1.02471         77.8707         25.0928 
        1.03085         76.9592          24.752 
        1.03698         76.3421         24.4184 
        1.04314         75.6045         24.0895 
        1.04929         75.2979         23.7674 
        1.05541         74.6207         23.4526 
        1.06154         74.4466         23.1428 
        1.06769         73.8288         22.8382 
        1.07382         73.5219           22.54 
        1.07993         73.1555         22.2479 
        1.08607         72.4496         21.9598 
        1.09222         72.1098         21.6765 
        1.09836         71.6063         21.3986 
        1.10449         71.1297         21.1259 
        1.11063         70.5214         20.8577 
        1.11677         70.1269         20.5943 
         1.1229         69.7554         20.3359 
        1.12903         68.8525         20.0818 
        1.13518         69.0553         19.8318 
        1.14131         68.6445         19.5862 
        1.14745         67.7623          19.345 
        1.15359         67.6387         19.1078 
        1.15973         67.0529         18.8745 
        1.16584         66.6301         18.6461 
        1.17197         66.2895         18.4213 
        1.17811         65.9555         18.1995 
        1.18424          65.309          17.982 
        1.19038         65.1269         17.7674 
        1.19652         64.8302         17.5565 
        1.20267         64.3278          17.349 
        1.20881         63.9498         17.1449 
        1.21495         63.4658         16.9444 
        1.22108         63.1112         16.7472 
         1.2272         62.5771         16.5537 
        1.23334         62.3665         16.3627 
        1.23949         62.1976         16.1744 
        1.24562          61.799         15.9895 
        1.25174         61.4804         15.8078 
        1.25789         61.1338         15.6285 
        1.26402         60.6471         15.4522 
        1.27014         60.1633         15.2791 
        1.27628          60.028         15.1081 
        1.28244         59.5063         14.9395 
        1.28858         59.2987         14.7737 
        1.29471         59.1128         14.6107 
        1.30084         58.7364         14.4504 
        1.30697         58.2686         14.2923 
        1.31312         57.9012         14.1363 
        1.31925         57.8105         13.9831 
        1.32537         57.4701         13.8324 
        1.33151         57.0209         13.6834 
        1.33765         56.9071         13.5366 
        1.34378         56.5594         13.3923 
        1.34992         56.0001         13.2501 
        1.35606         55.7526         13.1095 
         1.3622         55.4263         12.9713 
        1.36833         55.2554         12.8354 
        1.37445          55.095         12.7016 
        1.38059         54.7348         12.5692 
        1.38675          54.367         12.4385 
        1.39288         54.1292         12.3101 
        1.39901         53.8106         12.1836 
        1.40515         53.5615         12.0586 
         1.4113         53.3973         11.9354 
        1.41742         52.9474         11.8144 
        1.42355         52.7547         11.6949 
         1.4297         52.4188         11.5766 
        1.43585         52.2783         11.4601 
        1.44198         51.9869         11.3456 
        1.44809         51.7006         11.2329 
        1.45423         51.5367         11.1214 
        1.46036           51.24         11.0115 
        1.46649         50.9268         10.9031 
        1.47263          50.692         10.7961 
        1.47877         50.5503         10.6906 
        1.48491         50.3057         10.5863 
        1.49104         49.9619         10.4836 
        1.49718         49.5642         10.3823 
        1.50333         49.4711         10.2821 
        1.50947         49.1993         10.1834 
         1.5156         48.9334         10.0862 
        1.52172         48.7096         9.99031 
        1.52787         48.6688         9.89544 
          1.534         48.2905         9.80193 
        1.54013         48.0145         9.70972 
        1.54627         47.9103         9.61853 
        1.55241         47.6212         9.52851 
        1.55855         47.3209         9.43976 
        1.56467         46.9815          9.3524 
         1.5708         46.9693          9.2659 
        1.57695          46.643         9.18036 
        1.58308         46.5688         9.09611 
        1.58922         46.4119         9.01286 
        1.59535         46.0977         8.93069 
         1.6015         45.8034         8.84943 
        1.60764         45.6842         8.76922 
        1.61376         45.4562         8.69023 
        1.61989         45.0623         8.61216 
        1.62604           45.03         8.53488 
        1.63218          44.793         8.45859 
        1.63831         44.5762         8.38342 
        1.64444         44.4263         8.30913 
        1.65059          44.035         8.23558 
        1.65673         43.8907         8.16299 
        1.66285         43.7477         8.09149 
        1.66898         43.4711         8.02082 
        1.67512         43.3141         7.95087 
        1.68127         43.0335         7.88168 
         1.6874         42.9695         7.81348 
        1.69353         42.6856         7.74613 
        1.69967         42.5314         7.67941 
        1.70581         42.4196         7.61352 
        1.71193         42.1362         7.54864 
        1.71806         41.9064         7.48439 
        1.72421         41.6948         7.42076 
        1.73035         41.5189         7.35795 
        1.73649           41.34         7.29588 
        1.74262         41.1471         7.23458 
        1.74876           41.14         7.17394 
        1.75489          40.799         7.11413 
        1.76101          40.621         7.05502 
        1.76715         40.4425          6.9965 
        1.77329         40.2566         6.93857 
        1.77943         40.1378         6.88128 
        1.78557         39.9349         6.82472 
        1.79171         39.7162         6.76879 
        1.79785         39.5375         6.71347 
        1.80399         39.3993         6.65879 
        1.81012          39.276         6.60479 
        1.81625         38.9971         6.55141 
        1.82239          38.904         6.49855 
        1.82853         38.5923          6.4463 
        1.83466         38.4945         6.39467 
        1.84078         38.2198         6.34366 
        1.84692         38.1542         6.29314 
        1.85306         37.9594          6.2431 
         1.8592         37.8025         6.19368 
        1.86533         37.5779         6.14483 
        1.87147          37.478         6.09646 
        1.87761         37.4059         6.04858 
        1.88375           37.17         6.00128 
        1.88988         37.0934         5.95453 
        1.89601         36.8393         5.90826 
        1.90215         36.7501         5.86244 
        1.90829         36.6387         5.81714 
        1.91442         36.3647         5.77231 
        1.92056         36.3037         5.72799 
         1.9267         36.0372         5.68409 
        1.93284         35.8498         5.64063 
        1.93897         35.7956         5.59771 
        1.94509         35.6039         5.55533 
        1.95123         35.4423         5.51328 
        1.95737         35.2883         5.47164 
        1.96349         35.1289         5.43053 
        1.96964         34.9272         5.38973 
        1.97578         34.8888         5.34934 
        1.98192         34.6633         5.30944 
        1.98805         34.5664         5.26994 
        1.99419         34.3381         5.23084 
        2.00033         34.1769         5.19213 
        2.00647         34.0748         5.15381 
         2.0126         33.9102         5.11595 
        2.01874         33.8285         5.07842 
        2.02488         33.7615         5.04122 
        2.03101         33.5034         5.00447 
        2.03714         33.3441         4.96812 
        2.04328         33.1995          4.9321 
        2.04941         33.1025         4.89646 
        2.05554         32.9438         4.86119 
        2.06167         32.8036         4.82623 
        2.06781         32.6697         4.79161 
        2.07396         32.5129         4.75728 
        2.08009         32.4426         4.72334 
        2.08622         32.2792         4.68977 
        2.09237         32.1552         4.65647 
        2.09851         31.9854         4.62349 
        2.10464         31.9274         4.59087 
        2.11077         31.6671         4.55862 
        2.11691         31.6422          4.5266 
        2.12305         31.4704         4.49489 
        2.12918         31.4324         4.46356 
        2.13531         31.2694         4.43253 
        2.14145          31.166         4.40172 
         2.1476          30.943         4.37117 
        2.15372         30.8363         4.34106 
        2.15985         30.7275         4.31121 
        2.16599         30.6226         4.28155 
        2.17213         30.5369         4.25221 
        2.17827         30.2636         4.22315 
         2.1844          30.186         4.19438 
        2.19054         30.0721         4.16588 
        2.19666         29.9608         4.13768 
         2.2028          29.874         4.10971 
        2.20893         29.7517           4.082 
        2.21508         29.6209          4.0545 
        2.22122         29.4383         4.02725 
        2.22736         29.3828         4.00031 
        2.23349         29.2531         3.97363 
        2.23962         29.1192         3.94717 
        2.24577         28.9594         3.92093 
         2.2519         28.8832         3.89497 
        2.25802         28.7678         3.86928 
        2.26417         28.6588         3.84375 
        2.27031         28.5739         3.81843 
        2.27644         28.4456         3.79342 
        2.28257          28.333         3.76863 
        2.28872         28.1714         3.74401 
        2.29486         28.0861         3.71962 
        2.30099          27.987          3.6955 
        2.30712         27.9259         3.67159 
        2.31326          27.799         3.64784 
         2.3194         27.6472         3.62432 
        2.32553         27.5348         3.60104 
        2.33166         27.3958         3.57798 
         2.3378         27.2855         3.55509 
        2.34394         27.2015          3.5324 
        2.35007         27.0693         3.50993 
        2.35619         26.9738         3.48769 
        2.36233         26.9039         3.46559 
        2.36848         26.7115         3.44363 
        2.37462         26.6367         3.42192 
        2.38075         26.5378          3.4004 
        2.38689         26.4643         3.37906 
        2.39303         26.3095         3.35791 
        2.39916         26.2229         3.33695 
        2.40529         26.0978         3.31618 
        2.41143         26.0307         3.29557 
        2.41757         25.9025         3.27513 
         2.4237         25.7985          3.2549 
        2.42983         25.7105         3.23484 
        2.43598         25.6147         3.21489 
        2.44211         25.4939         3.19515 
        2.44823         25.3643         3.17562 
        2.45437         25.2943          3.1562 
        2.46052         25.1929         3.13693 
        2.46665         25.1328         3.11785 
        2.47279         24.9986         3.09894 
        2.47892         24.8929         3.08017 
        2.48507         24.8014         3.06154 
         2.4912         24.7355         3.04309 
