# k  (h/Mpc)    Pcb(k)  (Mpc/h)^3    Pcb_linear(k)  (Mpc/h)^3
     0.00783031          4402.4         4434.57 
       0.013688         5173.63          5258.6 
       0.019231         5026.52         5065.02 
      0.0249154         4437.89         4422.48 
      0.0312784         3608.43         3609.55 
      0.0375637         2946.53         2958.71 
      0.0433917         2558.26         2551.16 
      0.0492413         2294.15            2299 
      0.0555754            2133         2126.95 
      0.0619321          1949.9         1978.58 
       0.067871         1805.96         1814.22 
      0.0738098         1615.95         1616.27 
      0.0800417         1403.24         1394.98 
      0.0862327         1200.87         1195.42 
      0.0921407         1054.26         1046.77 
      0.0982031         957.665         943.002 
       0.104506         880.325         878.435 
       0.110769         841.857         839.264 
       0.116806         815.381         805.759 
       0.122832         764.994         762.803 
       0.129052         710.394         704.003 
       0.135211         651.174         636.363 
       0.141259         582.669         570.641 
       0.147318         523.537         514.424 
       0.153489         484.485         471.808 
       0.159709         460.142         443.436 
       0.165845         432.498         425.498 
       0.171974         426.482         411.573 
       0.178125         409.841         396.172 
       0.184229          384.65         376.461 
        0.19034         366.144         352.359 
       0.196428         342.697         326.394 
       0.202534         313.145         301.615 
       0.208729         299.068         280.377 
       0.214876         284.658         264.254 
       0.220989         267.034         252.606 
       0.227147         262.049          243.71 
        0.23329         253.492         235.722 
       0.239377         246.659         227.132 
       0.245482         234.185         217.139 
       0.251667         221.925         205.818 
       0.257832         215.533         194.193 
       0.263955         201.517          183.35 
       0.270079         192.056         173.928 
        0.27624         183.341         166.157 
       0.282372         177.683         159.893 
        0.28843         175.593         154.606 
       0.294538         168.089         149.591 
       0.300721          161.27         144.349 
        0.30691         157.859         138.753 
       0.313033          150.61         132.944 
       0.319153         147.044         127.159 
       0.325316         140.811          121.65 
        0.33145         135.821         116.721 
       0.337538         131.092         112.429 
       0.343633          127.15         108.662 
       0.349808         123.133         105.207 
       0.355968         119.808         101.917 
       0.362074          117.27          98.679 
       0.368217         114.141         95.3669 
       0.374374         111.104         92.0309 
       0.380519         106.291         88.7619 
       0.386598           103.5          85.675 
       0.392688         100.196          82.807 
        0.39888         98.3495         80.1313 
       0.405048         95.9113          77.682 
       0.411186         93.7584         75.4107 
       0.417313         91.2389          73.237 
       0.423458         88.7729         71.1037 
       0.429607         86.9433         69.0018 
       0.435692         85.5086         66.9519 
       0.441815          82.517         64.9388 
       0.447964         79.8416         63.0002 
       0.454126         78.3787         61.1611 
       0.460267         77.6128         59.4311 
       0.466387         75.5107         57.8037 
        0.47254         74.4957         56.2513 
       0.478662         71.8725         54.7685 
       0.484765         70.5978         53.3319 
       0.490885          68.714          51.925 
       0.497035         67.9829         50.5488 
       0.503198         66.4104         49.2119 
       0.509342         64.5936         47.9247 
       0.515458         63.6393         46.6924 
       0.521598         62.0708         45.5086 
       0.527764         61.2717         44.3727 
       0.533884          60.437         43.2914 
           0.54         58.8955         42.2485 
       0.546137         57.2786          41.233 
       0.552299         56.2607         40.2421 
       0.558452          55.142         39.2821 
       0.564573         54.7774         38.3566 
       0.570708         53.1755         37.4587 
       0.576825         52.6114          36.593 
       0.582926         51.8597         35.7582 
       0.589034         50.7959         34.9505 
       0.595184         50.0987         34.1647 
       0.601379         48.8108         33.3998 
       0.607522         47.9443         32.6654 
       0.613639         47.4352          31.956 
       0.619772         46.4679         31.2651 
       0.625918         45.7948         30.5921 
       0.632068         45.2505         29.9376 
       0.638161         44.3346          29.308 
         0.6443         43.8666         28.6923 
       0.650464         42.7842         28.0929 
       0.656582         42.5716         27.5161 
       0.662703         41.9504         26.9561 
       0.668861         40.9361         26.4091 
       0.675024         40.6184         25.8771 
       0.681124         40.1846         25.3652 
       0.687237         39.3731         24.8659 
       0.693381         38.8078         24.3775 
       0.699536         38.4595         23.9013 
       0.705665          37.791         23.4398 
       0.711789         37.1918          22.991 
       0.717957         36.5551          22.551 
        0.72409         36.1686         22.1253 
       0.730186         35.9656         21.7134 
       0.736317         35.2669         21.3099 
       0.742472         34.8502         20.9154 
       0.748622          34.301         20.5314 
        0.75476          33.637          20.158 
       0.760888         33.5826         19.7945 
       0.767043         32.9174         19.4386 
       0.773185         32.5408         19.0922 
       0.779291         32.1252         18.7563 
       0.785407         31.7024         18.4281 
       0.791564          31.616         18.1058 
       0.797719         30.9177         17.7914 
       0.803834         30.7547         17.4865 
       0.809972         30.2546         17.1878 
       0.816124         29.9317         16.8954 
       0.822261         29.5569         16.6108 
       0.828378          29.354         16.3336 
       0.834502         29.0045         16.0626 
       0.840667         28.7166          15.796 
       0.846816          28.193         15.5364 
       0.852925         28.0458         15.2842 
       0.859047         27.8364         15.0372 
       0.865192         27.3899         14.7949 
       0.871341         27.0723         14.5579 
       0.877463         26.7731         14.3271 
       0.883569         26.6476          14.102 
       0.889708         26.2746         13.8806 
       0.895864         25.9638         13.6635 
       0.902008         25.7013         13.4515 
       0.908149         25.4026         13.2442 
       0.914301         25.2156         13.0409 
       0.920448         24.9477         12.8422 
       0.926574         24.6555         12.6483 
       0.932687         24.3916         12.4588 
       0.938823         24.0705         12.2726 
       0.944975         23.8967         12.0898 
       0.951105         23.6991         11.9114 
       0.957225         23.5115          11.737 
       0.963368         23.1954         11.5654 
       0.969511         22.9986         11.3974 
       0.975621         22.8215         11.2336 
       0.981748         22.5383         11.0726 
       0.987916         22.3943         10.9138 
        0.99406         22.1019         10.7587 
        1.00019          21.967         10.6069 
        1.00632         21.7951         10.4583 
        1.01246         21.5628         10.3123 
        1.01859         21.3556         10.1693 
        1.02471         21.1587         10.0293 
        1.03085         21.0473         9.89141 
        1.03698         20.8878         9.75645 
        1.04314         20.6473         9.62346 
        1.04929         20.3956         9.49327 
        1.05541         20.3211         9.36605 
        1.06154         20.1656         9.24086 
        1.06769          19.894         9.11779 
        1.07382         19.7524         8.99739 
        1.07993         19.5904         8.87945 
        1.08607         19.4444         8.76316 
        1.09222         19.2718         8.64885 
        1.09836         19.0812         8.53674 
        1.10449         19.0011         8.42676 
        1.11063         18.8399         8.31861 
        1.11677         18.7634         8.21242 
         1.1229         18.5499         8.10827 
        1.12903         18.3807         8.00586 
        1.13518         18.2888         7.90514 
        1.14131         18.1433         7.80622 
        1.14745         17.9194         7.70905 
        1.15359         17.7484         7.61354 
        1.15973         17.6659         7.51961 
        1.16584         17.5085          7.4277 
        1.17197         17.3202         7.33721 
        1.17811         17.2461         7.24795 
        1.18424         17.0787         7.16045 
        1.19038         17.0236         7.07415 
        1.19652         16.8204         6.98932 
        1.20267         16.7666         6.90589 
        1.20881          16.583         6.82384 
        1.21495         16.4987         6.74326 
        1.22108         16.4249         6.66401 
         1.2272         16.2768         6.58622 
        1.23334         16.1826          6.5095 
        1.23949         16.0432         6.43383 
        1.24562         15.8786         6.35959 
        1.25174         15.8366         6.28663 
        1.25789         15.7331          6.2146 
        1.26402         15.6178         6.14384 
        1.27014         15.5328         6.07436 
        1.27628         15.3705         6.00575 
        1.28244         15.3571         5.93808 
        1.28858         15.1807         5.87155 
        1.29471         15.0425          5.8062 
        1.30084         14.9451          5.7419 
        1.30697         14.8804         5.67849 
        1.31312         14.7721         5.61595 
        1.31925         14.6826         5.55456 
        1.32537         14.5544         5.49415 
        1.33151          14.461         5.43443 
        1.33765         14.4186         5.37564 
        1.34378         14.3316         5.31784 
        1.34992         14.2133         5.26086 
        1.35606         14.0759         5.20459 
         1.3622         13.9997         5.14926 
        1.36833          13.967         5.09486 
        1.37445         13.8603         5.04128 
        1.38059         13.7663         4.98832 
        1.38675         13.6945         4.93599 
        1.39288         13.5754         4.88462 
        1.39901         13.4916         4.83401 
        1.40515         13.4287         4.78401 
         1.4113         13.3423         4.73474 
        1.41742         13.2809         4.68636 
        1.42355         13.1672         4.63856 
         1.4297         13.0882         4.59129 
        1.43585         13.0188         4.54469 
        1.44198         12.9879         4.49893 
        1.44809         12.8847         4.45389 
        1.45423         12.7991         4.40929 
        1.46036         12.7172          4.3654 
        1.46649         12.6454         4.32209 
        1.47263         12.5814         4.27933 
        1.47877         12.4941         4.23718 
        1.48491         12.4385         4.19553 
        1.49104         12.3613         4.15453 
        1.49718         12.3092         4.11405 
        1.50333         12.2455         4.07405 
        1.50947         12.1728         4.03466 
         1.5156         12.1137         3.99586 
        1.52172          12.017         3.95757 
        1.52787         12.0019         3.91971 
          1.534         11.9139         3.88239 
        1.54013          11.856          3.8456 
        1.54627         11.7594         3.80923 
        1.55241         11.6757         3.77332 
        1.55855         11.6403         3.73792 
        1.56467         11.6027         3.70308 
         1.5708         11.5331         3.66859 
        1.57695         11.4714         3.63449 
        1.58308         11.3918          3.6009 
        1.58922         11.3411         3.56772 
        1.59535         11.2874         3.53497 
         1.6015         11.1814         3.50258 
        1.60764         11.1453         3.47062 
        1.61376          11.105         3.43915 
        1.61989          11.022         3.40805 
        1.62604         10.9939         3.37726 
        1.63218         10.9382         3.34687 
        1.63831         10.8578         3.31693 
        1.64444          10.795         3.28734 
        1.65059         10.7429         3.25805 
        1.65673          10.711         3.22914 
        1.66285         10.6251         3.20067 
        1.66898         10.6088         3.17253 
        1.67512         10.5741         3.14468 
        1.68127         10.4814         3.11714 
         1.6874         10.4663            3.09 
        1.69353         10.3496         3.06319 
        1.69967          10.326         3.03664 
        1.70581         10.2854         3.01042 
        1.71193         10.2246          2.9846 
        1.71806         10.1817         2.95904 
        1.72421         10.1257         2.93373 
        1.73035         10.0911         2.90874 
        1.73649         10.0538         2.88405 
        1.74262         9.96891         2.85967 
        1.74876         9.94707         2.83556 
        1.75489          9.9058         2.81177 
        1.76101         9.81899         2.78826 
        1.76715         9.82198           2.765 
        1.77329         9.74809         2.74197 
        1.77943         9.69222         2.71919 
        1.78557         9.69029         2.69671 
        1.79171         9.61431         2.67448 
        1.79785          9.5732          2.6525 
        1.80399         9.52446         2.63077 
        1.81012         9.48204         2.60931 
        1.81625         9.43782          2.5881 
        1.82239         9.39345          2.5671 
        1.82853         9.33975         2.54634 
        1.83466         9.28525         2.52584 
        1.84078         9.25325         2.50558 
        1.84692         9.24726         2.48551 
        1.85306         9.19345         2.46564 
         1.8592         9.15769         2.44602 
        1.86533         9.09032         2.42662 
        1.87147         9.06081         2.40741 
        1.87761         9.03197          2.3884 
        1.88375         8.99326         2.36962 
        1.88988         8.92977         2.35107 
        1.89601          8.9073          2.3327 
        1.90215         8.85749         2.31452 
        1.90829         8.81177         2.29653 
        1.91442         8.77933         2.27874 
        1.92056         8.76554         2.26115 
         1.9267         8.72824         2.24374 
        1.93284         8.69528         2.22649 
        1.93897         8.62981         2.20946 
        1.94509         8.59329         2.19265 
        1.95123         8.56703         2.17597 
        1.95737         8.53836         2.15945 
        1.96349         8.47517         2.14314 
        1.96964         8.45104         2.12696 
        1.97578         8.42982         2.11094 
        1.98192         8.40259         2.09512 
        1.98805         8.34024         2.07945 
        1.99419         8.32212         2.06395 
        2.00033         8.28254          2.0486 
        2.00647         8.24136         2.03341 
         2.0126         8.21637          2.0184 
        2.01874         8.17122         2.00352 
        2.02488         8.14118         1.98877 
        2.03101         8.13249          1.9742 
        2.03714         8.07138          1.9598 
        2.04328           8.029         1.94552 
        2.04941         8.00223         1.93139 
        2.05554         7.98244         1.91742 
        2.06167         7.95769         1.90356 
        2.06781         7.92259         1.88984 
        2.07396         7.89048         1.87624 
        2.08009         7.82846         1.86279 
        2.08622         7.83339          1.8495 
        2.09237         7.80401          1.8363 
        2.09851         7.75125         1.82324 
        2.10464         7.73709         1.81032 
        2.11077         7.67902         1.79754 
        2.11691         7.67214         1.78486 
        2.12305         7.63758          1.7723 
        2.12918         7.58648          1.7599 
        2.13531         7.57878         1.74761 
        2.14145         7.54142         1.73541 
         2.1476         7.52205         1.72331 
        2.15372         7.49323         1.71139 
        2.15985         7.45168         1.69958 
        2.16599         7.43893         1.68783 
        2.17213         7.42985         1.67622 
        2.17827         7.38125         1.66471 
         2.1844         7.36178         1.65333 
        2.19054         7.33149         1.64204 
        2.19666         7.30373         1.63088 
         2.2028         7.27722         1.61982 
        2.20893         7.24639         1.60885 
        2.21508         7.21758         1.59797 
        2.22122          7.1771         1.58718 
        2.22736         7.15304         1.57652 
        2.23349         7.12686         1.56596 
        2.23962         7.10954          1.5555 
        2.24577         7.09558         1.54511 
         2.2519         7.07354         1.53484 
        2.25802         7.01247         1.52468 
        2.26417         7.00732         1.51458 
        2.27031          6.9845         1.50457 
        2.27644         6.96526         1.49467 
        2.28257          6.9082         1.48487 
        2.28872         6.89651         1.47513 
        2.29486         6.87932         1.46549 
        2.30099         6.85803         1.45595 
        2.30712         6.81237         1.44649 
        2.31326         6.79745          1.4371 
         2.3194          6.7699          1.4278 
        2.32553         6.75204          1.4186 
        2.33166         6.71755         1.40948 
         2.3378         6.70335         1.40043 
        2.34394         6.67278         1.39146 
        2.35007          6.6567         1.38257 
        2.35619         6.63337         1.37378 
        2.36233         6.59642         1.36504 
        2.36848         6.57912         1.35636 
        2.37462         6.55739         1.34778 
        2.38075          6.5316         1.33928 
        2.38689         6.51974         1.33084 
        2.39303         6.48418         1.32248 
        2.39916         6.47476          1.3142 
        2.40529          6.4521         1.30599 
        2.41143         6.42659         1.29785 
        2.41757         6.39455         1.28977 
         2.4237         6.37969         1.28177 
        2.42983          6.3589         1.27385 
        2.43598         6.33521         1.26597 
        2.44211         6.30983         1.25817 
        2.44823         6.28881         1.25045 
        2.45437         6.26521         1.24278 
        2.46052         6.26041         1.23517 
        2.46665         6.23516         1.22763 
        2.47279         6.20446         1.22016 
        2.47892         6.18104         1.21275 
        2.48507          6.1634         1.20539 
         2.4912          6.1481          1.1981 
