# k  (h/Mpc)    P(k)  (Mpc/h)^3    P_linear(k)  (Mpc/h)^3
     0.00783031         12532.6         12645.8 
       0.013688         14743.1         15128.9 
       0.019231         14781.8         15004.2 
      0.0249154         13646.5         13621.5 
      0.0312784         11460.5         11554.9 
      0.0375637         9489.54         9625.01 
      0.0433917         8183.07         8205.23 
      0.0492413         7118.44          7181.8 
      0.0555754         6443.64          6443.6 
      0.0619321         5774.31         5942.86 
       0.067871         5480.26          5559.1 
      0.0738098         5126.19         5163.78 
      0.0800417         4674.77         4692.89 
      0.0862327         4148.19          4179.5 
      0.0921407         3697.17         3690.59 
      0.0982031         3305.63         3239.54 
       0.104506         2894.16         2861.59 
       0.110769         2647.09         2588.74 
       0.116806         2511.04         2410.31 
       0.122832         2360.09         2289.08 
       0.129052         2250.39         2191.34 
       0.135211         2186.53         2093.12 
       0.141259         2035.18         1977.95 
       0.147318         1881.51          1840.6 
       0.153489         1752.14         1686.85 
       0.159709         1651.08         1533.28 
       0.165845         1490.66         1397.93 
       0.171974         1436.16         1287.98 
       0.178125         1368.29         1205.12 
       0.184229         1265.96         1146.08 
        0.19034         1243.57         1102.24 
       0.196428         1207.33          1064.7 
       0.202534         1131.65          1025.4 
       0.208729         1112.17         979.118 
       0.214876         1060.72         926.163 
       0.220989         994.453          869.28 
       0.227147         963.357         812.273 
        0.23329         919.817         760.113 
       0.239377         904.521         715.964 
       0.245482         855.233         680.112 
       0.251667          822.32         651.437 
       0.257832         810.453         628.167 
       0.263955         769.575         607.555 
       0.270079         744.238         587.012 
        0.27624         713.812         564.855 
       0.282372          699.96         540.989 
        0.28843         691.341         516.235 
       0.294538         655.042         491.321 
       0.300721         636.848         467.493 
        0.30691         623.587         446.041 
       0.313033         595.103         427.626 
       0.319153         586.118         411.824 
       0.325316         576.525         397.964 
        0.33145         562.836          385.38 
       0.337538         542.311         373.331 
       0.343633         527.649         361.174 
       0.349808         514.681         348.538 
       0.355968         504.975         335.715 
       0.362074         486.919         323.083 
       0.368217         484.363         310.857 
       0.374374         475.224         299.388 
       0.380519         455.851         288.927 
       0.386598         451.239         279.542 
       0.392688         439.944         270.962 
        0.39888         428.743         262.866 
       0.405048         420.043         255.169 
       0.411186         418.848         247.682 
       0.417313         413.356         240.286 
       0.423458         401.496         232.907 
       0.429607          390.02         225.644 
       0.435692         384.475         218.673 
       0.441815         377.396         211.956 
       0.447964          369.55         205.589 
       0.454126         365.176         199.617 
       0.460267         359.133         194.027 
       0.466387         352.156         188.764 
        0.47254         347.396         183.714 
       0.478662         339.754          178.86 
       0.484765         335.477         174.134 
       0.490885         331.705         169.499 
       0.497035         324.993         164.953 
       0.503198         324.386          160.52 
       0.509342         316.616         156.249 
       0.515458         311.204          152.17 
       0.521598         306.326         148.261 
       0.527764         301.908         144.511 
       0.533884         299.895         140.947 
           0.54         295.531         137.527 
       0.546137         289.214         134.217 
       0.552299         287.959         130.995 
       0.558452         283.081         127.863 
       0.564573          281.09         124.829 
       0.570708         276.105         121.873 
       0.576825         271.511         119.017 
       0.582926         269.642         116.262 
       0.589034         265.148         113.597 
       0.595184         263.369         111.005 
       0.601379         259.225         108.487 
       0.607522         253.707         106.078 
       0.613639         252.797         103.757 
       0.619772         251.486           101.5 
       0.625918          247.36         99.3023 
       0.632068         244.026         97.1617 
       0.638161         242.598         95.0989 
         0.6443         239.528          93.079 
       0.650464         236.058         91.1106 
       0.656582         233.915         89.2151 
       0.662703         232.555         87.3749 
       0.668861         227.925          85.578 
       0.675024         227.295         83.8317 
       0.681124          224.31         82.1532 
       0.687237         222.584         80.5183 
       0.693381         219.266         78.9209 
       0.699536         218.004         77.3644 
       0.705665         215.739         75.8563 
       0.711789          213.42         74.3893 
       0.717957          211.39         72.9503 
        0.72409         208.594         71.5568 
       0.730186          209.86          70.208 
       0.736317          206.28         68.8867 
       0.742472         203.895         67.5951 
       0.748622         201.424         66.3384 
        0.75476         201.609         65.1172 
       0.760888         198.945         63.9293 
       0.767043         196.154         62.7667 
       0.773185         194.761         61.6358 
       0.779291         192.495         60.5394 
       0.785407         191.633          59.468 
       0.791564         189.909         58.4157 
       0.797719         186.791         57.3894 
       0.803834         187.925         56.3942 
       0.809972          185.57         55.4191 
       0.816124         182.619          54.465 
       0.822261         181.488         53.5361 
       0.828378         181.087         52.6318 
       0.834502         178.805         51.7478 
       0.840667         178.733         50.8786 
       0.846816         175.489          50.032 
       0.852925         175.036           49.21 
       0.859047         173.337          48.405 
       0.865192         172.928         47.6154 
       0.871341         170.852          46.843 
       0.877463         169.286         46.0913 
       0.883569         169.118          45.358 
       0.889708          167.45         44.6369 
       0.895864         165.846         43.9298 
       0.902008         164.342         43.2395 
       0.908149         162.872         42.5645 
       0.914301         161.923         41.9028 
       0.920448           161.7         41.2559 
       0.926574         159.589         40.6249 
       0.932687          159.28         40.0085 
       0.938823         157.953         39.4027 
       0.944975          157.12         38.8081 
       0.951105         155.475         38.2279 
       0.957225         154.553         37.6607 
       0.963368         153.775          37.103 
       0.969511         151.926         36.5567 
       0.975621         150.482         36.0244 
       0.981748         150.009         35.5013 
       0.987916         149.215         34.9854 
        0.99406          148.19         34.4817 
        1.00019         147.289          33.989 
        1.00632         146.234         33.5064 
        1.01246         145.292         33.0325 
        1.01859         144.199         32.5685 
        1.02471         143.159         32.1141 
        1.03085         142.236         31.6668 
        1.03698         141.298          31.229 
        1.04314         140.922         30.7977 
        1.04929         140.146         30.3756 
        1.05541         139.311         29.9631 
        1.06154         137.858         29.5572 
        1.06769         137.251         29.1583 
        1.07382         136.544         28.7681 
        1.07993          135.41          28.386 
        1.08607         134.907         28.0092 
        1.09222         133.706         27.6389 
        1.09836          133.08         27.2758 
        1.10449         132.152         26.9196 
        1.11063          131.24         26.5694 
        1.11677         130.675         26.2255 
         1.1229         129.589         25.8884 
        1.12903         128.772         25.5569 
        1.13518         127.945         25.2309 
        1.14131          127.51         24.9108 
        1.14745         126.632         24.5965 
        1.15359         125.509         24.2875 
        1.15973         125.148         23.9837 
        1.16584         124.298         23.6864 
        1.17197         123.754         23.3938 
        1.17811         122.672         23.1052 
        1.18424         122.187         22.8224 
        1.19038         121.494         22.5435 
        1.19652         120.772         22.2693 
        1.20267         119.934         21.9997 
        1.20881          119.08         21.7347 
        1.21495          118.79         21.4744 
        1.22108         117.958         21.2185 
         1.2272         117.244         20.9673 
        1.23334         116.792         20.7196 
        1.23949         116.208         20.4754 
        1.24562         115.331         20.2357 
        1.25174         115.025         20.0003 
        1.25789         113.979         19.7679 
        1.26402         113.706         19.5396 
        1.27014         112.895         19.3155 
        1.27628         112.139         19.0943 
        1.28244         111.814         18.8761 
        1.28858         110.941         18.6616 
        1.29471         110.268         18.4509 
        1.30084         109.541         18.2437 
        1.30697         108.999         18.0394 
        1.31312         108.403         17.8379 
        1.31925         107.648         17.6401 
        1.32537         107.243         17.4455 
        1.33151         107.025         17.2531 
        1.33765         106.099         17.0638 
        1.34378         105.828         16.8777 
        1.34992         105.241         16.6942 
        1.35606         104.666         16.5131 
         1.3622          104.34          16.335 
        1.36833         103.299         16.1599 
        1.37445         103.176         15.9875 
        1.38059         102.517         15.8171 
        1.38675         101.834         15.6488 
        1.39288         101.232         15.4835 
        1.39901         100.745         15.3208 
        1.40515         100.321           15.16 
         1.4113         99.7308         15.0016 
        1.41742         99.2845          14.846 
        1.42355         98.9607         14.6924 
         1.4297         98.1927         14.5404 
        1.43585         97.7917         14.3907 
        1.44198         96.9312         14.2437 
        1.44809         96.5075         14.0989 
        1.45423         96.4634         13.9557 
        1.46036         95.5074         13.8147 
        1.46649         95.0603         13.6756 
        1.47263         94.5058         13.5383 
        1.47877         94.1225          13.403 
        1.48491         93.7442         13.2693 
        1.49104         92.8677         13.1377 
        1.49718         92.5958         13.0078 
        1.50333         92.2648         12.8795 
        1.50947         91.8182         12.7531 
         1.5156         91.4334         12.6286 
        1.52172         90.6485         12.5058 
        1.52787         90.4126         12.3844 
          1.534         89.9142         12.2648 
        1.54013         89.5159         12.1468 
        1.54627         88.8226         12.0302 
        1.55241         88.7571         11.9151 
        1.55855         87.9433         11.8017 
        1.56467         87.4621           11.69 
         1.5708         86.8679         11.5795 
        1.57695         86.7565         11.4703 
        1.58308         86.2147         11.3627 
        1.58922         86.0783         11.2564 
        1.59535         85.8177         11.1515 
         1.6015         85.0169         11.0478 
        1.60764         84.5797         10.9455 
        1.61376         84.3387         10.8447 
        1.61989         83.7958         10.7452 
        1.62604         83.4154         10.6466 
        1.63218         83.0332         10.5494 
        1.63831         82.6341         10.4536 
        1.64444         82.0766         10.3589 
        1.65059         81.7163         10.2652 
        1.65673         81.5441         10.1728 
        1.66285         80.9918         10.0817 
        1.66898         80.4109         9.99174 
        1.67512         80.0254         9.90269 
        1.68127          79.843         9.81465 
         1.6874         79.2398         9.72787 
        1.69353         78.8728         9.64219 
        1.69967         78.5023         9.55735 
        1.70581         78.2627         9.47355 
        1.71193          77.751         9.39108 
        1.71806         77.4879         9.30942 
        1.72421         77.0319         9.22857 
        1.73035         76.6702         9.14876 
        1.73649         76.2124         9.06992 
        1.74262         75.9075         8.99207 
        1.74876         75.4939         8.91508 
        1.75489         75.1679         8.83915 
        1.76101         74.8467         8.76413 
        1.76715         74.4226         8.68987 
        1.77329         74.0112         8.61639 
        1.77943         73.8604         8.54372 
        1.78557         73.4666         8.47199 
        1.79171         72.9351         8.40108 
        1.79785         72.5409         8.33097 
        1.80399         72.4977         8.26167 
        1.81012         71.8961         8.19325 
        1.81625         71.5705         8.12563 
        1.82239         71.2042         8.05868 
        1.82853         70.8797         7.99251 
        1.83466         70.4506         7.92715 
        1.84078         70.2641         7.86259 
        1.84692         70.1115         7.79864 
        1.85306         69.7536         7.73533 
         1.8592         69.3496         7.67281 
        1.86533          68.924         7.61102 
        1.87147         68.6258         7.54984 
        1.87761         68.0633          7.4893 
        1.88375         68.0124          7.4295 
        1.88988           67.46         7.37041 
        1.89601          67.459         7.31193 
        1.90215         66.9052         7.25404 
        1.90829         66.5798         7.19681 
        1.91442         66.2329         7.14018 
        1.92056          66.111         7.08421 
         1.9267         65.6779         7.02879 
        1.93284         65.4824         6.97392 
        1.93897         65.0431         6.91975 
        1.94509         64.7621         6.86626 
        1.95123         64.5047         6.81321 
        1.95737         64.2403         6.76067 
        1.96349         63.9779         6.70883 
        1.96964         63.6337         6.65738 
        1.97578         63.2761         6.60644 
        1.98192         62.8626         6.55614 
        1.98805         62.4337         6.50636 
        1.99419         62.5275         6.45709 
        2.00033         61.9654         6.40831 
        2.00647         61.7293         6.36004 
         2.0126         61.4971         6.31235 
        2.01874         61.3918         6.26508 
        2.02488         61.0698         6.21825 
        2.03101         60.6296         6.17198 
        2.03714         60.3927         6.12623 
        2.04328         60.1518         6.08089 
        2.04941         59.7351         6.03604 
        2.05554         59.5206         5.99168 
        2.06167          59.201         5.94771 
        2.06781         58.9755         5.90416 
        2.07396         58.6999           5.861 
        2.08009         58.4448         5.81833 
        2.08622         58.1832         5.77614 
        2.09237         57.9309         5.73429 
        2.09851         57.4613         5.69284 
        2.10464         57.3005         5.65187 
        2.11077          57.152         5.61136 
        2.11691         56.8339         5.57115 
        2.12305          56.505         5.53133 
        2.12918         56.2208         5.49199 
        2.13531         56.0432         5.45304 
        2.14145         55.6979         5.41437 
         2.1476         55.6492         5.37603 
        2.15372         55.2213         5.33825 
        2.15985         54.9802          5.3008 
        2.16599         54.7617          5.2636 
        2.17213         54.4436          5.2268 
        2.17827         54.1723         5.19035 
         2.1844         53.8656         5.15428 
        2.19054         53.8291         5.11855 
        2.19666         53.5988          5.0832 
         2.2028         53.1931         5.04815 
        2.20893         52.9312         5.01342 
        2.21508         52.6259         4.97898 
        2.22122         52.4109         4.94484 
        2.22736         52.1931          4.9111 
        2.23349         51.9812         4.87768 
        2.23962         51.8021         4.84455 
        2.24577         51.5135          4.8117 
         2.2519         51.2431          4.7792 
        2.25802         51.0439         4.74705 
        2.26417         50.7699         4.71511 
        2.27031         50.6188         4.68343 
        2.27644          50.362         4.65213 
        2.28257         50.0936         4.62112 
        2.28872          49.889         4.59034 
        2.29486         49.6993         4.55984 
        2.30099         49.3158         4.52968 
        2.30712         49.2127         4.49978 
        2.31326         49.0326          4.4701 
         2.3194         48.7806          4.4407 
        2.32553         48.5301         4.41161 
        2.33166         48.3219          4.3828 
         2.3378          48.079         4.35421 
        2.34394         47.8587         4.32586 
        2.35007         47.6593          4.2978 
        2.35619         47.4654         4.27003 
        2.36233         47.2655         4.24243 
        2.36848         47.0045         4.21502 
        2.37462         46.7282         4.18791 
        2.38075         46.5836         4.16107 
        2.38689         46.3216         4.13443 
        2.39303         46.2059         4.10804 
        2.39916         45.9224          4.0819 
        2.40529         45.7959         4.05599 
        2.41143         45.5868         4.03029 
        2.41757         45.3764          4.0048 
         2.4237         45.1947         3.97957 
        2.42983         44.9859         3.95457 
        2.43598         44.7877         3.92971 
        2.44211          44.467         3.90511 
        2.44823         44.4217         3.88077 
        2.45437         44.1275         3.85657 
        2.46052         43.8498         3.83256 
        2.46665         43.6974          3.8088 
        2.47279         43.5231         3.78524 
        2.47892         43.3628         3.76187 
        2.48507         43.1995         3.73867 
         2.4912         42.8856         3.71571 
