# k  (h/Mpc)    Pcb(k)  (Mpc/h)^3    Pcb_linear(k)  (Mpc/h)^3
     0.00783031         3849.48         3868.76 
       0.013688         5048.03         5128.53 
       0.019231          5465.1          5510.7 
      0.0249154         5393.23         5394.41 
      0.0312784         4927.15         4956.69 
      0.0375637         4394.91         4440.84 
      0.0433917         3998.66         4010.78 
      0.0492413          3634.8         3669.06 
      0.0555754         3381.24          3394.5 
      0.0619321         3107.46         3182.03 
       0.067871         2960.29         3001.34 
      0.0738098          2779.4         2810.37 
      0.0800417         2566.75         2588.44 
      0.0862327         2325.76         2354.27 
      0.0921407          2111.7         2135.94 
      0.0982031         1928.91         1935.75 
       0.104506         1742.73            1766 
       0.110769         1620.51         1638.43 
       0.116806          1551.3          1547.5 
       0.122832         1462.93         1476.32 
       0.129052         1402.04         1409.95 
       0.135211         1346.53         1340.74 
       0.141259         1259.77         1264.68 
       0.147318         1165.85         1181.61 
       0.153489         1093.38         1095.42 
       0.159709         1029.59         1014.01 
       0.165845         943.086         944.583 
       0.171974         912.818         888.486 
       0.178125         873.467         844.662 
       0.184229         821.712         810.259 
        0.19034          803.33         780.484 
       0.196428         776.355         751.349 
       0.202534         730.382          719.93 
       0.208729         710.934         685.015 
       0.214876         681.684         648.415 
       0.220989         634.481         612.233 
       0.227147         617.893         578.314 
        0.23329         593.101         548.658 
       0.239377         576.587         523.978 
       0.245482         549.099         503.439 
       0.251667         528.243         485.695 
       0.257832         522.468         469.537 
       0.263955         495.787         453.632 
       0.270079         479.738         437.053 
        0.27624         458.939         419.551 
       0.282372           446.5         401.712 
        0.28843         441.856         384.415 
       0.294538         420.571         368.024 
       0.300721         404.368         353.057 
        0.30691         397.983         339.861 
       0.313033         382.325         328.396 
       0.319153         375.987         318.082 
       0.325316         364.971         308.343 
        0.33145         355.985         298.834 
       0.337538         344.737         289.328 
       0.343633         334.356         279.666 
       0.349808         325.062         269.888 
       0.355968         317.485         260.356 
       0.362074         310.476         251.388 
       0.368217         304.939         243.008 
       0.374374         298.518          235.31 
       0.380519         286.446         228.278 
       0.386598         281.415         221.806 
       0.392688         275.009         215.653 
        0.39888         269.171         209.574 
       0.405048         264.228         203.593 
       0.411186         260.703         197.701 
       0.417313         254.948         191.897 
       0.423458         248.436         186.228 
       0.429607         243.894         180.793 
       0.435692         239.351         175.693 
       0.441815         233.927         170.857 
       0.447964         227.705         166.296 
       0.454126         223.866         161.967 
       0.460267         221.924         157.833 
       0.466387         217.498         153.847 
        0.47254         215.073         149.938 
       0.478662         208.344         146.122 
       0.484765          205.73         142.401 
       0.490885         202.146         138.776 
       0.497035         200.641         135.257 
       0.503198         196.635         131.869 
       0.509342         191.692         128.637 
       0.515458         189.974         125.567 
       0.521598         185.536         122.613 
       0.527764         183.581         119.752 
       0.533884         182.834         117.002 
           0.54         178.264          114.33 
       0.546137         174.252         111.721 
       0.552299         172.621         109.166 
       0.558452         169.595         106.683 
       0.564573         168.921         104.286 
       0.570708         164.527         101.963 
       0.576825         162.648         99.7298 
       0.582926         160.966         97.5803 
       0.589034         158.741         95.4989 
       0.595184          157.21         93.4688 
       0.601379         153.334         91.4855 
       0.607522         151.399         89.5753 
       0.613639         150.126         87.7255 
       0.619772         148.073         85.9198 
       0.625918         146.742         84.1572 
       0.632068         144.082         82.4409 
       0.638161         141.928         80.7878 
         0.6443          141.33         79.1707 
       0.650464         138.823         77.5964 
       0.656582         138.234         76.0804 
       0.662703         136.679         74.6071 
       0.668861         133.908         73.1657 
       0.675024          133.92         71.7609 
       0.681124         131.753         70.4059 
       0.687237         129.299         69.0821 
       0.693381          128.91         67.7854 
       0.699536         127.352         66.5198 
       0.705665         125.407         65.2926 
       0.711789         123.935         64.0985 
       0.717957         122.684         62.9273 
        0.72409         121.951         61.7929 
       0.730186         121.028         60.6941 
       0.736317         118.896         59.6164 
       0.742472         117.754         58.5612 
       0.748622         116.075         57.5325 
        0.75476         115.359         56.5307 
       0.760888         114.827         55.5544 
       0.767043         112.896         54.5974 
       0.773185         111.741         53.6652 
       0.779291         110.553         52.7603 
       0.785407         109.102         51.8755 
       0.791564         109.122         51.0057 
       0.797719         107.979         50.1568 
       0.803834         106.848         49.3329 
       0.809972          106.24         48.5248 
       0.816124         105.074         47.7334 
       0.822261         103.759          46.962 
       0.828378         103.484         46.2101 
       0.834502         101.901         45.4742 
       0.840667         101.455         44.7497 
       0.846816         100.376         44.0432 
       0.852925         99.6096         43.3566 
       0.859047         99.1109         42.6833 
       0.865192         97.6724         42.0223 
       0.871341         96.7125          41.375 
       0.877463         96.2071         40.7445 
       0.883569         95.8794         40.1289 
       0.889708         95.0574          39.523 
       0.895864         94.1376         38.9282 
       0.902008         93.3744         38.3471 
       0.908149         92.4643         37.7784 
       0.914301         92.0867         37.2204 
       0.920448         91.5278         36.6744 
       0.926574         89.9286         36.1413 
       0.932687         89.6309         35.6201 
       0.938823         88.8889         35.1074 
       0.944975         87.9954         34.6037 
       0.951105         87.2967         34.1118 
       0.957225         87.2555         33.6305 
       0.963368         86.2956         33.1568 
       0.969511         85.5379         32.6924 
       0.975621          84.992         32.2395 
       0.981748         84.1557         31.7941 
       0.987916         83.5931         31.3544 
        0.99406         83.1453         30.9247 
        1.00019         82.3421          30.504 
        1.00632         81.8614         30.0916 
        1.01246         81.2708         29.6863 
        1.01859           80.88         29.2892 
        1.02471         79.9377         28.8999 
        1.03085          79.588         28.5164 
        1.03698         79.0403         28.1408 
        1.04314         78.5988         27.7704 
        1.04929         77.9651         27.4076 
        1.05541         77.4696         27.0528 
        1.06154         77.1306         26.7035 
        1.06769         76.1473         26.3599 
        1.07382         75.8892         26.0235 
        1.07993         75.4329         25.6938 
        1.08607         74.8144         25.3685 
        1.09222         74.5621         25.0486 
        1.09836         73.9325         24.7347 
        1.10449           73.49         24.4265 
        1.11063         72.8977         24.1233 
        1.11677         72.8507         23.8254 
         1.1229         72.0266         23.5332 
        1.12903         71.8994         23.2456 
        1.13518         71.6483         22.9626 
        1.14131         70.8816         22.6845 
        1.14745         70.1661         22.4113 
        1.15359         69.6839         22.1425 
        1.15973         69.5003         21.8781 
        1.16584         69.0761         21.6192 
        1.17197         68.3139         21.3642 
        1.17811         68.0998         21.1126 
        1.18424         67.3461         20.8657 
        1.19038         67.2446         20.6222 
        1.19652         66.9872         20.3826 
        1.20267          66.519         20.1469 
        1.20881         66.0528          19.915 
        1.21495         65.7941         19.6872 
        1.22108         65.4598         19.4629 
         1.2272         65.0273         19.2428 
        1.23334         64.6231         19.0255 
        1.23949         64.2835         18.8111 
        1.24562         63.7389         18.6007 
        1.25174         63.4168         18.3938 
        1.25789         63.4503         18.1894 
        1.26402         62.8801         17.9885 
        1.27014          62.456         17.7912 
        1.27628         61.9625         17.5963 
        1.28244          61.815          17.404 
        1.28858          61.381         17.2148 
        1.29471         61.2045         17.0288 
        1.30084         60.6665         16.8458 
        1.30697          60.499         16.6653 
        1.31312         59.9779         16.4871 
        1.31925         59.6105         16.3122 
        1.32537         59.3909         16.1399 
        1.33151         59.0247         15.9696 
        1.33765         58.7713         15.8019 
        1.34378         58.5462         15.6369 
        1.34992         58.1424         15.4741 
        1.35606         57.8137         15.3134 
         1.3622         57.3917         15.1552 
        1.36833         57.0837         14.9997 
        1.37445         56.7684         14.8465 
        1.38059         56.5801         14.6949 
        1.38675         56.0245         14.5451 
        1.39288         56.0019          14.398 
        1.39901         55.5986         14.2531 
        1.40515         55.3733         14.1098 
         1.4113         55.3255         13.9685 
        1.41742         54.9609         13.8298 
        1.42355         54.4302         13.6926 
         1.4297         54.1597          13.557 
        1.43585            53.8         13.4232 
        1.44198         53.5963         13.2918 
        1.44809         53.3577         13.1624 
        1.45423          53.162         13.0342 
        1.46036         52.8736          12.908 
        1.46649         52.6672         12.7834 
        1.47263           52.27         12.6604 
        1.47877         52.1129         12.5391 
        1.48491         51.9431         12.4192 
        1.49104         51.5341         12.3011 
        1.49718         51.3019         12.1845 
        1.50333         51.1746         12.0692 
        1.50947         50.7497         11.9556 
         1.5156         50.5763         11.8437 
        1.52172         50.1921         11.7333 
        1.52787         49.9963          11.624 
          1.534         49.7897         11.5163 
        1.54013          49.585           11.41 
        1.54627         49.1851         11.3049 
        1.55241         49.0499         11.2011 
        1.55855         48.8267         11.0988 
        1.56467         48.6723         10.9981 
         1.5708         48.4333         10.8983 
        1.57695         48.1568         10.7996 
        1.58308         47.7668         10.7024 
        1.58922         47.5718         10.6063 
        1.59535         47.4388         10.5115 
         1.6015         47.2921         10.4176 
        1.60764         47.0746          10.325 
        1.61376         46.7529         10.2338 
        1.61989         46.4855         10.1436 
        1.62604         46.3339         10.0543 
        1.63218         46.0586         9.96609 
        1.63831         45.9869         9.87918 
        1.64444           45.68         9.79329 
        1.65059         45.4886         9.70822 
        1.65673           45.21         9.62426 
        1.66285         45.1192         9.54153 
        1.66898         44.7608         9.45975 
        1.67512         44.6787         9.37878 
        1.68127         44.4194         9.29869 
         1.6874         44.2235         9.21972 
        1.69353          44.068         9.14172 
        1.69967         43.8609         9.06444 
        1.70581         43.4569         8.98809 
        1.71193         43.3017         8.91292 
        1.71806         43.2174         8.83846 
        1.72421         43.0614          8.7647 
        1.73035         42.7806         8.69187 
        1.73649         42.5067         8.61989 
        1.74262         42.2919         8.54879 
        1.74876         42.0633         8.47845 
        1.75489         41.9832         8.40905 
        1.76101         41.8538         8.34046 
        1.76715         41.6153         8.27253 
        1.77329          41.384         8.20529 
        1.77943         41.3338         8.13877 
        1.78557         41.0586         8.07308 
        1.79171         40.8986         8.00812 
        1.79785         40.6767         7.94386 
        1.80399         40.5375         7.88033 
        1.81012         40.3799         7.81757 
        1.81625         40.0725         7.75554 
        1.82239         39.9504         7.69409 
        1.82853         39.8046         7.63334 
        1.83466         39.6039          7.5733 
        1.84078         39.3883         7.51398 
        1.84692         39.2464         7.45521 
        1.85306         39.0188         7.39699 
         1.8592         38.8888         7.33949 
        1.86533         38.7142         7.28264 
        1.87147         38.5475         7.22633 
        1.87761         38.3673         7.17059 
        1.88375         38.3087         7.11551 
        1.88988              38         7.06107 
        1.89601         37.8459         7.00717 
        1.90215         37.7169         6.95379 
        1.90829         37.5787           6.901 
        1.91442         37.3218         6.84875 
        1.92056         37.2224          6.7971 
         1.9267         37.0688         6.74593 
        1.93284         36.9118         6.69526 
        1.93897         36.7336          6.6452 
        1.94509         36.6064         6.59577 
        1.95123         36.4284         6.54672 
        1.95737          36.294         6.49813 
        1.96349         36.0556         6.45017 
        1.96964         36.0392         6.40256 
        1.97578         35.8079          6.3554 
        1.98192         35.6187         6.30882 
        1.98805         35.3795         6.26271 
        1.99419         35.3931         6.21705 
        2.00033         35.1679         6.17183 
        2.00647         35.0295         6.12708 
         2.0126         34.8464         6.08285 
        2.01874         34.6718         6.03898 
        2.02488         34.5872         5.99552 
        2.03101         34.3782         5.95257 
        2.03714         34.2363         5.91007 
        2.04328         34.1315         5.86795 
        2.04941         33.9507         5.82627 
        2.05554         33.8923         5.78504 
        2.06167         33.6966         5.74414 
        2.06781         33.5579         5.70364 
        2.07396         33.4676         5.66347 
        2.08009         33.2856         5.62376 
        2.08622         33.1167         5.58448 
        2.09237         33.0035          5.5455 
        2.09851         32.7584         5.50689 
        2.10464         32.6916         5.46871 
        2.11077         32.6526         5.43094 
        2.11691         32.4372         5.39344 
        2.12305         32.3192          5.3563 
        2.12918          32.156          5.3196 
        2.13531         32.0531         5.28325 
        2.14145         31.8622         5.24715 
         2.1476         31.7032         5.21135 
        2.15372         31.5838         5.17606 
        2.15985         31.5098         5.14107 
        2.16599         31.3556          5.1063 
        2.17213         31.2538         5.07189 
        2.17827          31.034         5.03781 
         2.1844         30.9488         5.00407 
        2.19054         30.8787         4.97063 
        2.19666         30.6993         4.93755 
         2.2028         30.6141         4.90474 
        2.20893         30.3813         4.87221 
        2.21508         30.2974         4.83994 
        2.22122          30.181         4.80796 
        2.22736         30.0843         4.77633 
        2.23349         29.9326           4.745 
        2.23962         29.8981         4.71393 
        2.24577         29.6928         4.68311 
         2.2519         29.5908         4.65262 
        2.25802         29.3883         4.62244 
        2.26417         29.2947         4.59245 
        2.27031         29.2219          4.5627 
        2.27644          29.157          4.5333 
        2.28257          28.997         4.50417 
        2.28872         28.8921         4.47523 
        2.29486         28.7648         4.44656 
        2.30099         28.5818          4.4182 
        2.30712         28.5371         4.39007 
        2.31326         28.3714         4.36215 
         2.3194         28.2918         4.33448 
        2.32553         28.1671          4.3071 
        2.33166          28.002         4.27997 
         2.3378          27.982         4.25304 
        2.34394         27.8367         4.22633 
        2.35007         27.7214         4.19989 
        2.35619         27.5829         4.17371 
        2.36233         27.5012         4.14769 
        2.36848         27.3756         4.12184 
        2.37462         27.2323         4.09627 
        2.38075         27.1142         4.07093 
        2.38689         27.0171          4.0458 
        2.39303         26.9343         4.02088 
        2.39916         26.8093         3.99619 
        2.40529         26.6607         3.97172 
        2.41143         26.6148         3.94744 
        2.41757         26.4559         3.92334 
         2.4237         26.3577          3.8995 
        2.42983         26.2834         3.87585 
        2.43598         26.1738         3.85234 
        2.44211         26.0637         3.82907 
        2.44823         25.9829         3.80604 
        2.45437         25.8714         3.78314 
        2.46052           25.74         3.76041 
        2.46665         25.6774          3.7379 
        2.47279         25.5104         3.71559 
        2.47892          25.448         3.69345 
        2.48507         25.3555         3.67146 
         2.4912          25.243          3.6497 
