# k  (h/Mpc)    P(k)  (Mpc/h)^3    P_linear(k)  (Mpc/h)^3
     0.00783031         1859.69         1872.96 
       0.013688         2448.78         2481.29 
       0.019231         2648.43         2665.46 
      0.0249154         2607.46         2608.82 
      0.0312784         2388.35         2396.88 
      0.0375637         2134.27          2147.3 
      0.0433917         1938.58         1939.28 
      0.0492413         1765.56            1774 
      0.0555754         1641.01         1641.21 
      0.0619321         1516.64         1538.45 
       0.067871         1441.49         1451.08 
      0.0738098         1351.91         1358.73 
      0.0800417         1248.38         1251.43 
      0.0862327         1132.01         1138.21 
      0.0921407         1027.08         1032.64 
      0.0982031          935.93         935.856 
       0.104506          847.27         853.784 
       0.110769         787.216         792.105 
       0.116806          750.87         748.146 
       0.122832         710.059         713.729 
       0.129052         680.744         681.642 
       0.135211         651.247         648.184 
       0.141259         610.702         611.409 
       0.147318         566.397         571.249 
       0.153489         529.252         529.581 
       0.159709         494.762         490.221 
       0.165845         454.854         456.656 
       0.171974         436.762         429.536 
       0.178125         416.229         408.348 
       0.184229         394.637         391.716 
        0.19034         384.186         377.322 
       0.196428         370.172         363.236 
       0.202534         349.708         348.046 
       0.208729         337.965         331.167 
       0.214876         323.311         313.473 
       0.220989         300.785         295.981 
       0.227147         291.036         279.582 
        0.23329         278.237         265.245 
       0.239377         268.229         253.314 
       0.245482         256.128         243.384 
       0.251667         246.026         234.806 
       0.257832          241.96         226.995 
       0.263955         230.596         219.305 
       0.270079          222.76          211.29 
        0.27624         212.862         202.829 
       0.282372         205.627         194.205 
        0.28843         201.813         185.842 
       0.294538         192.633         177.918 
       0.300721         184.148         170.683 
        0.30691          180.46         164.303 
       0.313033         173.645          158.76 
       0.319153         170.745         153.774 
       0.325316         163.905         149.066 
        0.33145         159.141         144.469 
       0.337538         154.616         139.873 
       0.343633         150.159         135.202 
       0.349808         145.372         130.475 
       0.355968         141.033         125.867 
       0.362074         138.183         121.531 
       0.368217         134.428          117.48 
       0.374374         131.682         113.759 
       0.380519         126.163         110.359 
       0.386598         123.083          107.23 
       0.392688         119.864         104.255 
        0.39888           117.7         101.317 
       0.405048          115.07         98.4251 
       0.411186         112.452         95.5769 
       0.417313         109.481         92.7708 
       0.423458         106.576         90.0305 
       0.429607         104.813         87.4027 
       0.435692         102.986         84.9371 
       0.441815         99.4156         82.5991 
       0.447964         96.6926         80.3943 
       0.454126         95.0044         78.3013 
       0.460267         94.3004         76.3028 
       0.466387         91.8595         74.3759 
        0.47254         90.7102         72.4863 
       0.478662         87.8399         70.6415 
       0.484765         86.2775         68.8426 
       0.490885         84.0275         67.0899 
       0.497035         83.1558         65.3887 
       0.503198         81.0927         63.7507 
       0.509342         79.1585         62.1884 
       0.515458         78.3141         60.7041 
       0.521598         76.4906         59.2759 
       0.527764         75.6166         57.8933 
       0.533884         74.3302         56.5633 
           0.54         72.7418         55.2719 
       0.546137         70.7431         54.0103 
       0.552299         69.7144         52.7752 
       0.558452         68.4234         51.5747 
       0.564573         68.0115         50.4159 
       0.570708         66.0667          49.293 
       0.576825         65.3565         48.2134 
       0.582926         64.4407         47.1743 
       0.589034         63.3028          46.168 
       0.595184         62.4878         45.1866 
       0.601379         60.8607         44.2278 
       0.607522         60.1128         43.3043 
       0.613639         59.3238         42.4101 
       0.619772         58.3635         41.5371 
       0.625918         57.3284          40.685 
       0.632068         56.8766         39.8552 
       0.638161         55.7563         39.0561 
         0.6443         55.1009         38.2743 
       0.650464         53.8471         37.5133 
       0.656582         53.5783         36.7803 
       0.662703         53.0196         36.0681 
       0.668861         51.7315         35.3712 
       0.675024         51.3295         34.6921 
       0.681124         50.8231         34.0371 
       0.687237         49.8549          33.397 
       0.693381         49.0915         32.7702 
       0.699536         48.8705         32.1584 
       0.705665         48.0074         31.5651 
       0.711789         47.2461         30.9878 
       0.717957         46.4532         30.4216 
        0.72409         46.0611         29.8732 
       0.730186         45.8509          29.342 
       0.736317         45.0161          28.821 
       0.742472         44.4973         28.3108 
       0.748622         43.8323         27.8135 
        0.75476         42.9085         27.3292 
       0.760888         42.8159         26.8572 
       0.767043         42.1414         26.3946 
       0.773185         41.8158         25.9439 
       0.779291         41.3577         25.5065 
       0.785407         40.6928         25.0787 
       0.791564         40.5676         24.6582 
       0.797719         39.8208         24.2478 
       0.803834          39.583         23.8495 
       0.809972         38.9484         23.4589 
       0.816124         38.5744         23.0762 
       0.822261          38.186         22.7033 
       0.828378         37.8513         22.3398 
       0.834502          37.511         21.9841 
       0.840667         37.1427         21.6338 
       0.846816         36.3987         21.2923 
       0.852925         36.3619         20.9603 
       0.859047         35.9671         20.6348 
       0.865192         35.4944         20.3153 
       0.871341          35.093         20.0024 
       0.877463         34.8082         19.6975 
       0.883569         34.6503         19.3999 
       0.889708         34.1637          19.107 
       0.895864          33.766         18.8195 
       0.902008         33.3799         18.5386 
       0.908149         33.0958         18.2636 
       0.914301         32.9362         17.9938 
       0.920448         32.4879         17.7299 
       0.926574         32.1728         17.4722 
       0.932687         31.8773         17.2202 
       0.938823          31.525         16.9723 
       0.944975         31.2711         16.7288 
       0.951105         30.9895          16.491 
       0.957225         30.8418         16.2583 
       0.963368         30.4047         16.0294 
       0.969511         30.1531         15.8048 
       0.975621         29.8898         15.5859 
       0.981748          29.566         15.3705 
       0.987916         29.3984          15.158 
        0.99406         29.0959         14.9502 
        1.00019         28.8833         14.7469 
        1.00632         28.6518         14.5475 
        1.01246         28.4498         14.3515 
        1.01859         28.1143         14.1596 
        1.02471         27.8722         13.9714 
        1.03085         27.7865          13.786 
        1.03698         27.5331         13.6044 
        1.04314         27.2403         13.4253 
        1.04929         26.9641         13.2499 
        1.05541         26.8895         13.0784 
        1.06154         26.7005         12.9095 
        1.06769         26.4349         12.7434 
        1.07382         26.1194         12.5808 
        1.07993         25.9161         12.4214 
        1.08607         25.8121         12.2642 
        1.09222         25.5505         12.1095 
        1.09836          25.411         11.9577 
        1.10449         25.1803         11.8088 
        1.11063         25.0423         11.6622 
        1.11677         24.9386         11.5182 
         1.1229         24.6905         11.3769 
        1.12903         24.5441         11.2378 
        1.13518         24.2751          11.101 
        1.14131         24.1718         10.9666 
        1.14745         23.8597         10.8345 
        1.15359         23.6993         10.7046 
        1.15973         23.5105         10.5768 
        1.16584         23.3563         10.4516 
        1.17197         23.1635         10.3283 
        1.17811         23.0128         10.2067 
        1.18424          22.875         10.0873 
        1.19038         22.7618         9.96958 
        1.19652         22.5626         9.85378 
        1.20267         22.4285         9.73983 
        1.20881         22.2298         9.62772 
        1.21495         22.0629         9.51757 
        1.22108         22.0464         9.40917 
         1.2272         21.8643         9.30273 
        1.23334          21.722          9.1977 
        1.23949         21.5596         9.09406 
        1.24562         21.3699         8.99231 
        1.25174         21.2771         8.89229 
        1.25789         21.1071         8.79349 
        1.26402         21.0324         8.69638 
        1.27014         20.9125         8.60099 
        1.27628         20.6734         8.50676 
        1.28244         20.6842         8.41377 
        1.28858         20.4623         8.32231 
        1.29471         20.2401         8.23242 
        1.30084         20.1476         8.14395 
        1.30697         20.1342         8.05667 
        1.31312          19.919         7.97054 
        1.31925         19.8328         7.88596 
        1.32537         19.7039          7.8027 
        1.33151         19.5809         7.72035 
        1.33765         19.4744         7.63925 
        1.34378         19.3979         7.55949 
        1.34992         19.2498         7.48082 
        1.35606         19.0838         7.40311 
         1.3622         18.9529         7.32665 
        1.36833         18.9112         7.25146 
        1.37445         18.8231         7.17738 
        1.38059         18.7165         7.10411 
        1.38675         18.5697         7.03169 
        1.39288         18.4204         6.96059 
        1.39901         18.3693          6.8905 
        1.40515         18.2364         6.82123 
         1.4113         18.1259         6.75295 
        1.41742         18.0553         6.68587 
        1.42355         17.8946         6.61958 
         1.4297         17.8354         6.55399 
        1.43585         17.7501         6.48933 
        1.44198         17.6675         6.42579 
        1.44809         17.5617         6.36322 
        1.45423         17.4302         6.30127 
        1.46036         17.3554         6.24025 
        1.46649         17.2457         6.18003 
        1.47263         17.1921         6.12056 
        1.47877         17.0872         6.06191 
        1.48491         16.9902         6.00394 
        1.49104         16.8785         5.94685 
        1.49718         16.8243         5.89047 
        1.50333          16.725         5.83474 
        1.50947         16.6334         5.77984 
         1.5156         16.5612         5.72574 
        1.52172         16.4734         5.67233 
        1.52787         16.3762         5.61951 
          1.534         16.3235         5.56742 
        1.54013         16.2313         5.51606 
        1.54627         16.1278         5.46525 
        1.55241         16.0141         5.41508 
        1.55855         15.9979         5.36562 
        1.56467         15.8919         5.31691 
         1.5708         15.8417         5.26867 
        1.57695         15.7248         5.22097 
        1.58308         15.6306         5.17397 
        1.58922         15.5763         5.12752 
        1.59535         15.4694         5.08166 
         1.6015         15.3635          5.0363 
        1.60764         15.3397         4.99152 
        1.61376          15.291         4.94741 
        1.61989         15.1621         4.90381 
        1.62604         15.1335         4.86063 
        1.63218         15.0627         4.81801 
        1.63831         14.9632           4.776 
        1.64444         14.8698         4.73447 
        1.65059         14.7976         4.69334 
        1.65673         14.7558         4.65275 
        1.66285         14.6805         4.61276 
        1.66898         14.6224         4.57323 
        1.67512         14.5419         4.53408 
        1.68127         14.4349         4.49536 
         1.6874         14.4119         4.45718 
        1.69353         14.3341         4.41947 
        1.69967         14.2599         4.38212 
        1.70581         14.1939         4.34521 
        1.71193         14.1551         4.30887 
        1.71806         14.1024         4.27287 
        1.72421         13.9923         4.23721 
        1.73035         13.9381           4.202 
        1.73649         13.9014          4.1672 
        1.74262         13.7674         4.13283 
        1.74876         13.7778         4.09883 
        1.75489         13.6971         4.06527 
        1.76101         13.6188         4.03211 
        1.76715         13.5817         3.99928 
        1.77329         13.5221         3.96677 
        1.77943         13.4274         3.93461 
        1.78557         13.4194         3.90285 
        1.79171         13.3406         3.87145 
        1.79785         13.3088         3.84038 
        1.80399         13.1895         3.80967 
        1.81012         13.1759         3.77933 
        1.81625         13.0697         3.74934 
        1.82239         13.0256         3.71963 
        1.82853         12.9689         3.69026 
        1.83466          12.891         3.66124 
        1.84078         12.8813         3.63256 
        1.84692         12.8272         3.60415 
        1.85306         12.7767           3.576 
         1.8592         12.7215         3.54821 
        1.86533         12.6686         3.52072 
        1.87147         12.5906          3.4935 
        1.87761         12.5555         3.46655 
        1.88375         12.4944         3.43992 
        1.88988         12.4276          3.4136 
        1.89601         12.4071         3.38755 
        1.90215         12.3182         3.36174 
        1.90829          12.285         3.33622 
        1.91442         12.2282         3.31096 
        1.92056         12.2197         3.28599 
         1.9267         12.1324         3.26125 
        1.93284          12.121         3.23676 
        1.93897         12.0431         3.21256 
        1.94509         11.9856         3.18866 
        1.95123         11.9663         3.16495 
        1.95737          11.918         3.14146 
        1.96349         11.8173         3.11827 
        1.96964         11.7993         3.09525 
        1.97578          11.755         3.07246 
        1.98192         11.6895         3.04994 
        1.98805         11.6572         3.02765 
        1.99419         11.6255         3.00557 
        2.00033         11.5737         2.98371 
        2.00647         11.5371         2.96208 
         2.0126         11.4882         2.94069 
        2.01874         11.4198         2.91949 
        2.02488         11.3905         2.89848 
        2.03101         11.3281         2.87771 
        2.03714         11.2812         2.85717 
        2.04328         11.2385          2.8368 
        2.04941         11.1861         2.81666 
        2.05554         11.1718         2.79672 
        2.06167         11.1206         2.77695 
        2.06781         11.0652         2.75737 
        2.07396         11.0434         2.73795 
        2.08009         10.9815         2.71875 
        2.08622         10.9639         2.69976 
        2.09237         10.9305         2.68092 
        2.09851         10.8487         2.66225 
        2.10464         10.8401         2.64379 
        2.11077         10.7722         2.62554 
        2.11691          10.773         2.60741 
        2.12305         10.7017         2.58945 
        2.12918         10.6568         2.57171 
        2.13531         10.6283         2.55414 
        2.14145         10.5913         2.53668 
         2.1476         10.5466         2.51938 
        2.15372         10.5036         2.50232 
        2.15985         10.4761          2.4854 
        2.16599         10.4335         2.46859 
        2.17213         10.4217         2.45196 
        2.17827         10.3603         2.43548 
         2.1844         10.3344         2.41917 
        2.19054         10.2922         2.40301 
        2.19666         10.2544         2.38701 
         2.2028         10.2068         2.37115 
        2.20893          10.185         2.35542 
        2.21508          10.146         2.33982 
        2.22122         10.0826         2.32436 
        2.22736         10.0699         2.30907 
        2.23349         10.0281         2.29392 
        2.23962         10.0017          2.2789 
        2.24577         9.95629         2.26401 
         2.2519         9.93874         2.24926 
        2.25802         9.85967         2.23468 
        2.26417         9.85664         2.22018 
        2.27031         9.80774          2.2058 
        2.27644         9.77267         2.19158 
        2.28257         9.72789          2.1775 
        2.28872         9.72184         2.16351 
        2.29486         9.68475         2.14965 
        2.30099         9.64821         2.13594 
        2.30712         9.60609         2.12234 
        2.31326         9.56638         2.10884 
         2.3194         9.53739         2.09546 
        2.32553         9.48876         2.08223 
        2.33166         9.46288         2.06911 
         2.3378         9.44208         2.05609 
        2.34394         9.41717         2.04318 
        2.35007         9.35716          2.0304 
        2.35619         9.35261         2.01774 
        2.36233         9.29931         2.00516 
        2.36848         9.27724         1.99266 
        2.37462         9.24838          1.9803 
        2.38075         9.22347         1.96805 
        2.38689         9.19087          1.9559 
        2.39303          9.1399         1.94385 
        2.39916         9.12256         1.93192 
        2.40529         9.08379         1.92009 
        2.41143         9.06092         1.90835 
        2.41757          9.0313          1.8967 
         2.4237         8.98928         1.88518 
        2.42983         8.97723         1.87375 
        2.43598         8.94853         1.86238 
        2.44211         8.92652         1.85113 
        2.44823         8.87231         1.83999 
        2.45437         8.84848         1.82892 
        2.46052         8.82564         1.81793 
        2.46665         8.80446         1.80705 
        2.47279         8.76649         1.79627 
        2.47892         8.72338         1.78556 
        2.48507         8.70986         1.77493 
         2.4912         8.67647         1.76441 
