# k  (h/Mpc)    P(k)  (Mpc/h)^3    P_linear(k)  (Mpc/h)^3
     0.00783031         14791.3         14860.9 
       0.013688         18263.1         18762.2 
       0.019231         18962.2         19275.7 
      0.0249154         18056.3         18057.2 
      0.0312784         15683.3         15895.1 
      0.0375637         13507.1         13810.1 
      0.0433917         12143.7         12277.5 
      0.0492413         10939.4         11166.9 
      0.0555754         10156.1         10311.5 
      0.0619321         9163.06         9609.81 
       0.067871         8647.75         8941.66 
      0.0738098         8007.46         8195.71 
      0.0800417         7213.68         7351.54 
      0.0862327         6404.18         6531.18 
      0.0921407         5783.07         5844.76 
      0.0982031         5314.25         5286.09 
       0.104506         4819.01          4865.4 
       0.110769         4541.08          4572.3 
       0.116806         4384.64         4353.15 
       0.122832         4128.76         4144.42 
       0.129052         3886.17         3903.75 
       0.135211         3723.99         3631.46 
       0.141259         3413.75         3346.59 
       0.147318         3138.06         3070.58 
       0.153489         2952.28         2824.32 
       0.159709         2842.06         2625.79 
       0.165845         2618.39         2478.08 
       0.171974         2567.42         2366.23 
       0.178125         2497.95         2272.16 
       0.184229         2309.17         2180.27 
        0.19034         2270.43         2079.33 
       0.196428         2196.91         1967.79 
       0.202534         2057.45         1850.03 
       0.208729         2009.03         1733.53 
       0.214876         1916.83         1629.27 
       0.220989         1824.53          1541.6 
       0.227147         1778.82         1469.74 
        0.23329         1713.84            1411 
       0.239377         1706.23         1360.04 
       0.245482         1628.95         1310.82 
       0.251667         1569.06         1259.17 
       0.257832         1543.88         1204.72 
       0.263955         1474.07            1149 
       0.270079         1435.42         1094.24 
        0.27624         1375.92         1042.84 
       0.282372         1360.38         997.212 
        0.28843         1336.33         957.905 
       0.294538         1277.52         923.277 
       0.300721         1254.39         891.685 
        0.30691         1224.43         861.712 
       0.313033         1179.35         832.315 
       0.319153          1167.3         802.588 
       0.325316         1152.55         772.476 
        0.33145         1127.44         743.015 
       0.337538         1091.31         715.092 
       0.343633         1066.38         689.129 
       0.349808         1047.39         665.073 
       0.355968         1026.66         643.229 
       0.362074         996.426         623.198 
       0.368217         993.469         604.139 
       0.374374         978.774         585.632 
       0.380519         944.983         567.435 
       0.386598         940.334         549.697 
       0.392688         917.454         532.285 
        0.39888         898.378         515.196 
       0.405048         881.594         499.028 
       0.411186         879.253         483.868 
       0.417313         875.006          469.68 
       0.423458         848.319         456.289 
       0.429607         825.849         443.532 
       0.435692         819.381         431.384 
       0.441815         803.972         419.525 
       0.447964         794.634         407.901 
       0.454126         784.433         396.551 
       0.460267         774.625         385.604 
       0.466387         761.708         375.108 
        0.47254         749.484         364.996 
       0.478662         739.737         355.395 
       0.484765         731.753         346.267 
       0.490885          724.32         337.496 
       0.497035         710.984         329.001 
       0.503198         710.154         320.766 
       0.509342         697.031         312.808 
       0.515458         683.378         305.118 
       0.521598         681.535         297.622 
       0.527764         666.095         290.333 
       0.533884         660.126         283.352 
           0.54         655.062         276.636 
       0.546137          645.57         270.144 
       0.552299         641.888         263.854 
       0.558452         634.269         257.785 
       0.564573         629.833          251.94 
       0.570708         623.433         246.262 
       0.576825          610.79         240.771 
       0.582926         609.446         235.452 
       0.589034         601.026          230.28 
       0.595184         595.286         225.228 
       0.601379         586.189         220.298 
       0.607522         577.481         215.564 
       0.613639         576.691             211 
       0.619772         572.954         206.564 
       0.625918         563.188         202.252 
       0.632068          560.79          198.06 
       0.638161          553.96         194.023 
         0.6443         547.946         190.067 
       0.650464         543.656         186.206 
       0.656582         539.512         182.482 
       0.662703         533.583          178.86 
       0.668861          527.49         175.319 
       0.675024         524.586         171.874 
       0.681124         515.159         168.558 
       0.687237         515.273         165.325 
       0.693381         506.769         162.162 
       0.699536         507.131         159.078 
       0.705665          500.14         156.087 
       0.711789         498.975         153.177 
       0.717957         492.231         150.322 
        0.72409         487.983         147.556 
       0.730186         487.706         144.878 
       0.736317         480.509         142.252 
       0.742472         475.358         139.683 
       0.748622         473.649         137.181 
        0.75476          468.32         134.746 
       0.760888         465.783         132.375 
       0.767043         463.128         130.052 
       0.773185         459.666          127.79 
       0.779291         454.526         125.596 
       0.785407         451.192          123.45 
       0.791564         448.766         121.342 
       0.797719         441.999         119.284 
       0.803834         443.496         117.288 
       0.809972         436.572          115.33 
       0.816124         433.335         113.414 
       0.822261         430.911         111.547 
       0.828378         428.699         109.728 
       0.834502          422.14         107.949 
       0.840667         421.918         106.198 
       0.846816         416.373         104.492 
       0.852925         416.758         102.834 
       0.859047         412.432         101.209 
       0.865192         410.067         99.6148 
       0.871341         404.945         98.0539 
       0.877463         403.827          96.534 
       0.883569         400.042         95.0505 
       0.889708         396.105          93.591 
       0.895864         392.262         92.1587 
       0.902008         391.577         90.7597 
       0.908149         387.848          89.391 
       0.914301         386.634         88.0485 
       0.920448         382.358         86.7352 
       0.926574         380.204         85.4536 
       0.932687         379.225         84.2008 
       0.938823         374.472         82.9689 
       0.944975         373.568         81.7591 
       0.951105         370.502         80.5779 
       0.957225          365.55         79.4224 
       0.963368         366.491         78.2858 
       0.969511         360.539         77.1716 
       0.975621         359.302         76.0854 
       0.981748         357.761         75.0174 
       0.987916         355.622         73.9634 
        0.99406         352.102         72.9338 
        1.00019         348.699         71.9261 
        1.00632          348.28         70.9384 
        1.01246          345.36          69.968 
        1.01859         341.964         69.0174 
        1.02471          340.16         68.0859 
        1.03085         338.697         67.1685 
        1.03698         336.858         66.2702 
        1.04314         335.028         65.3846 
        1.04929         333.069         64.5174 
        1.05541         329.127         63.6696 
        1.06154          327.65         62.8351 
        1.06769         324.735         62.0145 
        1.07382         322.809         61.2114 
        1.07993          321.51         60.4244 
        1.08607         319.531         59.6482 
        1.09222         316.795         58.8849 
        1.09836         315.536         58.1361 
        1.10449         313.239         57.4013 
        1.11063         311.438         56.6785 
        1.11677         307.908         55.9685 
         1.1229          307.63          55.272 
        1.12903         304.802         54.5869 
        1.13518          302.86          53.913 
        1.14131          301.66         53.2509 
        1.14745         298.393         52.6004 
        1.15359         296.328         51.9607 
        1.15973         295.025         51.3315 
        1.16584         293.534         50.7156 
        1.17197         291.533          50.109 
        1.17811         288.635         49.5106 
        1.18424         287.614         48.9237 
        1.19038         286.068         48.3448 
        1.19652         282.987         47.7755 
        1.20267         282.396         47.2154 
        1.20881         280.592         46.6646 
        1.21495         278.826         46.1234 
        1.22108         277.207          45.591 
         1.2272         273.598         45.0683 
        1.23334         272.909         44.5526 
        1.23949         271.356         44.0439 
        1.24562         270.016         43.5445 
        1.25174         268.303         43.0537 
        1.25789         265.916          42.569 
        1.26402         265.361         42.0927 
        1.27014         263.937          41.625 
        1.27628          261.61         41.1629 
        1.28244          259.83         40.7071 
        1.28858         258.846         40.2588 
        1.29471         257.221         39.8184 
        1.30084         256.391          39.385 
        1.30697         253.457         38.9574 
        1.31312         252.105         38.5357 
        1.31925         250.863         38.1215 
        1.32537         249.925         37.7139 
        1.33151         247.657         37.3109 
        1.33765         245.782          36.914 
        1.34378         244.849         36.5237 
        1.34992         242.499         36.1389 
        1.35606           241.6         35.7588 
         1.3622         239.823         35.3849 
        1.36833         238.981         35.0173 
        1.37445          238.04         34.6551 
        1.38059         235.229          34.297 
        1.38675         234.006         33.9431 
        1.39288         233.125         33.5956 
        1.39901         231.064         33.2533 
        1.40515          230.16         32.9149 
         1.4113         228.489         32.5814 
        1.41742         226.638         32.2539 
        1.42355         226.366         31.9302 
         1.4297         224.534         31.6101 
        1.43585         223.157         31.2945 
        1.44198         221.594         30.9844 
        1.44809         220.765         30.6791 
        1.45423         219.384         30.3769 
        1.46036         218.319         30.0792 
        1.46649          216.85         29.7855 
        1.47263         215.537         29.4955 
        1.47877         214.109         29.2096 
        1.48491         212.514          28.927 
        1.49104         210.836         28.6487 
        1.49718         210.306         28.3739 
        1.50333         208.407         28.1024 
        1.50947          207.54         27.8349 
         1.5156         206.348         27.5714 
        1.52172         205.094         27.3113 
        1.52787         203.671          27.054 
          1.534         203.271         26.8004 
        1.54013          201.52         26.5503 
        1.54627         200.524          26.303 
        1.55241         199.536         26.0589 
        1.55855          198.26         25.8181 
        1.56467         197.246         25.5812 
         1.5708         195.588         25.3465 
        1.57695         194.832         25.1144 
        1.58308         193.646         24.8858 
        1.58922          192.21           24.66 
        1.59535         190.845          24.437 
         1.6015         190.273         24.2165 
        1.60764         188.692         23.9988 
        1.61376         187.437         23.7844 
        1.61989          186.33         23.5725 
        1.62604          185.49         23.3627 
        1.63218          184.25         23.1556 
        1.63831         183.723         22.9515 
        1.64444         182.046         22.7498 
        1.65059          181.15         22.5501 
        1.65673         179.988         22.3529 
        1.66285          179.11         22.1588 
        1.66898         178.091         21.9668 
        1.67512         176.967         21.7768 
        1.68127         176.137         21.5888 
         1.6874         174.868         21.4035 
        1.69353         174.321         21.2205 
        1.69967         172.755         21.0393 
        1.70581         172.325         20.8602 
        1.71193         171.044         20.6839 
        1.71806         169.653         20.5093 
        1.72421         168.929         20.3364 
        1.73035         167.849         20.1656 
        1.73649         166.707         19.9969 
        1.74262          166.07         19.8302 
        1.74876         165.182         19.6654 
        1.75489         164.504         19.5028 
        1.76101         163.197          19.342 
        1.76715          162.19         19.1829 
        1.77329         161.069         19.0254 
        1.77943         160.097         18.8696 
        1.78557         159.353         18.7157 
        1.79171         158.645         18.5636 
        1.79785          157.46         18.4132 
        1.80399         156.666         18.2644 
        1.81012          156.06         18.1175 
        1.81625         154.572         17.9723 
        1.82239         154.098         17.8285 
        1.82853         153.216         17.6863 
        1.83466         151.829         17.5458 
        1.84078         151.471          17.407 
        1.84692         150.643         17.2695 
        1.85306         149.457         17.1334 
         1.8592         149.007         16.9989 
        1.86533         147.563         16.8659 
        1.87147          146.81         16.7342 
        1.87761         146.168         16.6039 
        1.88375         144.919         16.4751 
        1.88988         144.529         16.3478 
        1.89601         144.022         16.2218 
        1.90215         143.198         16.0971 
        1.90829         141.838         15.9737 
        1.91442         141.205         15.8516 
        1.92056         140.437         15.7309 
         1.9267         139.655         15.6113 
        1.93284         138.576          15.493 
        1.93897         138.186          15.376 
        1.94509         137.135         15.2606 
        1.95123         136.517          15.146 
        1.95737         135.991         15.0325 
        1.96349         134.889         14.9205 
        1.96964         134.094         14.8094 
        1.97578         133.327         14.6993 
        1.98192         132.825         14.5905 
        1.98805         132.015         14.4829 
        1.99419         130.831         14.3763 
        2.00033         130.429         14.2708 
        2.00647         129.801         14.1663 
         2.0126         128.874         14.0631 
        2.01874         128.199         13.9608 
        2.02488         127.495         13.8594 
        2.03101          127.07         13.7592 
        2.03714          126.12           13.66 
        2.04328          125.47         13.5618 
        2.04941          124.99         13.4646 
        2.05554         124.274         13.3684 
        2.06167          123.41         13.2731 
        2.06781         122.708         13.1786 
        2.07396         121.991          13.085 
        2.08009         121.405         12.9924 
        2.08622          120.68         12.9008 
        2.09237         119.775           12.81 
        2.09851         119.419           12.72 
        2.10464         118.729          12.631 
        2.11077         118.094          12.543 
        2.11691         117.478         12.4556 
        2.12305         116.787         12.3691 
        2.12918         116.208         12.2836 
        2.13531         115.347         12.1989 
        2.14145         115.002         12.1148 
         2.1476         114.235         12.0314 
        2.15372         113.468         11.9492 
        2.15985         112.891         11.8677 
        2.16599         112.228         11.7868 
        2.17213         111.635         11.7067 
        2.17827         111.074         11.6273 
         2.1844         110.569         11.5488 
        2.19054         109.893         11.4709 
        2.19666         109.073         11.3939 
         2.2028         108.675         11.3176 
        2.20893         108.228         11.2419 
        2.21508         107.319         11.1668 
        2.22122         106.715         11.0923 
        2.22736         106.566         11.0187 
        2.23349         105.914         10.9458 
        2.23962         105.115         10.8736 
        2.24577         104.531         10.8019 
         2.2519         103.911         10.7309 
        2.25802         103.583         10.6608 
        2.26417         102.859          10.591 
        2.27031         102.216         10.5218 
        2.27644         101.797         10.4535 
        2.28257         101.407         10.3857 
        2.28872         100.743         10.3184 
        2.29486         100.287         10.2518 
        2.30099         99.5591         10.1858 
        2.30712         99.2159         10.1205 
        2.31326         98.5593         10.0555 
         2.3194         98.1281         9.99123 
        2.32553         97.5554          9.9276 
        2.33166         97.1696         9.86455 
         2.3378         96.4602         9.80197 
        2.34394         95.8883         9.73991 
        2.35007         95.3539         9.67847 
        2.35619          94.838         9.61765 
        2.36233         94.4718          9.5572 
        2.36848         93.7863         9.49715 
        2.37462         93.6582         9.43775 
        2.38075         92.9383         9.37891 
        2.38689         92.4749         9.32053 
        2.39303         92.0918         9.26265 
        2.39916         91.4984         9.20533 
        2.40529         91.1602          9.1485 
        2.41143         90.4998         9.09212 
        2.41757         89.7996         9.03618 
         2.4237         89.4954         8.98082 
        2.42983         88.9519         8.92593 
        2.43598         88.5996         8.87136 
        2.44211         88.2608         8.81733 
        2.44823           87.64         8.76388 
        2.45437         87.3497         8.71073 
        2.46052         86.7023         8.65797 
        2.46665         86.2319         8.60575 
        2.47279         85.9141         8.55398 
        2.47892         85.5246          8.5026 
        2.48507         85.1484         8.45159 
         2.4912         84.4318         8.40111 
