# k  (h/Mpc)    P(k)  (Mpc/h)^3    P_linear(k)  (Mpc/h)^3
     0.00783031           15685         15753.1 
       0.013688         19348.6         19888.2 
       0.019231         20090.3         20432.2 
      0.0249154         19137.3         19140.5 
      0.0312784         16612.4         16848.5 
      0.0375637         14302.9         14638.4 
      0.0433917         12861.3         13013.9 
      0.0492413         11583.2         11836.6 
      0.0555754         10752.1         10929.8 
      0.0619321         9693.57         10186.1 
       0.067871          9149.2         9477.84 
      0.0738098         8476.19         8687.15 
      0.0800417         7635.12         7792.35 
      0.0862327         6780.17          6922.8 
      0.0921407          6126.1         6195.21 
      0.0982031         5632.27         5603.05 
       0.104506         5106.93         5157.12 
       0.110769         4812.73         4846.45 
       0.116806         4646.28         4614.15 
       0.122832         4376.73         4392.91 
       0.129052         4117.06         4137.81 
       0.135211          3949.4         3849.19 
       0.141259         3620.81         3547.24 
       0.147318         3331.88         3254.68 
       0.153489         3136.52         2993.66 
       0.159709         3022.73         2783.22 
       0.165845         2785.54         2626.65 
       0.171974         2729.71          2508.1 
       0.178125         2658.03         2408.39 
       0.184229         2455.47         2310.99 
        0.19034         2416.38            2204 
       0.196428          2339.9         2085.77 
       0.202534         2194.48         1960.95 
       0.208729         2142.67         1837.46 
       0.214876         2044.68         1726.96 
       0.220989            1950         1634.03 
       0.227147         1900.24         1557.86 
        0.23329          1830.5         1495.59 
       0.239377          1823.8         1441.59 
       0.245482         1742.42         1389.41 
       0.251667         1678.65         1334.66 
       0.257832         1651.02         1276.95 
       0.263955         1578.36         1217.88 
       0.270079         1538.78         1159.84 
        0.27624         1475.23         1105.36 
       0.282372         1460.16            1057 
        0.28843         1432.25         1015.34 
       0.294538         1371.08         978.631 
       0.300721         1347.67         945.146 
        0.30691         1313.95         913.376 
       0.313033         1267.21         882.217 
       0.319153         1255.13         850.707 
       0.325316         1239.34          818.79 
        0.33145         1212.24         787.563 
       0.337538         1174.47         757.965 
       0.343633         1148.36         730.446 
       0.349808         1129.05         704.947 
       0.355968         1106.04         681.793 
       0.362074         1074.89         660.561 
       0.368217         1071.62          640.36 
       0.374374         1055.51         620.743 
       0.380519         1020.13         601.455 
       0.386598         1015.95         582.654 
       0.392688         990.571         564.198 
        0.39888         971.509         546.084 
       0.405048         952.977         528.947 
       0.411186         950.088         512.878 
       0.417313         945.861         497.839 
       0.423458         917.465         483.645 
       0.429607         893.763         470.124 
       0.435692         887.088         457.247 
       0.441815         870.192         444.677 
       0.447964         861.212         432.356 
       0.454126         849.887         420.326 
       0.460267         839.975         408.722 
       0.466387         825.778         397.597 
        0.47254          812.67         386.879 
       0.478662         802.652         376.702 
       0.484765         793.965         367.028 
       0.490885         785.948          357.73 
       0.497035         771.679         348.726 
       0.503198          770.84         339.997 
       0.509342         756.687         331.562 
       0.515458         741.906         323.411 
       0.521598         741.275         315.465 
       0.527764         723.928          307.74 
       0.533884           716.8          300.34 
           0.54         712.061         293.222 
       0.546137         702.324          286.34 
       0.552299         697.581         279.673 
       0.558452         689.889          273.24 
       0.564573         685.821         267.044 
       0.570708         678.413         261.026 
       0.576825         664.697         255.206 
       0.582926         663.413         249.568 
       0.589034         654.803         244.086 
       0.595184         647.987         238.731 
       0.601379         638.166         233.505 
       0.607522         629.317         228.488 
       0.613639         628.568          223.65 
       0.619772         623.749         218.949 
       0.625918         614.141         214.377 
       0.632068         611.443         209.935 
       0.638161          603.47         205.655 
         0.6443         597.237         201.462 
       0.650464         592.933          197.37 
       0.656582         588.474         193.422 
       0.662703         581.526         189.583 
       0.668861         575.284          185.83 
       0.675024         572.251         182.178 
       0.681124         561.545         178.664 
       0.687237         562.126         175.237 
       0.693381         552.565         171.885 
       0.699536         553.745         168.615 
       0.705665         545.679         165.445 
       0.711789         544.409         162.361 
       0.717957         537.447         159.334 
        0.72409         532.989         156.403 
       0.730186         531.851         153.564 
       0.736317          524.62         150.781 
       0.742472         518.598         148.058 
       0.748622         517.486         145.405 
        0.75476         510.716         142.825 
       0.760888         508.519         140.311 
       0.767043         506.041         137.849 
       0.773185         501.986         135.452 
       0.779291         496.594         133.126 
       0.785407         492.734         130.851 
       0.791564         490.364         128.617 
       0.797719         482.915         126.436 
       0.803834         483.998          124.32 
       0.809972         476.666         122.245 
       0.816124         473.513         120.214 
       0.822261         470.968         118.235 
       0.828378         468.691         116.307 
       0.834502         461.431         114.421 
       0.840667         460.745         112.565 
       0.846816          455.71         110.757 
       0.852925         455.627         108.999 
       0.859047         450.591         107.277 
       0.865192         448.066         105.587 
       0.871341         442.833         103.933 
       0.877463         442.003         102.322 
       0.883569         437.609         100.749 
       0.889708         433.072         99.2021 
       0.895864         428.766         97.6839 
       0.902008         428.401         96.2011 
       0.908149         424.183         94.7503 
       0.914301         422.973         93.3274 
       0.920448         417.832         91.9353 
       0.926574         415.683         90.5769 
       0.932687         414.783          89.249 
       0.938823         409.563         87.9432 
       0.944975         408.345         86.6608 
       0.951105         405.267         85.4089 
       0.957225         399.847         84.1841 
       0.963368         400.656         82.9793 
       0.969511         394.843         81.7984 
       0.975621         393.007          80.647 
       0.981748         391.345          79.515 
       0.987916         388.971         78.3978 
        0.99406         385.097         77.3065 
        1.00019         381.399         76.2383 
        1.00632         380.597         75.1914 
        1.01246         377.535         74.1628 
        1.01859         374.223         73.1553 
        1.02471         372.475         72.1679 
        1.03085         370.388         71.1955 
        1.03698         368.513         70.2433 
        1.04314         365.974         69.3046 
        1.04929          364.26         68.3855 
        1.05541          359.81         67.4869 
        1.06154         358.275         66.6023 
        1.06769         355.178         65.7325 
        1.07382         352.646         64.8812 
        1.07993         351.958         64.0471 
        1.08607         349.611         63.2243 
        1.09222         346.465         62.4153 
        1.09836         344.874         61.6216 
        1.10449         342.186         60.8427 
        1.11063         340.772         60.0766 
        1.11677         336.789          59.324 
         1.1229         336.158         58.5858 
        1.12903         333.073         57.8596 
        1.13518         331.351         57.1453 
        1.14131         329.698         56.4435 
        1.14745         326.355          55.754 
        1.15359         323.986         55.0759 
        1.15973         322.513          54.409 
        1.16584         321.031         53.7562 
        1.17197         318.665         53.1132 
        1.17811         315.278         52.4789 
        1.18424         314.535         51.8569 
        1.19038         312.684         51.2432 
        1.19652         309.455         50.6398 
        1.20267          308.59         50.0462 
        1.20881          306.98         49.4623 
        1.21495         304.221         48.8887 
        1.22108         303.077         48.3243 
         1.2272         298.847         47.7703 
        1.23334         298.051         47.2237 
        1.23949         296.198         46.6845 
        1.24562         295.212         46.1552 
        1.25174         293.095         45.6349 
        1.25789         290.572         45.1212 
        1.26402         289.528         44.6164 
        1.27014         288.057         44.1205 
        1.27628         285.736         43.6308 
        1.28244         283.465         43.1477 
        1.28858         282.581         42.6725 
        1.29471         280.822         42.2057 
        1.30084         279.972         41.7463 
        1.30697         276.693         41.2931 
        1.31312         275.222          40.846 
        1.31925         273.965          40.407 
        1.32537         272.874          39.975 
        1.33151         270.079         39.5478 
        1.33765         268.117         39.1271 
        1.34378         267.167         38.7135 
        1.34992         264.509         38.3055 
        1.35606         263.342         37.9026 
         1.3622         261.484         37.5063 
        1.36833         260.954         37.1167 
        1.37445         259.657         36.7328 
        1.38059         256.432         36.3532 
        1.38675         255.288         35.9781 
        1.39288         254.481         35.6098 
        1.39901         252.142         35.2469 
        1.40515         250.991         34.8883 
         1.4113         249.201         34.5348 
        1.41742         247.249         34.1876 
        1.42355          246.63         33.8446 
         1.4297         244.722         33.5052 
        1.43585         242.979         33.1707 
        1.44198         241.657          32.842 
        1.44809         240.524         32.5184 
        1.45423         239.072         32.1981 
        1.46036         238.085         31.8826 
        1.46649         236.279         31.5713 
        1.47263         234.441         31.2639 
        1.47877         233.248         30.9608 
        1.48491         231.453         30.6612 
        1.49104         229.603         30.3663 
        1.49718         229.052         30.0751 
        1.50333         227.106         29.7872 
        1.50947         225.973         29.5037 
         1.5156         224.644         29.2244 
        1.52172         223.198         28.9487 
        1.52787         221.586          28.676 
          1.534         221.317         28.4072 
        1.54013         219.313         28.1421 
        1.54627         218.082           27.88 
        1.55241         217.125         27.6212 
        1.55855         215.609          27.366 
        1.56467         214.479         27.1148 
         1.5708         212.904         26.8661 
        1.57695         212.049         26.6201 
        1.58308         210.899         26.3778 
        1.58922         209.077         26.1384 
        1.59535         207.637         25.9021 
         1.6015         206.919         25.6683 
        1.60764         205.269         25.4376 
        1.61376         203.953         25.2104 
        1.61989          202.62         24.9858 
        1.62604          201.69         24.7634 
        1.63218         200.186         24.5439 
        1.63831         199.682         24.3275 
        1.64444         197.904         24.1137 
        1.65059         196.948          23.902 
        1.65673         195.717         23.6931 
        1.66285         194.573         23.4873 
        1.66898         193.454         23.2838 
        1.67512         192.335         23.0824 
        1.68127         191.353         22.8832 
         1.6874         189.922         22.6868 
        1.69353         189.385         22.4928 
        1.69967         187.721         22.3007 
        1.70581         187.043         22.1109 
        1.71193         185.741          21.924 
        1.71806          184.22         21.7389 
        1.72421         183.523         21.5556 
        1.73035         182.236         21.3746 
        1.73649         180.889         21.1958 
        1.74262         180.232         21.0191 
        1.74876         179.188         20.8444 
        1.75489           178.5          20.672 
        1.76101         177.361         20.5017 
        1.76715         176.122          20.333 
        1.77329         174.788          20.166 
        1.77943         173.745         20.0009 
        1.78557         172.856         19.8378 
        1.79171         172.252         19.6766 
        1.79785         170.836         19.5171 
        1.80399         169.968         19.3594 
        1.81012         169.427         19.2037 
        1.81625         167.571         19.0498 
        1.82239         167.254         18.8974 
        1.82853         166.281         18.7467 
        1.83466          164.77         18.5978 
        1.84078         164.236         18.4507 
        1.84692         163.456         18.3049 
        1.85306         162.105         18.1606 
         1.8592         161.601          18.018 
        1.86533         160.018         17.8771 
        1.87147         159.188         17.7375 
        1.87761         158.542         17.5993 
        1.88375         157.245         17.4628 
        1.88988         156.681         17.3279 
        1.89601         156.114         17.1944 
        1.90215         155.158         17.0622 
        1.90829         153.758         16.9314 
        1.91442         153.111          16.802 
        1.92056         152.277          16.674 
         1.9267         151.327         16.5473 
        1.93284         150.176         16.4218 
        1.93897         149.735         16.2979 
        1.94509         148.714         16.1755 
        1.95123         147.996         16.0541 
        1.95737         147.493         15.9338 
        1.96349         146.224         15.8151 
        1.96964         145.292         15.6972 
        1.97578         144.563         15.5805 
        1.98192         143.956         15.4653 
        1.98805         142.973         15.3512 
        1.99419         141.917         15.2382 
        2.00033         141.342         15.1264 
        2.00647         140.376         15.0157 
         2.0126         139.626         14.9063 
        2.01874         138.858         14.7978 
        2.02488         138.137         14.6903 
        2.03101         137.639         14.5841 
        2.03714         136.799          14.479 
        2.04328         135.782         14.3749 
        2.04941         135.249         14.2718 
        2.05554         134.489         14.1699 
        2.06167         133.722         14.0688 
        2.06781         132.956         13.9687 
        2.07396         132.049         13.8695 
        2.08009         131.523         13.7713 
        2.08622         130.715         13.6743 
        2.09237         129.711          13.578 
        2.09851         129.264         13.4826 
        2.10464         128.605         13.3883 
        2.11077         127.947          13.295 
        2.11691         127.195         13.2024 
        2.12305         126.335         13.1107 
        2.12918         125.785           13.02 
        2.13531         124.775         12.9303 
        2.14145         124.397         12.8411 
         2.1476         123.597         12.7527 
        2.15372         122.806         12.6656 
        2.15985         122.193         12.5793 
        2.16599           121.5         12.4934 
        2.17213         120.792         12.4085 
        2.17827         120.281         12.3244 
         2.1844         119.553         12.2412 
        2.19054         118.926         12.1587 
        2.19666         118.072          12.077 
         2.2028         117.579         11.9961 
        2.20893         117.019         11.9158 
        2.21508         116.085         11.8363 
        2.22122         115.361         11.7574 
        2.22736         115.279         11.6794 
        2.23349         114.586         11.6021 
        2.23962         113.788         11.5255 
        2.24577         112.996         11.4495 
         2.2519         112.337         11.3743 
        2.25802         112.051         11.2999 
        2.26417         111.304          11.226 
        2.27031         110.681         11.1526 
        2.27644         110.047         11.0802 
        2.28257         109.749         11.0084 
        2.28872         108.984         10.9371 
        2.29486         108.307         10.8664 
        2.30099         107.582         10.7965 
        2.30712         107.217         10.7272 
        2.31326         106.495         10.6584 
         2.3194         106.084         10.5902 
        2.32553         105.457         10.5228 
        2.33166         105.133          10.456 
         2.3378         104.289         10.3896 
        2.34394         103.642         10.3238 
        2.35007         103.121         10.2587 
        2.35619         102.523         10.1943 
        2.36233         102.233         10.1302 
        2.36848         101.515         10.0665 
        2.37462         101.264         10.0036 
        2.38075         100.543         9.94121 
        2.38689         100.029         9.87933 
        2.39303         99.5891         9.81798 
        2.39916          98.955         9.75723 
        2.40529           98.54         9.69699 
        2.41143         97.7824         9.63722 
        2.41757         97.0987         9.57793 
         2.4237          96.777         9.51925 
        2.42983          96.226         9.46107 
        2.43598          95.726         9.40323 
        2.44211         95.2973         9.34596 
        2.44823          94.751         9.28931 
        2.45437         94.4413         9.23297 
        2.46052         93.7027         9.17705 
        2.46665         93.2979          9.1217 
        2.47279         92.7952         9.06682 
        2.47892         92.3913         9.01236 
        2.48507         91.9948          8.9583 
         2.4912         91.2417         8.90478 
