# k  (h/Mpc)    P(k)  (Mpc/h)^3    P_linear(k)  (Mpc/h)^3
     0.00783031         15241.7         15310.6 
       0.013688         18810.4         19329.8 
       0.019231         19530.9         19858.6 
      0.0249154         18601.2         18603.3 
      0.0312784         16151.8         16375.7 
      0.0375637         13908.4         14227.6 
      0.0433917         12505.6         12648.7 
      0.0492413         11264.1         11504.5 
      0.0555754         10456.7         10623.2 
      0.0619321         9430.69         9900.29 
       0.067871         8900.74         9211.94 
      0.0738098         8243.87         8443.44 
      0.0800417         7426.26         7573.75 
      0.0862327          6593.8         6728.59 
      0.0921407         5956.02         6021.42 
      0.0982031         5474.56         5445.87 
       0.104506         4964.14         5012.45 
       0.110769            4678         4710.49 
       0.116806         4516.54         4484.72 
       0.122832         4253.74         4269.68 
       0.129052         4002.57         4021.74 
       0.135211         3837.59         3741.21 
       0.141259         3518.09         3447.73 
       0.147318         3235.67         3163.38 
       0.153489         3045.05         2909.68 
       0.159709            2933         2705.15 
       0.165845          2702.5         2552.97 
       0.171974         2649.13         2437.75 
       0.178125         2578.52         2340.83 
       0.184229         2382.79         2246.17 
        0.19034         2343.87         2142.17 
       0.196428         2268.84         2027.26 
       0.202534         2126.33         1905.95 
       0.208729         2076.23         1785.92 
       0.214876         1981.11         1678.51 
       0.220989         1887.57         1588.19 
       0.227147         1839.83         1514.16 
        0.23329         1772.46         1453.64 
       0.239377         1765.32         1401.15 
       0.245482         1685.95         1350.43 
       0.251667         1624.11         1297.22 
       0.257832          1597.7         1241.13 
       0.263955         1526.44         1183.72 
       0.270079         1487.31         1127.31 
        0.27624         1425.77         1074.36 
       0.282372         1410.45         1027.35 
        0.28843          1384.5         986.855 
       0.294538         1324.46         951.181 
       0.300721         1301.18         918.634 
        0.30691         1269.36         887.755 
       0.313033         1223.41          857.47 
       0.319153         1211.34         826.845 
       0.325316         1196.09         795.823 
        0.33145         1169.98         765.471 
       0.337538         1133.01         736.704 
       0.343633         1107.49         709.957 
       0.349808         1088.32         685.173 
       0.355968         1066.47         662.669 
       0.362074         1035.72         642.032 
       0.368217         1032.63         622.398 
       0.374374         1017.25         603.331 
       0.380519         982.637         584.585 
       0.386598         978.219         566.311 
       0.392688         954.085         548.372 
        0.39888         934.988         530.766 
       0.405048         917.332          514.11 
       0.411186         914.743         498.492 
       0.417313         910.525         483.875 
       0.423458          882.96         470.079 
       0.429607         859.841         456.937 
       0.435692         853.293         444.421 
       0.441815         837.133         432.204 
       0.447964          827.96         420.229 
       0.454126         817.192         408.536 
       0.460267         807.339         397.258 
       0.466387         793.779         386.444 
        0.47254         781.098         376.027 
       0.478662         771.229         366.136 
       0.484765         762.894         356.732 
       0.490885         755.159         347.696 
       0.497035         741.365         338.944 
       0.503198         740.512          330.46 
       0.509342         726.897         322.262 
       0.515458         712.667         314.339 
       0.521598         711.424         306.616 
       0.527764         695.021         299.108 
       0.533884         688.473         291.915 
           0.54         683.568         284.997 
       0.546137         673.956         278.308 
       0.552299         669.756         271.828 
       0.558452         662.096         265.576 
       0.564573         657.821         259.554 
       0.570708         650.946         253.705 
       0.576825         637.749         248.047 
       0.582926         636.448         242.568 
       0.589034         627.913          237.24 
       0.595184          621.65         232.035 
       0.601379         612.191         226.955 
       0.607522         603.398         222.079 
       0.613639         602.635         217.377 
       0.619772         598.383         212.807 
       0.625918          588.64         208.364 
       0.632068         586.129         204.046 
       0.638161         578.726         199.886 
         0.6443         572.586         195.811 
       0.650464         568.298         191.834 
       0.656582             564         187.997 
       0.662703         557.558         184.265 
       0.668861         551.398         180.617 
       0.675024         548.434         177.068 
       0.681124          538.34         173.652 
       0.687237         538.717         170.321 
       0.693381         529.669         167.063 
       0.699536         530.442         163.886 
       0.705665         522.919         160.805 
       0.711789         521.717         157.806 
       0.717957         514.843         154.865 
        0.72409         510.506         152.015 
       0.730186         509.779         149.256 
       0.736317         502.567         146.551 
       0.742472         496.983         143.905 
       0.748622         495.573         141.327 
        0.75476         489.529         138.818 
       0.760888         487.162         136.376 
       0.767043         484.601         133.982 
       0.773185         480.838         131.652 
       0.779291         475.583         129.392 
       0.785407         471.975         127.181 
       0.791564         469.588         125.009 
       0.797719         462.488         122.889 
       0.803834         463.769         120.832 
       0.809972         456.631         118.816 
       0.816124          453.44         116.842 
       0.822261         450.972         114.918 
       0.828378         448.698         113.045 
       0.834502         441.787         111.212 
       0.840667         441.361         109.408 
       0.846816         436.043          107.65 
       0.852925         436.219         105.942 
       0.859047         431.543         104.268 
       0.865192         429.078         102.625 
       0.871341         423.885         101.017 
       0.877463         422.935         99.4515 
       0.883569         418.818         97.9231 
       0.889708         414.591         96.4195 
       0.895864          410.51         94.9439 
       0.902008         409.992         93.5027 
       0.908149         406.021         92.0926 
       0.914301         404.827         90.7096 
       0.920448         400.086         89.3566 
       0.926574         397.945         88.0362 
       0.932687         397.025         86.7456 
       0.938823         392.015         85.4764 
       0.944975         390.969           84.23 
       0.951105         387.894         83.0132 
       0.957225         382.683         81.8227 
       0.963368         383.582         80.6518 
       0.969511         377.682          79.504 
       0.975621         376.159         78.3849 
       0.981748         374.562         77.2846 
       0.987916          372.31         76.1988 
        0.99406         368.602         75.1381 
        1.00019         365.028         74.0998 
        1.00632         364.448         73.0823 
        1.01246         361.454         72.0826 
        1.01859         358.086         71.1033 
        1.02471         356.297         70.1436 
        1.03085         354.556         69.1985 
        1.03698         352.686          68.273 
        1.04314         350.514         67.3606 
        1.04929         348.654         66.4673 
        1.05541         344.451         65.5939 
        1.06154         342.959         64.7342 
        1.06769         339.948         63.8887 
        1.07382          337.71         63.0613 
        1.07993         336.727         62.2506 
        1.08607         334.573         61.4509 
        1.09222         331.625         60.6646 
        1.09836         330.203         59.8931 
        1.10449         327.724         59.1361 
        1.11063         326.114         58.3914 
        1.11677         322.323           57.66 
         1.1229         321.902         56.9425 
        1.12903         318.938         56.2367 
        1.13518          317.08         55.5424 
        1.14131         315.667         54.8602 
        1.14745         312.357         54.1901 
        1.15359          310.14          53.531 
        1.15973         308.745         52.8828 
        1.16584         307.247         52.2483 
        1.17197         305.073         51.6234 
        1.17811         301.931         51.0069 
        1.18424          301.05         50.4023 
        1.19038         299.343         49.8059 
        1.19652         296.198         49.2194 
        1.20267          295.48         48.6424 
        1.20881         293.765         48.0749 
        1.21495         291.508         47.5174 
        1.22108         290.097         46.9688 
         1.2272         286.174         46.4303 
        1.23334         285.435         45.8991 
        1.23949         283.739          45.375 
        1.24562         282.576         44.8605 
        1.25174         280.661         44.3549 
        1.25789         278.205         43.8556 
        1.26402         277.409         43.3649 
        1.27014         275.966          42.883 
        1.27628         273.642          42.407 
        1.28244         271.615         41.9374 
        1.28858         270.696         41.4756 
        1.29471         268.977         41.0218 
        1.30084         268.166         40.5753 
        1.30697         265.047         40.1348 
        1.31312         263.629         39.7003 
        1.31925         262.394         39.2736 
        1.32537         261.369         38.8537 
        1.33151         258.839         38.4385 
        1.33765         256.908         38.0296 
        1.34378         255.976         37.6276 
        1.34992         253.451         37.2311 
        1.35606         252.443         36.8395 
         1.3622         250.615         36.4543 
        1.36833         249.939         36.0756 
        1.37445         248.803         35.7024 
        1.38059         245.786         35.3335 
        1.38675         244.603         34.9689 
        1.39288          243.77          34.611 
        1.39901         241.548         34.2583 
        1.40515         240.517         33.9097 
         1.4113         238.796         33.5661 
        1.41742         236.887         33.2287 
        1.42355         236.445         32.8952 
         1.4297         234.574         32.5654 
        1.43585         233.015         32.2402 
        1.44198         231.584         31.9208 
        1.44809         230.597         31.6063 
        1.45423         229.179         31.2949 
        1.46036         228.152         30.9883 
        1.46649         226.526         30.6857 
        1.47263          224.94          30.387 
        1.47877         223.626         30.0923 
        1.48491         221.941         29.8012 
        1.49104         220.179         29.5145 
        1.49718         219.645         29.2315 
        1.50333         217.706         28.9517 
        1.50947         216.701         28.6762 
         1.5156         215.458         28.4046 
        1.52172           214.1         28.1367 
        1.52787         212.572         27.8717 
          1.534         212.263         27.6104 
        1.54013         210.378         27.3528 
        1.54627         209.276          27.098 
        1.55241         208.288         26.8464 
        1.55855         206.892         26.5984 
        1.56467         205.847         26.3543 
         1.5708         204.214         26.1125 
        1.57695         203.401         25.8735 
        1.58308         202.235          25.638 
        1.58922         200.591         25.4052 
        1.59535         199.199         25.1755 
         1.6015         198.565         24.9483 
        1.60764         196.922         24.7241 
        1.61376         195.642         24.5032 
        1.61989         194.412         24.2849 
        1.62604         193.565         24.0688 
        1.63218          192.17         23.8554 
        1.63831         191.681         23.6452 
        1.64444         189.931         23.4374 
        1.65059         188.998         23.2316 
        1.65673         187.808         23.0285 
        1.66285         186.798         22.8284 
        1.66898         185.744         22.6307 
        1.67512         184.618         22.4349 
        1.68127         183.719         22.2413 
         1.6874         182.364         22.0504 
        1.69353         181.808         21.8619 
        1.69967         180.185         21.6751 
        1.70581         179.653         21.4906 
        1.71193         178.355          21.309 
        1.71806         176.917         21.1291 
        1.72421         176.181          20.951 
        1.73035         175.003         20.7751 
        1.73649          173.76         20.6012 
        1.74262         173.105         20.4296 
        1.74876         172.163         20.2597 
        1.75489         171.483         20.0922 
        1.76101         170.254         19.9266 
        1.76715         169.126         19.7627 
        1.77329         167.894         19.6004 
        1.77943         166.902         19.4399 
        1.78557         166.071         19.2814 
        1.79171         165.421         19.1247 
        1.79785         164.123         18.9696 
        1.80399         163.289         18.8164 
        1.81012         162.731         18.6651 
        1.81625         161.026         18.5155 
        1.82239         160.656         18.3673 
        1.82853         159.734         18.2208 
        1.83466         158.264         18.0761 
        1.84078         157.829         17.9331 
        1.84692         157.013         17.7915 
        1.85306         155.746         17.6512 
         1.8592         155.277         17.5126 
        1.86533         153.753         17.3756 
        1.87147         152.949           17.24 
        1.87761         152.337         17.1057 
        1.88375         151.042          16.973 
        1.88988         150.574         16.8419 
        1.89601         150.031         16.7121 
        1.90215         149.135         16.5836 
        1.90829         147.773         16.4565 
        1.91442         147.134         16.3307 
        1.92056         146.348         16.2063 
         1.9267         145.468         16.0832 
        1.93284         144.347         15.9612 
        1.93897         143.955         15.8407 
        1.94509         142.886         15.7218 
        1.95123         142.228         15.6038 
        1.95737         141.729         15.4869 
        1.96349         140.534         15.3715 
        1.96964         139.667         15.2569 
        1.97578         138.917         15.1435 
        1.98192         138.354         15.0315 
        1.98805         137.457         14.9206 
        1.99419         136.333         14.8108 
        2.00033         135.847         14.7021 
        2.00647         135.067         14.5945 
         2.0126         134.214         14.4881 
        2.01874         133.487         14.3827 
        2.02488         132.798         14.2782 
        2.03101         132.337          14.175 
        2.03714         131.421         14.0729 
        2.04328         130.591         13.9717 
        2.04941         130.101         13.8715 
        2.05554         129.371         13.7724 
        2.06167         128.536         13.6742 
        2.06781         127.806         13.5769 
        2.07396         126.993         13.4804 
        2.08009         126.447         13.3851 
        2.08622         125.666         13.2907 
        2.09237         124.724         13.1971 
        2.09851         124.315         13.1044 
        2.10464         123.635         13.0127 
        2.11077         122.997         12.9221 
        2.11691         122.305         12.8321 
        2.12305         121.537         12.7429 
        2.12918         120.982         12.6548 
        2.13531          120.03         12.5676 
        2.14145         119.688         12.4809 
         2.1476         118.899          12.395 
        2.15372         118.109         12.3104 
        2.15985         117.508         12.2264 
        2.16599         116.843          12.143 
        2.17213         116.197         12.0605 
        2.17827         115.664         11.9787 
         2.1844         115.035         11.8978 
        2.19054         114.398         11.8176 
        2.19666         113.546         11.7383 
         2.2028         113.102         11.6596 
        2.20893         112.602         11.5816 
        2.21508         111.668         11.5042 
        2.22122         111.009         11.4276 
        2.22736         110.913         11.3518 
        2.23349         110.246         11.2766 
        2.23962         109.424         11.2022 
        2.24577          108.74         11.1283 
         2.2519         108.104         11.0553 
        2.25802         107.797         10.9829 
        2.26417         107.063         10.9111 
        2.27031         106.434         10.8398 
        2.27644         105.904         10.7694 
        2.28257          105.57         10.6996 
        2.28872         104.844         10.6303 
        2.29486         104.265         10.5616 
        2.30099         103.562         10.4937 
        2.30712         103.203         10.4263 
        2.31326         102.509         10.3594 
         2.3194         102.103         10.2932 
        2.32553         101.495         10.2276 
        2.33166         101.153         10.1627 
         2.3378         100.349         10.0982 
        2.34394         99.7489         10.0343 
        2.35007         99.2363         9.97098 
        2.35619         98.6564         9.90831 
        2.36233         98.3436         9.84604 
        2.36848         97.6209         9.78418 
        2.37462         97.4573         9.72298 
        2.38075         96.7304         9.66236 
        2.38689         96.2369         9.60221 
        2.39303         95.8268         9.54259 
        2.39916          95.209         9.48354 
        2.40529          94.849         9.42499 
        2.41143         94.1118          9.3669 
        2.41757         93.4144         9.30927 
         2.4237         93.1238         9.25224 
        2.42983         92.5529         9.19569 
        2.43598         92.1376         9.13947 
        2.44211         91.7633         9.08381 
        2.44823         91.1701         9.02874 
        2.45437         90.8857         8.97398 
        2.46052         90.1794         8.91964 
        2.46665         89.7429         8.86583 
        2.47279          89.332          8.8125 
        2.47892         88.9373         8.75956 
        2.48507         88.5573         8.70702 
         2.4912         87.8143         8.65501 
