# k  (h/Mpc)    Pcb(k)  (Mpc/h)^3    Pcb_linear(k)  (Mpc/h)^3
     0.00783031         12681.1         12859.5 
       0.013688         14645.5         14541.7 
       0.019231           13433         13382.6 
      0.0249154         10943.9         11098.5 
      0.0312784         8492.85         8511.27 
      0.0375637         6646.96         6584.93 
      0.0433917         5445.01         5462.67 
      0.0492413         4856.19         4838.56 
      0.0555754         4414.94         4487.91 
      0.0619321         4267.92         4227.49 
       0.067871         3858.45         3910.43 
      0.0738098         3440.39         3476.66 
      0.0800417         2911.79         2948.67 
      0.0862327         2462.55         2449.59 
      0.0921407          2129.1         2071.75 
      0.0982031         1853.55         1812.67 
       0.104506         1746.34         1666.66 
       0.110769         1661.11         1602.49 
       0.116806         1603.63         1566.01 
       0.122832         1547.66         1511.37 
       0.129052         1423.44         1412.32 
       0.135211         1300.87          1275.4 
       0.141259         1186.63         1126.61 
       0.147318          1068.8         990.295 
       0.153489         956.006         883.466 
       0.159709         895.406         814.084 
       0.165845         862.688         777.057 
       0.171974         828.729         757.999 
       0.178125         803.014         741.718 
       0.184229          772.84          716.53 
        0.19034         718.348         677.392 
       0.196428         688.417         627.212 
       0.202534         649.887         573.204 
       0.208729         602.563         523.089 
       0.214876         564.808         483.694 
       0.220989         540.965         456.306 
       0.227147         518.343         438.607 
        0.23329         499.869          426.58 
       0.239377         490.267         415.514 
       0.245482         457.493         401.716 
       0.251667         451.161         383.494 
       0.257832         431.354         361.876 
       0.263955         412.074          339.34 
       0.270079          391.95         318.277 
        0.27624         383.632         300.426 
       0.282372         369.148         286.622 
        0.28843         357.328         276.289 
       0.294538         340.339         267.969 
       0.300721         337.312          260.13 
        0.30691         321.916         251.701 
       0.313033         314.245         242.194 
       0.319153         302.063         231.754 
       0.325316         293.542         220.905 
        0.33145         282.613         210.613 
       0.337538         277.378         201.463 
       0.343633          267.56         193.675 
       0.349808         258.066         187.027 
       0.355968         254.545          181.28 
       0.362074         249.081          175.98 
       0.368217         241.867         170.619 
       0.374374         231.905         165.039 
       0.380519         229.179         159.229 
       0.386598         222.894          153.43 
       0.392688         219.459         147.811 
        0.39888         213.638         142.475 
       0.405048         207.891         137.673 
       0.411186         203.636         133.393 
       0.417313         199.272          129.49 
       0.423458         194.728         125.823 
       0.429607         190.854         122.262 
       0.435692         184.948         118.739 
       0.441815         183.088         115.188 
       0.447964         179.256         111.662 
       0.454126         172.554         108.215 
       0.460267         170.108         104.933 
       0.466387         167.837         101.872 
        0.47254          163.73         99.0052 
       0.478662         163.098         96.3257 
       0.484765         157.274         93.7883 
       0.490885         155.039         91.3424 
       0.497035         152.644         88.9478 
       0.503198         148.902         86.5863 
       0.509342             147         84.2723 
       0.515458         144.691         82.0334 
       0.521598         141.623         79.8711 
       0.527764         139.988         77.7937 
       0.533884         137.937         75.8234 
           0.54         135.418         73.9426 
       0.546137          134.23         72.1374 
       0.552299         131.536         70.3948 
       0.558452          129.86         68.7106 
       0.564573         127.734         67.0765 
       0.570708         125.002         65.4767 
       0.576825         123.542         63.9241 
       0.582926         121.084         62.4241 
       0.589034         119.691         60.9757 
       0.595184         118.163         59.5716 
       0.601379         116.314         58.2086 
       0.607522          114.24         56.9026 
       0.613639         113.334         55.6432 
       0.619772         111.032         54.4184 
       0.625918           109.7          53.227 
       0.632068         108.348         52.0701 
       0.638161         107.338         50.9572 
         0.6443          105.87         49.8685 
       0.650464         104.845         48.8074 
       0.656582         102.926         47.7848 
       0.662703         101.914         46.7914 
       0.668861         100.174         45.8211 
       0.675024         98.9667         44.8783 
       0.681124         98.2193         43.9724 
       0.687237         96.4193         43.0905 
       0.693381         95.0041         42.2292 
       0.699536         94.3928         41.3904 
       0.705665         93.9019         40.5783 
       0.711789         92.0106         39.7888 
       0.717957         91.7489         39.0149 
        0.72409         90.0988         38.2659 
       0.730186         88.8021         37.5412 
       0.736317          88.227         36.8314 
       0.742472         87.4671         36.1374 
       0.748622         86.4263          35.462 
        0.75476         85.5799         34.8055 
       0.760888         84.4856         34.1667 
       0.767043         83.9476         33.5415 
       0.773185         83.0357         32.9335 
       0.779291         81.6871         32.3441 
       0.785407         81.2352         31.7685 
       0.791564          80.722         31.2034 
       0.797719         79.0143         30.6525 
       0.803834          78.676         30.1185 
       0.809972         77.7088         29.5955 
       0.816124         77.2546         29.0839 
       0.822261         76.5907         28.5859 
       0.828378         75.9984         28.1012 
       0.834502         75.3701         27.6274 
       0.840667         74.3436         27.1616 
       0.846816         73.4011         26.7079 
       0.852925         72.9363         26.2676 
       0.859047         72.0281         25.8363 
       0.865192         71.5924         25.4133 
       0.871341         70.9678         24.9996 
       0.877463         69.9846         24.5971 
       0.883569         69.7934         24.2045 
       0.889708          69.067         23.8186 
       0.895864         68.5545         23.4401 
       0.902008         67.9372         23.0708 
       0.908149         67.4845         22.7097 
       0.914301         66.7798         22.3558 
       0.920448         66.2799         22.0098 
       0.926574         65.6428         21.6724 
       0.932687         65.6021         21.3429 
       0.938823         64.5797         21.0191 
       0.944975         63.9063         20.7013 
       0.951105         63.4763         20.3913 
       0.957225         62.8725         20.0882 
       0.963368           62.39         19.7902 
       0.969511         62.1905         19.4984 
       0.975621         61.8076          19.214 
       0.981748          61.176         18.9346 
       0.987916         60.5918         18.6591 
        0.99406          60.234         18.3901 
        1.00019         59.8141          18.127 
        1.00632         59.2871         17.8693 
        1.01246         58.9708         17.6162 
        1.01859         58.2263         17.3685 
        1.02471         57.9459         17.1259 
        1.03085         57.4651         16.8872 
        1.03698         57.1697         16.6535 
        1.04314         56.6723         16.4232 
        1.04929         56.2648         16.1979 
        1.05541         55.6693         15.9778 
        1.06154         55.6718         15.7612 
        1.06769         55.2125         15.5483 
        1.07382         54.8854         15.3401 
        1.07993          54.516         15.1362 
        1.08607         54.0897         14.9352 
        1.09222         53.8498         14.7377 
        1.09836         53.3156          14.544 
        1.10449         53.1366          14.354 
        1.11063         52.5883         14.1673 
        1.11677         52.3019         13.9839 
         1.1229         51.8278         13.8041 
        1.12903         51.3397         13.6274 
        1.13518         51.4321         13.4536 
        1.14131         51.0716          13.283 
        1.14745         50.5537         13.1155 
        1.15359         50.3562         12.9508 
        1.15973         49.8621         12.7889 
        1.16584          49.569         12.6305 
        1.17197         49.2908         12.4746 
        1.17811         49.1118         12.3209 
        1.18424         48.6281         12.1702 
        1.19038         48.3455         12.0216 
        1.19652         48.1655         11.8756 
        1.20267         47.6394          11.732 
        1.20881         47.5181         11.5908 
        1.21495         47.1089         11.4521 
        1.22108         47.0705         11.3158 
         1.2272         46.4252          11.182 
        1.23334          46.242         11.0501 
        1.23949         46.1602           10.92 
        1.24562          45.684         10.7924 
        1.25174         45.5302          10.667 
        1.25789         45.3841         10.5432 
        1.26402         44.9599         10.4217 
        1.27014         44.6631         10.3023 
        1.27628         44.3716         10.1845 
        1.28244         44.1735         10.0683 
        1.28858         44.0106         9.95409 
        1.29471         43.7827          9.8419 
        1.30084         43.5253         9.73155 
        1.30697         43.2259         9.62274 
        1.31312         42.9506         9.51544 
        1.31925         42.7152         9.41013 
        1.32537         42.5594         9.30652 
        1.33151         42.1858         9.20411 
        1.33765         42.0351         9.10331 
        1.34378          41.796         9.00423 
        1.34992         41.5401         8.90656 
        1.35606         41.3357         8.81013 
         1.3622         41.0824         8.71532 
        1.36833         40.8616         8.62213 
        1.37445         40.6464         8.53036 
        1.38059         40.3811         8.43965 
        1.38675         40.1482         8.35005 
        1.39288         39.9843         8.26211 
        1.39901         39.8222         8.17549 
        1.40515         39.5472         8.08992 
         1.4113         39.3561         8.00561 
        1.41742         39.2587         7.92283 
        1.42355          38.922         7.84107 
         1.4297         38.8189         7.76023 
        1.43585         38.6549         7.68056 
        1.44198         38.2992         7.60232 
        1.44809         38.2212         7.52532 
        1.45423         37.9946         7.44911 
        1.46036         37.8534         7.37409 
        1.46649         37.6668         7.30009 
        1.47263         37.4074         7.22704 
        1.47877         37.1793         7.15503 
        1.48491         37.2185         7.08389 
        1.49104          36.858         7.01387 
        1.49718         36.5277         6.94475 
        1.50333         36.5786         6.87645 
        1.50947         36.3651         6.80921 
         1.5156         36.1369         6.74298 
        1.52172         36.0451         6.67762 
        1.52787         35.9054         6.61301 
          1.534         35.6518         6.54934 
        1.54013          35.447         6.48657 
        1.54627         35.3799         6.42451 
        1.55241         34.9994         6.36326 
        1.55855         34.9817          6.3029 
        1.56467         34.6412         6.24349 
         1.5708         34.7215         6.18468 
        1.57695         34.4716         6.12654 
        1.58308         34.2698         6.06929 
        1.58922         34.1645         6.01273 
        1.59535         34.0461         5.95692 
         1.6015         33.7935         5.90174 
        1.60764         33.5668         5.84729 
        1.61376         33.4668         5.79368 
        1.61989         33.2947          5.7407 
        1.62604         33.1348         5.68827 
        1.63218         33.1201         5.63653 
        1.63831         32.8675         5.58555 
        1.64444         32.7169         5.53519 
        1.65059         32.6318         5.48533 
        1.65673         32.4005         5.43614 
        1.66285         32.2305          5.3877 
        1.66898         32.1138         5.33983 
        1.67512         31.9207         5.29245 
        1.68127         31.7896         5.24561 
         1.6874         31.6251         5.19944 
        1.69353         31.4906         5.15385 
        1.69967          31.355         5.10871 
        1.70581         31.3146         5.06412 
        1.71193         31.1618         5.02024 
        1.71806          30.849         4.97679 
        1.72421         30.8026         4.93376 
        1.73035         30.6535         4.89129 
        1.73649         30.4316         4.84934 
        1.74262         30.3384         4.80791 
        1.74876         30.2532         4.76694 
        1.75489         30.1109         4.72653 
        1.76101         29.9934          4.6866 
        1.76715         29.8768         4.64708 
        1.77329         29.7649         4.60797 
        1.77943         29.6365          4.5693 
        1.78557         29.4344         4.53113 
        1.79171         29.3328         4.49339 
        1.79785         29.1646         4.45607 
        1.80399         29.1523         4.41918 
        1.81012         28.9237         4.38277 
        1.81625         28.8315         4.34678 
        1.82239         28.6966         4.31114 
        1.82853         28.5953         4.27592 
        1.83466         28.4096         4.24113 
        1.84078         28.2194         4.20677 
        1.84692         28.1708         4.17273 
        1.85306           28.01         4.13902 
         1.8592         27.8923         4.10575 
        1.86533         27.7947         4.07286 
        1.87147         27.7446         4.04029 
        1.87761         27.5798         4.00807 
        1.88375         27.4683         3.97623 
        1.88988         27.3836         3.94478 
        1.89601         27.2687         3.91365 
        1.90215         27.1476         3.88283 
        1.90829         27.0544         3.85237 
        1.91442         26.9198         3.82222 
        1.92056         26.7675         3.79243 
         1.9267         26.7038         3.76293 
        1.93284         26.4866         3.73372 
        1.93897         26.4846         3.70488 
        1.94509         26.3362          3.6764 
        1.95123         26.2137         3.64816 
        1.95737         26.0962         3.62019 
        1.96349         26.0111         3.59259 
        1.96964         25.9131          3.5652 
        1.97578         25.7206         3.53808 
        1.98192         25.6632         3.51129 
        1.98805         25.6057         3.48479 
        1.99419         25.4854         3.45855 
        2.00033         25.3552         3.43258 
        2.00647         25.2513         3.40688 
         2.0126         25.1202         3.38148 
        2.01874          25.076         3.35631 
        2.02488         24.9749         3.33137 
        2.03101         24.8724         3.30673 
        2.03714         24.7589         3.28236 
        2.04328         24.6193         3.25822 
        2.04941         24.5448         3.23433 
        2.05554         24.4531         3.21071 
        2.06167         24.3453         3.18728 
        2.06781         24.2236         3.16409 
        2.07396         24.1585          3.1411 
        2.08009         24.0734         3.11838 
        2.08622         23.9201          3.0959 
        2.09237         23.8485         3.07361 
        2.09851         23.7588         3.05153 
        2.10464         23.6545         3.02971 
        2.11077          23.594         3.00812 
        2.11691         23.4715          2.9867 
        2.12305          23.394         2.96549 
        2.12918         23.2658         2.94453 
        2.13531          23.257         2.92378 
        2.14145         23.1114         2.90318 
         2.1476         23.0359         2.88275 
        2.15372          22.927         2.86262 
        2.15985         22.8505         2.84267 
        2.16599         22.7602         2.82284 
        2.17213         22.6981         2.80323 
        2.17827         22.5339         2.78381 
         2.1844         22.4748          2.7646 
        2.19054         22.3957         2.74555 
        2.19666         22.2959         2.72672 
         2.2028         22.1798         2.70804 
        2.20893         22.1504         2.68953 
        2.21508         22.0746         2.67118 
        2.22122         21.9034         2.65299 
        2.22736         21.8632           2.635 
        2.23349         21.7712         2.61719 
        2.23962         21.6961         2.59954 
        2.24577         21.5972         2.58203 
         2.2519         21.5509         2.56471 
        2.25802         21.4231         2.54757 
        2.26417         21.3686         2.53055 
        2.27031          21.246         2.51366 
        2.27644         21.1616         2.49698 
        2.28257         21.0978         2.48045 
        2.28872         21.0315         2.46404 
        2.29486         20.9561         2.44778 
        2.30099         20.8402          2.4317 
        2.30712         20.7773         2.41576 
        2.31326         20.7477         2.39994 
         2.3194         20.6363         2.38426 
        2.32553         20.5542         2.36876 
        2.33166         20.4572         2.35339 
         2.3378         20.3837         2.33815 
        2.34394         20.2748         2.32303 
        2.35007         20.2404         2.30807 
        2.35619         20.1513         2.29326 
        2.36233         20.0553         2.27855 
        2.36848         19.9978         2.26393 
        2.37462          19.898         2.24948 
        2.38075         19.8573         2.23516 
        2.38689         19.7667         2.22096 
        2.39303         19.6781         2.20688 
        2.39916         19.6141         2.19294 
        2.40529         19.5767         2.17912 
        2.41143         19.4691         2.16541 
        2.41757         19.3908         2.15182 
         2.4237         19.3007         2.13836 
        2.42983         19.1909         2.12502 
        2.43598         19.1557         2.11176 
        2.44211         19.0875         2.09864 
        2.44823         19.0172         2.08565 
        2.45437          18.924         2.07275 
        2.46052         18.8565         2.05994 
        2.46665         18.8118         2.04726 
        2.47279         18.7504         2.03469 
        2.47892         18.6801         2.02222 
        2.48507         18.5639         2.00984 
         2.4912         18.5357         1.99759 
