# k  (h/Mpc)    P(k)  (Mpc/h)^3    P_linear(k)  (Mpc/h)^3
     0.00783031         5630.83         5672.66 
       0.013688         6918.82         7048.87 
       0.019231         7161.18         7232.53 
      0.0249154         6819.97         6813.35 
      0.0312784          6011.8         6045.76 
      0.0375637         5217.08         5271.86 
      0.0433917         4661.01         4671.02 
      0.0492413         4176.59         4210.85 
      0.0555754         3838.99         3845.72 
      0.0619321         3478.99         3560.69 
       0.067871         3278.28         3316.77 
      0.0738098         3041.13          3063.5 
      0.0800417         2769.99         2780.07 
      0.0862327         2476.52          2494.2 
      0.0921407         2229.32         2238.93 
      0.0982031         2025.32         2013.73 
       0.104506         1819.44         1828.74 
       0.110769         1689.86         1692.04 
       0.116806         1614.32         1593.48 
       0.122832         1515.74         1512.86 
       0.129052         1442.03         1433.87 
       0.135211         1375.97         1350.41 
       0.141259         1275.13         1260.98 
       0.147318         1171.42         1167.47 
       0.153489         1092.64         1074.98 
       0.159709         1028.84         991.431 
       0.165845         940.617         922.651 
       0.171974         912.497         868.072 
       0.178125         872.665         824.991 
       0.184229         817.824         789.579 
        0.19034         797.317         756.948 
       0.196428         767.594         723.803 
       0.202534         716.725         688.313 
       0.208729         696.514         650.342 
       0.214876          664.82         612.442 
       0.220989         618.507           576.7 
       0.227147         601.742         544.435 
        0.23329         577.351         516.823 
       0.239377         563.013         493.795 
       0.245482         535.061         474.062 
       0.251667         513.656         456.123 
       0.257832         507.111         438.993 
       0.263955         479.236         421.849 
       0.270079         461.801         404.255 
        0.27624         441.392         386.364 
       0.282372         429.188         368.906 
        0.28843         424.636         352.605 
       0.294538         403.357         337.566 
       0.300721         388.472          323.94 
        0.30691         382.051         311.795 
       0.313033         365.782         300.907 
       0.319153         359.306          290.75 
       0.325316          349.47         280.876 
        0.33145         340.275         271.182 
       0.337538         328.509         261.617 
       0.343633         318.216         252.182 
       0.349808         309.175         242.921 
       0.355968          302.13          234.14 
       0.362074         294.365         226.013 
       0.368217         289.727         218.429 
       0.374374         283.047          211.39 
       0.380519         271.431         204.812 
       0.386598         266.893         198.625 
       0.392688         260.179         192.651 
        0.39888         254.321         186.727 
       0.405048         249.284         180.966 
       0.411186         246.334         175.387 
       0.417313         241.021         170.005 
       0.423458         234.609         164.841 
       0.429607         229.432         159.933 
       0.435692         225.321         155.329 
       0.441815         220.397          150.94 
       0.447964         214.244         146.743 
       0.454126         210.718         142.709 
       0.460267         208.415          138.83 
       0.466387         204.097         135.085 
        0.47254         201.609         131.429 
       0.478662         195.278           127.9 
       0.484765         192.802         124.503 
       0.490885         189.546         121.223 
       0.497035         187.605         118.057 
       0.503198         184.463         115.013 
       0.509342         179.608         112.104 
       0.515458          177.57         109.321 
       0.521598          173.37         106.625 
       0.527764          171.53         104.006 
       0.533884         170.802         101.488 
           0.54         166.445         99.0507 
       0.546137         162.724         96.6789 
       0.552299         161.019         94.3719 
       0.558452         158.145          92.144 
       0.564573         157.343         90.0026 
       0.570708         153.328         87.9304 
       0.576825         151.464         85.9341 
       0.582926         149.828         84.0078 
       0.589034         147.592         82.1393 
       0.595184         146.172         80.3155 
       0.601379         142.813         78.5343 
       0.607522         140.531         76.8205 
       0.613639         139.396         75.1638 
       0.619772         137.474          73.551 
       0.625918         136.371         71.9821 
       0.632068         133.505         70.4588 
       0.638161         131.757         68.9945 
         0.6443         131.131          67.563 
       0.650464         128.585         66.1684 
       0.656582         128.027         64.8239 
       0.662703         126.507         63.5166 
       0.668861         123.856         62.2378 
       0.675024         123.895         60.9928 
       0.681124         121.837         59.7943 
       0.687237         119.769         58.6256 
       0.693381         119.128          57.483 
       0.699536         117.607         56.3692 
       0.705665         115.981         55.2902 
       0.711789         114.543          54.241 
       0.717957         113.292         53.2121 
        0.72409         112.451         52.2159 
       0.730186         111.846         51.2514 
       0.736317         109.855         50.3061 
       0.742472         108.534         49.3813 
       0.748622         106.919         48.4807 
        0.75476         106.699         47.6046 
       0.760888         105.956         46.7516 
       0.767043         104.004         45.9163 
       0.773185         102.825         45.1034 
       0.779291         101.691         44.3149 
       0.785407         100.563         43.5443 
       0.791564         100.335         42.7873 
       0.797719         99.0557         42.0489 
       0.803834         98.3551         41.3327 
       0.809972         97.6778         40.6307 
       0.816124         96.4532         39.9436 
       0.822261         95.2873         39.2743 
       0.828378          95.079         38.6224 
       0.834502         93.5988         37.9849 
       0.840667         93.1176         37.3577 
       0.846816         92.2461         36.7465 
       0.852925         91.2408         36.1529 
       0.859047         90.8754         35.5713 
       0.865192          89.637         35.0006 
       0.871341         88.6779         34.4422 
       0.877463         88.1209         33.8985 
       0.883569         87.9053          33.368 
       0.889708         87.0954         32.8462 
       0.895864         86.3117         32.3343 
       0.902008         85.5077         31.8345 
       0.908149         84.4727         31.3456 
       0.914301         84.2684         30.8662 
       0.920448         83.8832         30.3973 
       0.926574         82.2642         29.9399 
       0.932687         82.0561         29.4929 
       0.938823         81.3893         29.0535 
       0.944975         80.4397          28.622 
       0.951105         79.8342          28.201 
       0.957225         79.7215         27.7891 
       0.963368         78.8494         27.3842 
       0.969511         78.1831         26.9873 
       0.975621         77.6223         26.6005 
       0.981748         76.8681         26.2203 
       0.987916         76.3667         25.8452 
        0.99406         75.9936         25.4789 
        1.00019          75.111         25.1204 
        1.00632         74.6422         24.7692 
        1.01246         74.1469         24.4242 
        1.01859         73.8357         24.0864 
        1.02471         73.0071         23.7554 
        1.03085         72.5152         23.4295 
        1.03698         72.0837         23.1104 
        1.04314         71.5558          22.796 
        1.04929         71.0724         22.4882 
        1.05541         70.6288         22.1873 
        1.06154         70.2274         21.8911 
        1.06769          69.428            21.6 
        1.07382         68.9688         21.3151 
        1.07993         68.7183         21.0361 
        1.08607         68.1535         20.7609 
        1.09222         67.9249         20.4903 
        1.09836         67.2729         20.2249 
        1.10449         66.9073         19.9646 
        1.11063         66.3555         19.7085 
        1.11677          66.145         19.4571 
         1.1229         65.4785         19.2105 
        1.12903         65.3044          18.968 
        1.13518         65.0981         18.7294 
        1.14131         64.4038         18.4951 
        1.14745         63.8799          18.265 
        1.15359         63.2502         18.0387 
        1.15973          63.218         17.8162 
        1.16584         62.7553         17.5985 
        1.17197         62.1169         17.3841 
        1.17811         61.8733         17.1727 
        1.18424         61.1377         16.9653 
        1.19038         61.0971         16.7609 
        1.19652          60.801         16.5598 
        1.20267         60.3419         16.3621 
        1.20881         59.9441         16.1677 
        1.21495          59.691         15.9767 
        1.22108         59.4534         15.7889 
         1.2272         58.8894         15.6046 
        1.23334         58.6003         15.4227 
        1.23949         58.2575         15.2434 
        1.24562         57.8276         15.0674 
        1.25174         57.4706         14.8944 
        1.25789         57.4867         14.7237 
        1.26402         56.9555         14.5559 
        1.27014          56.704         14.3912 
        1.27628         56.1563         14.2285 
        1.28244           56.04         14.0681 
        1.28858         55.6649         13.9103 
        1.29471          55.376         13.7553 
        1.30084         54.8785         13.6028 
        1.30697         54.8841         13.4524 
        1.31312         54.3663         13.3041 
        1.31925          53.963         13.1585 
        1.32537         53.7475         13.0151 
        1.33151         53.4471         12.8735 
        1.33765         53.1875          12.734 
        1.34378         52.9806         12.5968 
        1.34992         52.5979         12.4616 
        1.35606         52.2534         12.3281 
         1.3622         51.9949         12.1968 
        1.36833         51.7129         12.0677 
        1.37445         51.2684         11.9406 
        1.38059         51.2129         11.8149 
        1.38675         50.6571         11.6907 
        1.39288          50.667         11.5688 
        1.39901          50.245         11.4487 
        1.40515         50.0456           11.33 
         1.4113         49.9914         11.2131 
        1.41742         49.6283         11.0983 
        1.42355         49.2296         10.9848 
         1.4297          48.999         10.8726 
        1.43585         48.6778         10.7621 
        1.44198         48.4022         10.6534 
        1.44809         48.1473         10.5465 
        1.45423         47.9813         10.4407 
        1.46036          47.744         10.3365 
        1.46649         47.5581         10.2337 
        1.47263         47.2258         10.1322 
        1.47877         47.0503         10.0322 
        1.48491         46.8571         9.93333 
        1.49104          46.451         9.83601 
        1.49718         46.3042         9.73992 
        1.50333         46.1374         9.64497 
        1.50947         45.8098         9.55147 
         1.5156         45.6259         9.45935 
        1.52172         45.2934         9.36845 
        1.52787         45.1138         9.27857 
          1.534         44.8884         9.18997 
        1.54013         44.8042         9.10262 
        1.54627         44.3636         9.01625 
        1.55241         44.1684         8.93099 
        1.55855         44.1014         8.84696 
        1.56467          43.797         8.76423 
         1.5708         43.6672         8.68234 
        1.57695         43.4081         8.60136 
        1.58308         43.0744         8.52161 
        1.58922         42.9004         8.44282 
        1.59535         42.7604         8.36505 
         1.6015         42.6829         8.28815 
        1.60764          42.385         8.21226 
        1.61376         42.1202         8.13752 
        1.61989         41.8755         8.06366 
        1.62604         41.7129         7.99055 
        1.63218         41.4878         7.91839 
        1.63831         41.3807         7.84729 
        1.64444         41.1262         7.77704 
        1.65059         40.9451         7.70748 
        1.65673         40.7112         7.63884 
        1.66285         40.6507         7.57124 
        1.66898         40.2492         7.50443 
        1.67512         40.2017          7.4383 
        1.68127         39.9791         7.37291 
         1.6874         39.7691         7.30845 
        1.69353         39.6914          7.2448 
        1.69967         39.5125         7.18176 
        1.70581         39.1641         7.11949 
        1.71193         38.9998          7.0582 
        1.71806          38.895          6.9975 
        1.72421         38.7117         6.93739 
        1.73035         38.5069         6.87806 
        1.73649         38.2391         6.81944 
        1.74262         38.0076         6.76154 
        1.74876         37.9413         6.70428 
        1.75489         37.7301          6.6478 
        1.76101         37.5986         6.59199 
        1.76715         37.4963         6.53674 
        1.77329         37.1682         6.48206 
        1.77943          37.149         6.42798 
        1.78557         36.9578          6.3746 
        1.79171         36.7963         6.32181 
        1.79785         36.6004         6.26962 
        1.80399         36.4422         6.21802 
        1.81012         36.3201         6.16708 
        1.81625         36.0012         6.11672 
        1.82239          35.895         6.06686 
        1.82853         35.7713         6.01757 
        1.83466         35.5692         5.96888 
        1.84078          35.414         5.92078 
        1.84692         35.2663         5.87313 
        1.85306         35.0426         5.82595 
         1.8592         34.9817         5.77936 
        1.86533         34.7961         5.73331 
        1.87147         34.6298          5.6877 
        1.87761          34.425         5.64257 
        1.88375         34.3895         5.59798 
        1.88988         34.1788         5.55393 
        1.89601         33.9601         5.51032 
        1.90215         33.8787         5.46714 
        1.90829          33.724         5.42445 
        1.91442         33.5317         5.38222 
        1.92056         33.4044         5.34047 
         1.9267         33.3279         5.29912 
        1.93284         33.1148         5.25818 
        1.93897         33.0234         5.21775 
        1.94509         32.8534         5.17784 
        1.95123         32.7362         5.13824 
        1.95737         32.5333         5.09903 
        1.96349         32.4231         5.06032 
        1.96964         32.3618         5.02191 
        1.97578         32.0959         4.98388 
        1.98192         31.9823         4.94632 
        1.98805         31.7785         4.90914 
        1.99419         31.7286         4.87234 
        2.00033         31.5434          4.8359 
        2.00647         31.4791         4.79984 
         2.0126         31.2837         4.76422 
        2.01874         31.1327         4.72889 
        2.02488         31.0033          4.6939 
        2.03101         30.8231         4.65932 
        2.03714         30.7456         4.62513 
        2.04328          30.624         4.59123 
        2.04941         30.4648         4.55771 
        2.05554         30.3752         4.52455 
        2.06167         30.1867         4.49167 
        2.06781           30.12         4.45911 
        2.07396         30.0016         4.42683 
        2.08009         29.8414         4.39492 
        2.08622         29.6941         4.36336 
        2.09237         29.6239         4.33206 
        2.09851         29.4054         4.30105 
        2.10464          29.264          4.2704 
        2.11077          29.256         4.24008 
        2.11691         29.0691         4.20999 
        2.12305         28.9424          4.1802 
        2.12918         28.8294         4.15076 
        2.13531         28.7181          4.1216 
        2.14145         28.5953         4.09266 
         2.1476          28.413         4.06395 
        2.15372         28.3508         4.03567 
        2.15985         28.2241         4.00763 
        2.16599         28.0508         3.97978 
        2.17213         27.9966         3.95222 
        2.17827         27.8351         3.92492 
         2.1844         27.7592         3.89791 
        2.19054         27.6644         3.87114 
        2.19666         27.4877         3.84467 
         2.2028         27.4416         3.81841 
        2.20893          27.281         3.79239 
        2.21508         27.1847         3.76658 
        2.22122         27.0431         3.74101 
        2.22736         26.9544         3.71572 
        2.23349          26.785         3.69068 
        2.23962         26.7401         3.66585 
        2.24577         26.6013         3.64123 
         2.2519         26.5073         3.61686 
        2.25802         26.3495         3.59276 
        2.26417         26.2284         3.56882 
        2.27031         26.1843         3.54506 
        2.27644          26.114          3.5216 
        2.28257         25.9714         3.49834 
        2.28872         25.8859         3.47526 
        2.29486         25.7409         3.45238 
        2.30099         25.6022         3.42976 
        2.30712         25.5481         3.40733 
        2.31326         25.3992         3.38506 
         2.3194          25.328         3.36301 
        2.32553         25.2258         3.34119 
        2.33166         25.0965         3.31957 
         2.3378         25.0516         3.29811 
        2.34394         24.9111         3.27683 
        2.35007         24.8519         3.25577 
        2.35619           24.74         3.23493 
        2.36233         24.5868         3.21421 
        2.36848         24.4789         3.19364 
        2.37462         24.4359         3.17329 
        2.38075         24.2998         3.15313 
        2.38689         24.1721         3.13313 
        2.39303         24.1568         3.11331 
        2.39916         23.9884         3.09368 
        2.40529         23.8859         3.07422 
        2.41143         23.8177         3.05492 
        2.41757         23.6705         3.03577 
         2.4237         23.6059         3.01682 
        2.42983         23.5216         2.99804 
        2.43598         23.3992         2.97936 
        2.44211         23.3433         2.96088 
        2.44823         23.2182         2.94259 
        2.45437         23.1905         2.92441 
        2.46052          23.036         2.90636 
        2.46665         22.9885          2.8885 
        2.47279         22.8328          2.8708 
        2.47892         22.7654         2.85323 
        2.48507         22.6883         2.83579 
         2.4912         22.6122         2.81853 
