# k  (h/Mpc)    P(k)  (Mpc/h)^3    P_linear(k)  (Mpc/h)^3
     0.00783031          7011.4         7108.31 
       0.013688         8906.26         8868.41 
       0.019231         9131.76          9126.4 
      0.0249154         8490.22         8616.58 
      0.0312784         7607.01         7661.93 
      0.0375637         6695.76         6696.33 
      0.0433917          5873.5         5947.96 
      0.0492413         5347.21         5376.38 
      0.0555754         4818.55         4922.74 
      0.0619321         4573.01         4565.24 
       0.067871         4174.96          4254.3 
      0.0738098         3851.56         3927.69 
      0.0800417         3464.11         3561.14 
      0.0862327         3137.06         3193.03 
      0.0921407          2849.3         2867.02 
      0.0982031         2554.57         2582.29 
       0.104506         2380.22          2350.9 
       0.110769         2204.65         2181.19 
       0.116806         2065.41         2058.47 
       0.122832         1973.32         1956.15 
       0.129052         1840.42         1853.22 
       0.135211          1737.1         1742.75 
       0.141259         1645.16         1624.35 
       0.147318         1538.28         1501.71 
       0.153489         1409.43         1382.16 
       0.159709         1323.26         1275.97 
       0.165845         1262.02         1189.97 
       0.171974         1185.36         1122.51 
       0.178125         1130.96         1069.24 
       0.184229         1088.14         1024.63 
        0.19034         1020.22         982.253 
       0.196428         998.429         938.149 
       0.202534         962.484         890.551 
       0.208729         910.655         839.931 
       0.214876         859.448         790.122 
       0.220989          829.96         743.987 
       0.227147         783.885         703.109 
        0.23329          752.12         668.652 
       0.239377         734.984         640.086 
       0.245482         688.187         615.421 
       0.251667         680.956         592.535 
       0.257832          656.83         570.119 
       0.263955          633.97         547.309 
       0.270079         610.888         523.811 
        0.27624          601.29         500.048 
       0.282372         575.562         477.172 
        0.28843         559.238          456.13 
       0.294538         533.174         437.011 
       0.300721          529.13         419.852 
        0.30691         504.877         404.581 
       0.313033          494.23         390.778 
       0.319153         477.771         377.708 
       0.325316         464.534         364.797 
        0.33145         450.547         351.996 
       0.337538         444.432         339.329 
       0.343633          429.73         326.895 
       0.349808         415.954         314.794 
       0.355968         410.887         303.454 
       0.362074         401.542         293.042 
       0.368217          390.75          283.39 
       0.374374         376.405         274.425 
       0.380519         371.669         265.997 
       0.386598         362.631         258.007 
       0.392688         359.202         250.216 
        0.39888         349.232         242.449 
       0.405048         341.745         234.887 
       0.411186         334.635         227.576 
       0.417313         328.503         220.565 
       0.423458         322.232         213.883 
       0.429607         315.121         207.556 
       0.435692         306.822         201.645 
       0.441815         304.604         196.007 
       0.447964         298.885         190.596 
       0.454126          287.72         185.371 
       0.460267         284.453         180.328 
       0.466387         281.083         175.442 
        0.47254         275.018         170.665 
       0.478662         273.459         166.065 
       0.484765         265.519         161.647 
       0.490885         261.992         157.393 
       0.497035         258.128         153.294 
       0.503198         251.978         149.365 
       0.509342           249.4         145.608 
       0.515458         246.195         142.005 
       0.521598         242.288         138.508 
       0.527764         238.339         135.105 
       0.533884         235.222         131.831 
           0.54          231.83         128.658 
       0.546137         230.537          125.57 
       0.552299         226.086         122.571 
       0.558452         223.088         119.678 
       0.564573         219.395         116.903 
       0.570708         215.681         114.219 
       0.576825         212.954         111.631 
       0.582926         210.103         109.132 
       0.589034         207.304         106.707 
       0.595184          205.24         104.339 
       0.601379         203.231         102.025 
       0.607522         198.893         99.7972 
       0.613639         198.102         97.6433 
       0.619772         193.669          95.547 
       0.625918          192.04         93.5089 
       0.632068         189.775         91.5313 
       0.638161         188.539         89.6313 
         0.6443         185.589         87.7741 
       0.650464         183.754         85.9643 
       0.656582         182.033         84.2189 
       0.662703         179.567          82.521 
       0.668861         177.062         80.8593 
       0.675024          175.06         79.2416 
       0.681124         174.117         77.6843 
       0.687237         171.153         76.1659 
       0.693381         168.906         74.6817 
       0.699536         167.659         73.2353 
       0.705665         167.628         71.8341 
       0.711789         163.924         70.4715 
       0.717957         163.302         69.1353 
        0.72409         161.094         67.8414 
       0.730186         158.639         66.5884 
       0.736317         157.849         65.3604 
       0.742472         156.771         64.1588 
       0.748622         155.446         62.9886 
        0.75476         154.013         61.8503 
       0.760888         151.873          60.742 
       0.767043         150.963         59.6568 
       0.773185         149.395         58.6005 
       0.779291         147.339         57.5761 
       0.785407         146.528         56.5748 
       0.791564         145.087         55.5913 
       0.797719         143.183         54.6318 
       0.803834          142.55         53.7012 
       0.809972         140.704         52.7891 
       0.816124         140.503         51.8962 
       0.822261         138.792         51.0265 
       0.828378         137.499         50.1794 
       0.834502         137.046         49.3509 
       0.840667         135.133         48.5359 
       0.846816         133.985         47.7417 
       0.852925         132.934         46.9703 
       0.859047         131.436         46.2145 
       0.865192         130.818          45.473 
       0.871341         129.485         44.7473 
       0.877463         128.353         44.0408 
       0.883569         127.398         43.3515 
       0.889708         126.549         42.6735 
       0.895864          125.36         42.0083 
       0.902008         124.496         41.3588 
       0.908149         123.783         40.7235 
       0.914301          122.42         40.1005 
       0.920448         121.655         39.4913 
       0.926574         120.895         38.8969 
       0.932687         120.293          38.316 
       0.938823         118.599          37.745 
       0.944975         117.748         37.1844 
       0.951105         117.053         36.6372 
       0.957225         115.616          36.102 
       0.963368         115.037         35.5758 
       0.969511         114.583         35.0601 
       0.975621         114.054         34.5574 
       0.981748           113.1         34.0633 
       0.987916         111.932         33.5758 
        0.99406          111.36         33.0997 
        1.00019         110.419         32.6338 
        1.00632         109.817         32.1773 
        1.01246         108.905          31.729 
        1.01859         107.558         31.2899 
        1.02471         107.809         30.8597 
        1.03085         106.645         30.4361 
        1.03698         105.808         30.0214 
        1.04314         104.877         29.6127 
        1.04929          104.33         29.2126 
        1.05541         103.607         28.8215 
        1.06154         103.034         28.4367 
        1.06769         102.582         28.0583 
        1.07382         102.081          27.688 
        1.07993         101.334         27.3253 
        1.08607         100.464         26.9676 
        1.09222         99.9465          26.616 
        1.09836         99.1731         26.2711 
        1.10449         98.5766         25.9327 
        1.11063         97.9667            25.6 
        1.11677         97.4377         25.2732 
         1.1229         96.4924         24.9527 
        1.12903         95.6194         24.6375 
        1.13518         95.8602         24.3275 
        1.14131         95.0384          24.023 
        1.14745         94.0722         23.7239 
        1.15359         93.6737         23.4299 
        1.15973         93.2749         23.1408 
        1.16584         92.5359         22.8578 
        1.17197         91.9804         22.5792 
        1.17811         91.4335         22.3044 
        1.18424         90.7143          22.035 
        1.19038         90.2254         21.7693 
        1.19652         89.8244          21.508 
        1.20267         89.1042         21.2511 
        1.20881         88.6272         20.9984 
        1.21495         87.9625         20.7502 
        1.22108         87.4716         20.5061 
         1.2272         86.8583         20.2665 
        1.23334         86.4793         20.0302 
        1.23949         85.8764         19.7971 
        1.24562         85.6081         19.5683 
        1.25174         85.0104         19.3436 
        1.25789         84.5534         19.1216 
        1.26402         84.1312         18.9036 
        1.27014         83.2821         18.6895 
        1.27628          83.153         18.4781 
        1.28244         82.3791         18.2695 
        1.28858         82.0525         18.0645 
        1.29471         81.6587          17.863 
        1.30084         81.0864         17.6649 
        1.30697         80.5804         17.4694 
        1.31312         80.1932         17.2766 
        1.31925         79.8941         17.0873 
        1.32537         79.4585         16.9011 
        1.33151         78.7012          16.717 
        1.33765         78.3288         16.5357 
        1.34378         77.8318         16.3575 
        1.34992         77.5573         16.1818 
        1.35606         77.1181         16.0083 
         1.3622         76.4264         15.8376 
        1.36833         76.2902         15.6699 
        1.37445          75.776         15.5046 
        1.38059         75.2372         15.3413 
        1.38675         74.8606         15.1799 
        1.39288         74.3589         15.0215 
        1.39901         74.2691         14.8654 
        1.40515          73.833         14.7112 
         1.4113         73.2728         14.5593 
        1.41742           73.07         14.4101 
        1.42355         72.4646         14.2627 
         1.4297         72.1369         14.1169 
        1.43585         71.6394         13.9732 
        1.44198         71.4059          13.832 
        1.44809         70.9659         13.6931 
        1.45423         70.6521         13.5556 
        1.46036         70.3209         13.4202 
        1.46649         69.8714         13.2866 
        1.47263         69.4942         13.1548 
        1.47877         69.2807         13.0248 
        1.48491         68.8882         12.8963 
        1.49104         68.4012         12.7698 
        1.49718         67.9866          12.645 
        1.50333         67.6994         12.5216 
        1.50947         67.2615         12.4001 
         1.5156         67.0229         12.2804 
        1.52172         66.6734         12.1622 
        1.52787         66.4615         12.0454 
          1.534         66.0777         11.9303 
        1.54013         65.6399         11.8168 
        1.54627         65.3728         11.7046 
        1.55241         64.9446         11.5938 
        1.55855         64.5415         11.4846 
        1.56467         64.1037         11.3771 
         1.5708         64.0418         11.2707 
        1.57695         63.7382         11.1654 
        1.58308         63.3096         11.0618 
        1.58922         63.1686         10.9594 
        1.59535         62.8738         10.8584 
         1.6015         62.3118         10.7585 
        1.60764         62.1949         10.6598 
        1.61376         61.7685         10.5627 
        1.61989         61.3758         10.4668 
        1.62604         61.2188         10.3718 
        1.63218         61.0063          10.278 
        1.63831         60.6107         10.1856 
        1.64444         60.3243         10.0944 
        1.65059          59.819          10.004 
        1.65673         59.6746         9.91483 
        1.66285         59.3712           9.827 
        1.66898         59.0586          9.7402 
        1.67512         58.6849         9.65429 
        1.68127         58.3582         9.56933 
         1.6874          58.201         9.48558 
        1.69353         57.8474         9.40289 
        1.69967         57.5802         9.32099 
        1.70581         57.4532         9.24009 
        1.71193         57.1358         9.16046 
        1.71806         56.6397          9.0816 
        1.72421         56.5412         9.00351 
        1.73035         56.1561         8.92643 
        1.73649         55.7842         8.85026 
        1.74262         55.6808         8.77505 
        1.74876         55.4468         8.70065 
        1.75489         55.0719         8.62728 
        1.76101         54.8973         8.55477 
        1.76715          54.518         8.48299 
        1.77329         54.2923         8.41195 
        1.77943         54.0702         8.34169 
        1.78557         53.8743         8.27234 
        1.79171         53.5128         8.20376 
        1.79785         53.2985         8.13595 
        1.80399         52.9979         8.06892 
        1.81012         52.8845         8.00273 
        1.81625         52.3434         7.93731 
        1.82239         52.2089         7.87253 
        1.82853         51.8206         7.80851 
        1.83466         51.7444         7.74525 
        1.84078         51.3005         7.68276 
        1.84692         51.1273         7.62087 
        1.85306         50.9183         7.55957 
         1.8592          50.614         7.49905 
        1.86533         50.4056         7.43922 
        1.87147         50.1817         7.37998 
        1.87761         49.9973         7.32136 
        1.88375         49.7648         7.26344 
        1.88988         49.6821         7.20621 
        1.89601         49.2322         7.14956 
        1.90215         49.0423         7.09348 
        1.90829          48.892         7.03803 
        1.91442         48.6233         6.98316 
        1.92056         48.3666         6.92893 
         1.9267         48.0339         6.87522 
        1.93284          47.834         6.82205 
        1.93897         47.6716         6.76954 
        1.94509         47.3637         6.71769 
        1.95123         47.2434         6.66626 
        1.95737          47.005         6.61533 
        1.96349         46.7466         6.56506 
        1.96964          46.574         6.51516 
        1.97578          46.318         6.46577 
        1.98192         46.1216         6.41698 
        1.98805         45.9323         6.36869 
        1.99419         45.5937         6.32089 
        2.00033         45.4255         6.27357 
        2.00647         45.2612         6.22673 
         2.0126         45.0052         6.18046 
        2.01874         44.8075         6.13458 
        2.02488         44.6727         6.08913 
        2.03101         44.3536         6.04422 
        2.03714         44.1639         5.99981 
        2.04328         43.9187         5.95579 
        2.04941         43.6938         5.91225 
        2.05554         43.4535         5.86918 
        2.06167         43.4079         5.82647 
        2.06781         43.1461         5.78419 
        2.07396          42.897         5.74226 
        2.08009         42.7497         5.70082 
        2.08622         42.4766         5.65984 
        2.09237         42.2952         5.61918 
        2.09851         42.0601         5.57891 
        2.10464         41.9085          5.5391 
        2.11077         41.7563         5.49973 
        2.11691         41.5164         5.46066 
        2.12305         41.2563         5.42196 
        2.12918         41.1394         5.38372 
        2.13531          40.926         5.34586 
        2.14145         40.7911         5.30827 
         2.1476          40.552         5.27099 
        2.15372          40.315         5.23427 
        2.15985         40.2164         5.19785 
        2.16599         40.0972         5.16167 
        2.17213         39.9879         5.12588 
        2.17827         39.6227         5.09044 
         2.1844         39.4266         5.05536 
        2.19054         39.2415          5.0206 
        2.19666         39.0997         4.98622 
         2.2028         38.9367         4.95213 
        2.20893         38.7949         4.91834 
        2.21508         38.6034         4.88482 
        2.22122         38.3749         4.85161 
        2.22736         38.1917         4.81878 
        2.23349         38.0734         4.78625 
        2.23962         37.8235         4.75401 
        2.24577         37.6423         4.72204 
         2.2519         37.4686         4.69041 
        2.25802         37.4101         4.65911 
        2.26417         37.1708         4.62802 
        2.27031         37.0579         4.59717 
        2.27644         36.7647          4.5667 
        2.28257         36.6671         4.53651 
        2.28872         36.4527         4.50653 
        2.29486         36.3496         4.47683 
        2.30099         36.2065         4.44746 
        2.30712          36.009         4.41833 
        2.31326           35.88         4.38942 
         2.3194         35.6967         4.36078 
        2.32553         35.5165         4.33245 
        2.33166         35.3418         4.30438 
         2.3378         35.2133         4.27652 
        2.34394         34.9597         4.24889 
        2.35007         34.8402         4.22155 
        2.35619         34.7953         4.19448 
        2.36233         34.6249         4.16759 
        2.36848         34.3635         4.14088 
        2.37462         34.3185         4.11445 
        2.38075         34.0847         4.08828 
        2.38689         34.0086         4.06232 
        2.39303         33.8271         4.03659 
        2.39916         33.6329          4.0111 
        2.40529         33.4049         3.98584 
        2.41143         33.3439         3.96078 
        2.41757         33.2112         3.93592 
         2.4237         33.0467         3.91132 
        2.42983         32.9305         3.88693 
        2.43598         32.7215         3.86269 
        2.44211          32.612         3.83869 
        2.44823          32.451         3.81495 
        2.45437         32.3608         3.79134 
        2.46052         32.1597         3.76791 
        2.46665         32.0441         3.74473 
        2.47279         31.9201         3.72174 
        2.47892         31.7086         3.69893 
        2.48507         31.5856          3.6763 
         2.4912         31.4534         3.65389 
