# k  (h/Mpc)    Pcb(k)  (Mpc/h)^3    Pcb_linear(k)  (Mpc/h)^3
     0.00783031         1433.16         1447.54 
       0.013688         1803.87         1805.71 
       0.019231         1833.62         1833.36 
      0.0249154         1685.04         1695.49 
      0.0312784         1466.39         1467.99 
      0.0375637         1255.44         1252.07 
      0.0433917         1092.11         1094.32 
      0.0492413          982.73         981.632 
      0.0555754          893.76         898.927 
      0.0619321         841.056         837.199 
       0.067871         778.766         782.408 
      0.0738098         717.625         721.306 
      0.0800417         644.075         649.316 
      0.0862327         573.723         575.492 
      0.0921407          510.67         510.413 
      0.0982031         454.073         455.014 
       0.104506         415.422         412.115 
       0.110769         385.478         382.855 
       0.116806         363.295         363.297 
       0.122832         348.973         347.473 
       0.129052         329.758         330.677 
       0.135211          310.25         311.082 
       0.141259         289.997         288.826 
       0.147318          267.85         265.183 
       0.153489         243.957          242.15 
       0.159709         224.767          222.14 
       0.165845         211.263         206.597 
       0.171974          197.88         195.103 
       0.178125         189.652         186.582 
       0.184229         183.054         179.662 
        0.19034         174.009         172.882 
       0.196428         168.067         165.357 
       0.202534         160.964         156.776 
       0.208729         150.877          147.37 
       0.214876         140.947         138.047 
       0.220989         134.058          129.51 
       0.227147         125.458         122.141 
        0.23329         119.618         116.155 
       0.239377         115.424         111.388 
       0.245482         110.058         107.379 
       0.251667         107.568         103.647 
       0.257832         103.682         99.8799 
       0.263955         99.6774         95.9017 
       0.270079         95.5804          91.687 
        0.27624         92.2673         87.3722 
       0.282372          88.144         83.2215 
        0.28843         84.0091         79.4511 
       0.294538         80.5938         76.0913 
       0.300721         78.4023         73.1435 
        0.30691         75.0645         70.5689 
       0.313033         72.8292         68.2553 
       0.319153         69.6498         66.0472 
       0.325316         68.5022         63.8275 
        0.33145         65.9477         61.5872 
       0.337538         64.0041         59.3427 
       0.343633         61.5921         57.1293 
       0.349808         59.6684         54.9826 
       0.355968          57.778         52.9863 
       0.362074         55.8628         51.1765 
       0.368217         54.2312         49.5147 
       0.374374         52.5316         47.9823 
       0.380519         51.2389          46.542 
       0.386598         49.8859         45.1682 
       0.392688         48.7613         43.8189 
        0.39888         47.2922          42.462 
       0.405048         46.0938         41.1342 
       0.411186         44.9253           39.85 
       0.417313         43.4084           38.62 
       0.423458         42.2939         37.4533 
       0.429607         41.1194         36.3556 
       0.435692         39.8855         35.3331 
       0.441815         39.1502         34.3599 
       0.447964         38.4729         33.4262 
       0.454126         37.0205         32.5214 
       0.460267         36.3312         31.6443 
       0.466387         35.2507         30.7927 
        0.47254         34.6766         29.9585 
       0.478662         34.0205         29.1543 
       0.484765         33.0133          28.383 
       0.490885         32.2446         27.6424 
       0.497035         31.8247         26.9304 
       0.503198         30.9815          26.248 
       0.509342         30.2042          25.596 
       0.515458          29.562          24.971 
       0.521598         29.0393         24.3637 
       0.527764         28.3965         23.7712 
       0.533884         27.9111         23.2001 
           0.54          27.305         22.6467 
       0.546137         26.8343         22.1085 
       0.552299         26.3771         21.5857 
       0.558452         25.5662         21.0816 
       0.564573         25.2189         20.5981 
       0.570708         24.7776         20.1307 
       0.576825          24.155         19.6806 
       0.582926         23.7283         19.2459 
       0.589034         23.1015         18.8235 
       0.595184         22.7927         18.4105 
       0.601379         22.3431         18.0066 
       0.607522         21.9855         17.6178 
       0.613639         21.7353         17.2421 
       0.619772         21.1613         16.8765 
       0.625918         21.0302          16.521 
       0.632068         20.6812         16.1759 
       0.638161         20.2186         15.8443 
         0.6443         19.8146           15.52 
       0.650464         19.4516          15.204 
       0.656582         19.3183         14.8993 
       0.662703         18.9596         14.6029 
       0.668861         18.6122         14.3128 
       0.675024         18.2684         14.0302 
       0.681124         17.9588         13.7581 
       0.687237         17.6819         13.4926 
       0.693381         17.4913          13.233 
       0.699536         17.0255           12.98 
       0.705665         16.9087          12.735 
       0.711789         16.5934         12.4966 
       0.717957         16.3474         12.2629 
        0.72409         16.0894         12.0366 
       0.730186          15.877         11.8175 
       0.736317         15.7077         11.6026 
       0.742472         15.4529         11.3923 
       0.748622         15.2458         11.1875 
        0.75476         14.9503         10.9881 
       0.760888         14.7677          10.794 
       0.767043         14.5918         10.6039 
       0.773185         14.3115         10.4188 
       0.779291           14.22         10.2392 
       0.785407         14.0137         10.0637 
       0.791564         13.7835         9.89132 
       0.797719         13.5222          9.7231 
       0.803834         13.4652         9.55991 
       0.809972          13.339         9.39994 
       0.816124         13.0452         9.24332 
       0.822261         12.8862         9.09074 
       0.828378         12.7356          8.9421 
       0.834502         12.6286         8.79669 
       0.840667          12.424         8.65361 
       0.846816         12.2125         8.51415 
       0.852925         12.1042         8.37869 
       0.859047         11.9629         8.24592 
       0.865192         11.8605         8.11562 
       0.871341         11.7436         7.98809 
       0.877463          11.547         7.86391 
       0.883569         11.3798         7.74271 
       0.889708         11.2029         7.62348 
       0.895864         11.1226         7.50649 
       0.902008         11.0167         7.39222 
       0.908149         10.8979         7.28044 
       0.914301         10.7688         7.17081 
       0.920448         10.5979         7.06356 
       0.926574          10.485         6.95892 
       0.932687         10.3874         6.85664 
       0.938823         10.2489         6.75607 
       0.944975         10.1227         6.65731 
       0.951105         10.0334         6.56091 
       0.957225         9.97321          6.4666 
       0.963368         9.84861         6.37385 
       0.969511         9.74603         6.28294 
       0.975621          9.6326         6.19431 
       0.981748         9.52844         6.10718 
       0.987916         9.45299          6.0212 
        0.99406           9.305         5.93721 
        1.00019          9.1716         5.85502 
        1.00632         9.15662         5.77447 
        1.01246         9.05044         5.69533 
        1.01859         8.92054         5.61782 
        1.02471         8.85767         5.54186 
        1.03085         8.76834         5.46707 
        1.03698         8.64698         5.39382 
        1.04314          8.5941         5.32163 
        1.04929         8.48259         5.25093 
        1.05541         8.38954         5.18181 
        1.06154          8.3263         5.11379 
        1.06769         8.28778         5.04689 
        1.07382         8.15649         4.98142 
        1.07993         8.08499         4.91727 
        1.08607          8.0306         4.85399 
        1.09222         7.95255         4.79178 
        1.09836         7.86815         4.73074 
        1.10449         7.79578         4.67085 
        1.11063         7.72318         4.61194 
        1.11677         7.67571         4.55407 
         1.1229         7.61169         4.49731 
        1.12903          7.5224         4.44147 
        1.13518         7.44097         4.38655 
        1.14131         7.36878         4.33259 
        1.14745         7.29426         4.27958 
        1.15359         7.25416         4.22746 
        1.15973         7.18528         4.17619 
        1.16584          7.0929         4.12601 
        1.17197         7.04263         4.07659 
        1.17811         7.00849         4.02784 
        1.18424         6.94762         3.98003 
        1.19038         6.90937         3.93287 
        1.19652         6.83262          3.8865 
        1.20267         6.75895         3.84089 
        1.20881         6.73346         3.79602 
        1.21495         6.67162         3.75195 
        1.22108         6.59908         3.70859 
         1.2272         6.56388         3.66603 
        1.23334         6.48329         3.62404 
        1.23949         6.42961         3.58261 
        1.24562         6.40128         3.54196 
        1.25174         6.33597           3.502 
        1.25789         6.29436         3.46254 
        1.26402         6.25054         3.42377 
        1.27014         6.19632         3.38569 
        1.27628         6.13941         3.34808 
        1.28244         6.07298         3.31098 
        1.28858          6.0621         3.27449 
        1.29471         5.99322         3.23863 
        1.30084          5.9378         3.20336 
        1.30697         5.94024         3.16855 
        1.31312         5.83282         3.13422 
        1.31925         5.80635         3.10051 
        1.32537         5.76159         3.06733 
        1.33151         5.74053         3.03452 
        1.33765         5.66994         3.00222 
        1.34378         5.63279         2.97045 
        1.34992          5.6053         2.93912 
        1.35606         5.54313         2.90819 
         1.3622         5.52004         2.87775 
        1.36833         5.47604         2.84783 
        1.37445         5.43899         2.81835 
        1.38059         5.41956         2.78921 
        1.38675         5.37559         2.76041 
        1.39288         5.33525         2.73213 
        1.39901         5.27742         2.70427 
        1.40515         5.24924         2.67673 
         1.4113         5.21695          2.6496 
        1.41742         5.18205         2.62294 
        1.42355         5.13665         2.59661 
         1.4297          5.1012         2.57056 
        1.43585         5.08114         2.54488 
        1.44198         5.05746         2.51965 
        1.44809         5.00437         2.49482 
        1.45423         4.96702         2.47023 
        1.46036         4.92993         2.44602 
        1.46649         4.89753         2.42213 
        1.47263         4.86143         2.39854 
        1.47877         4.82662         2.37528 
        1.48491         4.79838         2.35229 
        1.49104         4.77213         2.32966 
        1.49718         4.74181         2.30731 
        1.50333         4.71494         2.28522 
        1.50947         4.67803         2.26347 
         1.5156         4.64895         2.24203 
        1.52172         4.62276         2.22088 
        1.52787         4.59602         2.19995 
          1.534         4.55762         2.17933 
        1.54013         4.53975         2.15899 
        1.54627         4.49654         2.13887 
        1.55241         4.46946         2.11901 
        1.55855         4.45307         2.09943 
        1.56467         4.42236         2.08016 
         1.5708          4.3942         2.06107 
        1.57695         4.35728          2.0422 
        1.58308         4.32815         2.02361 
        1.58922         4.31785         2.00524 
        1.59535         4.29038          1.9871 
         1.6015         4.25827         1.96917 
        1.60764         4.23188         1.95146 
        1.61376         4.21025         1.93403 
        1.61989          4.1856          1.9168 
        1.62604         4.15503         1.89973 
        1.63218         4.14614         1.88289 
        1.63831         4.11346          1.8663 
        1.64444         4.08994         1.84989 
        1.65059         4.05435         1.83365 
        1.65673         4.04581         1.81762 
        1.66285         4.00943         1.80183 
        1.66898         3.99217         1.78623 
        1.67512         3.96398         1.77078 
        1.68127         3.94343         1.75549 
         1.6874         3.93135         1.74043 
        1.69353         3.89049         1.72555 
        1.69967         3.87769         1.71081 
        1.70581         3.86035         1.69626 
        1.71193         3.83596         1.68192 
        1.71806         3.81951         1.66773 
        1.72421         3.79452         1.65367 
        1.73035         3.77912         1.63979 
        1.73649         3.75247         1.62607 
        1.74262         3.72879         1.61252 
        1.74876         3.71988         1.59912 
        1.75489         3.69552          1.5859 
        1.76101          3.6663         1.57283 
        1.76715         3.65543         1.55989 
        1.77329         3.63936         1.54708 
        1.77943         3.60294         1.53442 
        1.78557         3.59529         1.52191 
        1.79171         3.57614         1.50954 
        1.79785         3.55424         1.49731 
        1.80399         3.53556         1.48522 
        1.81012         3.52151         1.47328 
        1.81625         3.49969         1.46147 
        1.82239         3.48043         1.44978 
        1.82853         3.45935         1.43822 
        1.83466         3.45187         1.42681 
        1.84078         3.43164         1.41552 
        1.84692         3.41925         1.40434 
        1.85306         3.38968         1.39327 
         1.8592         3.37114         1.38234 
        1.86533         3.35751         1.37153 
        1.87147         3.34644         1.36083 
        1.87761          3.3245         1.35023 
        1.88375         3.30687         1.33977 
        1.88988         3.28911         1.32942 
        1.89601         3.27487         1.31918 
        1.90215         3.25735         1.30904 
        1.90829         3.23673         1.29901 
        1.91442         3.22832         1.28908 
        1.92056         3.20634         1.27927 
         1.9267         3.19437         1.26956 
        1.93284         3.18146         1.25993 
        1.93897         3.16554         1.25043 
        1.94509         3.14347         1.24105 
        1.95123         3.12824         1.23173 
        1.95737         3.11097         1.22251 
        1.96349         3.10267         1.21341 
        1.96964         3.09327         1.20437 
        1.97578         3.06847         1.19543 
        1.98192         3.05896         1.18659 
        1.98805         3.04584         1.17784 
        1.99419          3.0308         1.16918 
        2.00033         3.02216          1.1606 
        2.00647         3.00192         1.15211 
         2.0126         2.99248         1.14372 
        2.01874         2.96822         1.13541 
        2.02488         2.96243         1.12716 
        2.03101         2.93911         1.11902 
        2.03714         2.93029         1.11096 
        2.04328           2.918         1.10298 
        2.04941         2.89654         1.09508 
        2.05554         2.89117         1.08726 
        2.06167         2.87984         1.07951 
        2.06781          2.8672         1.07184 
        2.07396         2.85592         1.06423 
        2.08009         2.84078          1.0567 
        2.08622         2.82441         1.04926 
        2.09237         2.81615         1.04188 
        2.09851         2.80208         1.03456 
        2.10464          2.7938         1.02733 
        2.11077         2.77776         1.02018 
        2.11691         2.76586         1.01308 
        2.12305         2.75651         1.00605 
        2.12918         2.74775        0.999097 
        2.13531         2.73303        0.992214 
        2.14145         2.72023         0.98538 
         2.1476         2.70391        0.978603 
        2.15372         2.69376        0.971924 
        2.15985         2.68397        0.965301 
        2.16599         2.67354        0.958721 
        2.17213         2.65612         0.95221 
        2.17827          2.6494        0.945761 
         2.1844         2.63798        0.939378 
        2.19054         2.63017        0.933052 
        2.19666         2.61529        0.926793 
         2.2028         2.60317        0.920587 
        2.20893         2.59432        0.914435 
        2.21508         2.58168        0.908332 
        2.22122         2.56922        0.902284 
        2.22736         2.55914        0.896303 
        2.23349         2.55251        0.890379 
        2.23962         2.53771        0.884505 
        2.24577         2.53011        0.878679 
         2.2519         2.51861        0.872915 
        2.25802          2.5112        0.867211 
        2.26417         2.50185        0.861543 
        2.27031         2.48851         0.85592 
        2.27644         2.48036        0.850365 
        2.28257         2.46687        0.844859 
        2.28872         2.46077        0.839392 
        2.29486         2.44826        0.833975 
        2.30099         2.43764        0.828616 
        2.30712         2.42577        0.823303 
        2.31326          2.4199        0.818028 
         2.3194         2.40968        0.812802 
        2.32553         2.40038         0.80763 
        2.33166         2.39217        0.802506 
         2.3378         2.38193         0.79742 
        2.34394         2.37189        0.792377 
        2.35007         2.36181        0.787384 
        2.35619         2.35726        0.782441 
        2.36233         2.34567        0.777528 
        2.36848         2.33491        0.772648 
        2.37462         2.32855        0.767821 
        2.38075         2.31709        0.763039 
        2.38689         2.31154        0.758295 
        2.39303          2.3006        0.753591 
        2.39916          2.2919        0.748933 
        2.40529         2.28349        0.744315 
        2.41143         2.27316        0.739732 
        2.41757         2.26506        0.735187 
         2.4237         2.25937        0.730688 
        2.42983         2.24246        0.726227 
        2.43598         2.24454        0.721792 
        2.44211         2.23011        0.717402 
        2.44823          2.2255        0.713058 
        2.45437         2.21475        0.708738 
        2.46052         2.20874        0.704451 
        2.46665         2.20041        0.700207 
        2.47279         2.19038           0.696 
        2.47892         2.18403        0.691824 
        2.48507         2.17651        0.687679 
         2.4912         2.16265        0.683576 
