# k  (h/Mpc)    P(k)  (Mpc/h)^3    P_linear(k)  (Mpc/h)^3
     0.00783031         16960.4         17291.7 
       0.013688         21031.4         20883.5 
       0.019231         20743.1           20735 
      0.0249154         18360.5         18790.9 
      0.0312784         15704.4         15900.4 
      0.0375637         13242.1         13241.2 
      0.0433917         11127.2         11323.1 
      0.0492413         9913.15         9969.99 
      0.0555754         8735.63         9010.03 
      0.0619321         8375.13         8349.73 
       0.067871         7594.37         7813.12 
      0.0738098         7031.18         7230.23 
      0.0800417         6281.04         6526.37 
      0.0862327         5647.74         5772.03 
      0.0921407         5088.04         5076.15 
      0.0982031         4466.57         4458.62 
       0.104506         4126.59         3963.77 
       0.110769         3779.08         3622.62 
       0.116806         3548.71         3406.28 
       0.122832          3385.2         3255.23 
       0.129052         3158.15         3118.08 
       0.135211         3007.87         2963.07 
       0.141259         2879.66         2775.99 
       0.147318         2702.21         2559.48 
       0.153489         2459.78         2329.73 
       0.159709         2304.58         2114.08 
       0.165845         2194.18         1935.86 
       0.171974         2062.92         1799.79 
       0.178125         1958.17         1702.11 
       0.184229         1870.82          1632.8 
        0.19034         1773.96          1576.7 
       0.196428          1740.2         1520.76 
       0.202534         1676.37         1455.84 
       0.208729         1597.68         1378.46 
       0.214876         1528.14         1293.68 
       0.220989         1469.99         1208.36 
       0.227147         1404.38          1128.7 
        0.23329         1343.99         1060.69 
       0.239377         1318.39         1006.39 
       0.245482         1234.77         963.687 
       0.251667         1227.93         928.898 
       0.257832         1179.23         898.205 
       0.263955         1140.89         867.709 
       0.270079         1100.21         834.803 
        0.27624         1087.41         798.692 
       0.282372         1042.12         760.919 
        0.28843         1031.35         723.815 
       0.294538         978.583         688.695 
       0.300721         972.024         657.043 
        0.30691         933.272         629.787 
       0.313033          914.56         606.844 
       0.319153         895.829         586.775 
       0.325316         867.587         568.165 
        0.33145         847.054         550.007 
       0.337538         831.758         531.648 
       0.343633         812.004         512.702 
       0.349808         783.503         493.263 
       0.355968         777.869         474.183 
       0.362074          769.37          456.19 
       0.368217         745.268         439.499 
       0.374374         715.985         424.313 
       0.380519         716.108          410.65 
       0.386598         695.565         398.259 
       0.392688         693.186         386.583 
        0.39888         672.358          375.12 
       0.405048         662.909         363.825 
       0.411186         653.323         352.641 
       0.417313         639.643         341.593 
       0.423458         627.599         330.756 
       0.429607         619.589         320.344 
       0.435692         605.524          310.61 
       0.441815         599.808         301.413 
       0.447964         587.604         292.783 
       0.454126         580.575          284.66 
       0.460267          566.73         276.953 
       0.466387         560.053         269.544 
        0.47254         554.784         262.298 
       0.478662         550.025         255.242 
       0.484765         532.157         248.349 
       0.490885         528.493         241.625 
       0.497035         517.878         235.103 
       0.503198         513.879         228.835 
       0.509342         509.413          222.86 
       0.515458         505.244         217.193 
       0.521598         491.962         211.765 
       0.527764         484.265         206.532 
       0.533884         481.742         201.515 
           0.54         475.953         196.649 
       0.546137         472.893         191.904 
       0.552299         465.223         187.271 
       0.558452         462.114         182.774 
       0.564573         456.178         178.432 
       0.570708         449.917         174.225 
       0.576825         438.733         170.183 
       0.582926         438.919         166.302 
       0.589034         434.819         162.553 
       0.595184         431.306         158.905 
       0.601379         424.221         155.346 
       0.607522         418.477         151.923 
       0.613639         417.533         148.614 
       0.619772         409.148          145.39 
       0.625918         407.133          142.25 
       0.632068         400.823         139.196 
       0.638161         399.205         136.256 
         0.6443         392.781         133.382 
       0.650464         390.131         130.585 
       0.656582         386.513         127.896 
       0.662703         385.693         125.286 
       0.668861          379.25         122.737 
       0.675024         375.976         120.258 
       0.681124         372.834         117.872 
       0.687237         369.642         115.542 
       0.693381         364.291         113.263 
       0.699536         359.677         111.041 
       0.705665         358.079         108.888 
       0.711789         356.506         106.795 
       0.717957         353.409         104.744 
        0.72409         350.913         102.761 
       0.730186         346.182         100.842 
       0.736317         343.335         98.9622 
       0.742472         341.282          97.124 
       0.748622         337.992         95.3343 
        0.75476          333.75         93.5934 
       0.760888         330.406         91.8986 
       0.767043         330.701          90.239 
       0.773185         327.051         88.6241 
       0.779291         322.583         87.0582 
       0.785407         321.616         85.5283 
       0.791564         317.712         84.0261 
       0.797719         315.437         82.5612 
       0.803834         312.052          81.141 
       0.809972         311.551         79.7495 
       0.816124         310.595          78.388 
       0.822261         306.778         77.0622 
       0.828378         304.546         75.7712 
       0.834502         301.433         74.5089 
       0.840667         299.292         73.2672 
       0.846816         297.921         72.0575 
       0.852925         295.984         70.8828 
       0.859047         293.724          69.732 
       0.865192         290.126         68.6031 
       0.871341         287.954         67.4986 
       0.877463         287.468         66.4235 
       0.883569         285.356         65.3748 
       0.889708         282.463         64.3434 
       0.895864         281.076         63.3319 
       0.902008         278.658         62.3443 
       0.908149         276.367         61.3785 
       0.914301         273.787         60.4318 
       0.920448         272.354          59.506 
       0.926574         269.231          58.603 
       0.932687         269.284         57.7208 
       0.938823         266.364         56.8537 
       0.944975         265.684         56.0025 
       0.951105         263.514         55.1719 
       0.957225         261.838         54.3596 
       0.963368         258.366         53.5611 
       0.969511         257.545         52.7787 
       0.975621         255.521         52.0162 
       0.981748         254.669         51.2669 
       0.987916         253.123         50.5278 
        0.99406         249.739         49.8061 
        1.00019         248.964            49.1 
        1.00632         247.732         48.4084 
        1.01246         245.583         47.7291 
        1.01859         246.018          47.064 
        1.02471         241.818         46.4125 
        1.03085         240.768         45.7712 
        1.03698         239.651         45.1434 
        1.04314         237.352         44.5248 
        1.04929         235.824         43.9193 
        1.05541         236.265         43.3275 
        1.06154         232.502         42.7453 
        1.06769         232.137         42.1729 
        1.07382         230.309          41.613 
        1.07993         228.913         41.0645 
        1.08607         228.362         40.5237 
        1.09222         226.194         39.9921 
        1.09836         224.584         39.4707 
        1.10449         222.596         38.9592 
        1.11063         220.825         38.4563 
        1.11677         220.408         37.9625 
         1.1229         218.529         37.4783 
        1.12903         217.611         37.0021 
        1.13518         216.056         36.5338 
        1.14131         214.388         36.0739 
        1.14745         214.248         35.6223 
        1.15359         212.265         35.1783 
        1.15973         210.554         34.7417 
        1.16584         209.357         34.3145 
        1.17197         209.431         33.8939 
        1.17811          206.62         33.4791 
        1.18424         205.715         33.0725 
        1.19038         205.178         32.6714 
        1.19652         203.287         32.2772 
        1.20267         202.867         31.8896 
        1.20881         201.158         31.5084 
        1.21495         199.948         31.1341 
        1.22108         198.686         30.7659 
         1.2272         197.424         30.4046 
        1.23334         196.813         30.0483 
        1.23949         194.889         29.6969 
        1.24562         194.187         29.3521 
        1.25174         193.154         29.0133 
        1.25789          191.83         28.6789 
        1.26402         189.924         28.3504 
        1.27014          188.92         28.0278 
        1.27628         188.061         27.7093 
        1.28244         187.994         27.3951 
        1.28858         185.871         27.0863 
        1.29471         184.741          26.783 
        1.30084         183.854         26.4845 
        1.30697         182.399         26.1902 
        1.31312          181.07            25.9 
        1.31925         180.214         25.6151 
        1.32537         179.851         25.3347 
        1.33151         178.086         25.0576 
        1.33765         176.933         24.7848 
        1.34378         176.367         24.5166 
        1.34992         175.424         24.2521 
        1.35606         175.307          23.991 
         1.3622         173.356         23.7343 
        1.36833         171.982         23.4819 
        1.37445         171.455         23.2333 
        1.38059         169.959         22.9876 
        1.38675         169.461         22.7448 
        1.39288         168.512         22.5066 
        1.39901         167.977         22.2718 
        1.40515         166.244         22.0399 
         1.4113         165.656         21.8114 
        1.41742         164.365          21.587 
        1.42355         163.663         21.3654 
         1.4297         162.363         21.1462 
        1.43585         161.748         20.9302 
        1.44198         160.994          20.718 
        1.44809         160.139         20.5092 
        1.45423         159.397         20.3025 
        1.46036         158.123          20.099 
        1.46649         157.151         19.8983 
        1.47263         156.287         19.7001 
        1.47877         155.159         19.5047 
        1.48491         153.863         19.3117 
        1.49104         153.776         19.1217 
        1.49718         152.339         18.9342 
        1.50333         151.631         18.7488 
        1.50947         150.805         18.5664 
         1.5156          149.97         18.3866 
        1.52172         149.298         18.2092 
        1.52787         147.958         18.0338 
          1.534           147.6         17.8609 
        1.54013         146.689         17.6905 
        1.54627         145.796          17.522 
        1.55241         144.792         17.3557 
        1.55855         144.018         17.1918 
        1.56467         142.983         17.0304 
         1.5708         142.175         16.8707 
        1.57695         141.828         16.7128 
        1.58308         140.995         16.5572 
        1.58922         140.299         16.4036 
        1.59535          139.25         16.2519 
         1.6015         138.762          16.102 
        1.60764         137.976          15.954 
        1.61376         137.072         15.8083 
        1.61989         136.306         15.6643 
        1.62604         135.238         15.5218 
        1.63218         135.038         15.3812 
        1.63831         133.989         15.2426 
        1.64444         133.305         15.1057 
        1.65059         132.554         14.9701 
        1.65673         131.629         14.8364 
        1.66285         131.164         14.7046 
        1.66898         130.219         14.5744 
        1.67512         129.871         14.4456 
        1.68127         128.856         14.3181 
         1.6874         128.005         14.1926 
        1.69353         127.608         14.0685 
        1.69967         126.747         13.9457 
        1.70581         126.035         13.8244 
        1.71193         125.394          13.705 
        1.71806         124.817         13.5868 
        1.72421         124.124         13.4697 
        1.73035         123.795         13.3542 
        1.73649         122.903           13.24 
        1.74262         122.065         13.1273 
        1.74876         121.542         13.0158 
        1.75489         120.755         12.9058 
        1.76101         119.901         12.7971 
        1.76715         119.542         12.6895 
        1.77329         119.027         12.5831 
        1.77943         118.256         12.4778 
        1.78557         117.815         12.3739 
        1.79171         116.879         12.2711 
        1.79785         116.284         12.1695 
        1.80399         115.597         12.0691 
        1.81012         115.119         11.9699 
        1.81625         114.608         11.8719 
        1.82239          114.05         11.7749 
        1.82853         113.232         11.6789 
        1.83466         112.615         11.5842 
        1.84078         112.118         11.4906 
        1.84692          111.19         11.3979 
        1.85306         111.033         11.3061 
         1.8592          110.23         11.2154 
        1.86533         109.497         11.1258 
        1.87147         108.921         11.0371 
        1.87761         108.208         10.9493 
        1.88375         107.693         10.8626 
        1.88988         107.128         10.7769 
        1.89601         106.519          10.692 
        1.90215         105.936          10.608 
        1.90829         105.467          10.525 
        1.91442         104.981         10.4429 
        1.92056         104.177         10.3617 
         1.9267         103.928         10.2812 
        1.93284         103.275         10.2016 
        1.93897         102.624          10.123 
        1.94509         102.265         10.0454 
        1.95123         101.647         9.96837 
        1.95737           101.1         9.89212 
        1.96349          100.57         9.81686 
        1.96964         99.7295         9.74217 
        1.97578         99.2473         9.66822 
        1.98192         99.0091          9.5952 
        1.98805         98.3627         9.52292 
        1.99419          97.989         9.45138 
        2.00033         97.2593         9.38054 
        2.00647         96.9788         9.31045 
         2.0126         96.2022         9.24119 
        2.01874         95.6544         9.17253 
        2.02488         95.3796         9.10451 
        2.03101         94.6408         9.03731 
        2.03714         94.1095         8.97085 
        2.04328         93.7081         8.90498 
        2.04941          93.251         8.83982 
        2.05554         92.6483         8.77537 
        2.06167         92.3555         8.71147 
        2.06781         91.6448          8.6482 
        2.07396         91.3848         8.58547 
        2.08009         90.8889         8.52347 
        2.08622         90.2315         8.46215 
        2.09237         89.9236         8.40131 
        2.09851           89.46         8.34107 
        2.10464         88.9812         8.28151 
        2.11077         88.4259         8.22261 
        2.11691         88.1423         8.16415 
        2.12305         87.5487         8.10626 
        2.12918          87.009         8.04907 
        2.13531         86.6338         7.99243 
        2.14145          86.006          7.9362 
         2.1476         85.5892         7.88045 
        2.15372         85.2883         7.82551 
        2.15985          84.843         7.77104 
        2.16599         84.2245         7.71694 
        2.17213         83.9349         7.66341 
        2.17827         83.4386          7.6104 
         2.1844         82.9311         7.55794 
        2.19054         82.6695         7.50595 
        2.19666         82.2394         7.45453 
         2.2028         81.7723         7.40355 
        2.20893          81.391         7.35301 
        2.21508          80.894         7.30289 
        2.22122         80.5101         7.25323 
        2.22736          80.062         7.20412 
        2.23349         79.6891         7.15549 
        2.23962          79.346         7.10728 
        2.24577         78.9588         7.05947 
         2.2519         78.6143         7.01216 
        2.25802         78.0808         6.96537 
        2.26417         77.7311         6.91887 
        2.27031         77.2913         6.87276 
        2.27644          76.785          6.8272 
        2.28257         76.4055         6.78205 
        2.28872         76.2392         6.73723 
        2.29486         75.6454         6.69282 
        2.30099         75.0799         6.64891 
        2.30712         74.9261         6.60537 
        2.31326         74.5177         6.56214 
         2.3194         74.1235         6.51933 
        2.32553         73.8314         6.47697 
        2.33166         73.4564         6.43501 
         2.3378          72.913         6.39336 
        2.34394         72.5835         6.35207 
        2.35007         72.2927          6.3112 
        2.35619         71.9288         6.27074 
        2.36233         71.4986         6.23053 
        2.36848          71.141          6.1906 
        2.37462         70.7181          6.1511 
        2.38075         70.4601         6.11198 
        2.38689         70.0431         6.07318 
        2.39303          69.627         6.03471 
        2.39916         69.3628         5.99662 
        2.40529         69.1596         5.95886 
        2.41143         68.5441          5.9214 
        2.41757         68.3585         5.88424 
         2.4237         68.0216         5.84747 
        2.42983         67.6216         5.81102 
        2.43598         67.2421         5.77478 
        2.44211         67.0446         5.73891 
        2.44823         66.6639         5.70343 
        2.45437         66.1961         5.66815 
        2.46052         65.9508         5.63314 
        2.46665         65.6843         5.59848 
        2.47279         65.2521         5.56413 
        2.47892         64.9685         5.53005 
        2.48507         64.5671         5.49622 
         2.4912         64.2831         5.46273 
