#  k  (h/Mpc)          P(k)  (Mpc/h)^3     P_linear(k) (Mpc/h)^3
     0.00783031         2961.84         2995.95 
       0.013688         3312.83         3308.18 
       0.019231         3067.18         3061.45 
      0.0249154          2589.7         2605.47 
      0.0312784         2084.91         2083.49 
      0.0375637         1682.73         1673.68 
      0.0433917         1410.49         1411.14 
      0.0492413         1244.03         1241.01 
      0.0555754         1115.34         1122.16 
      0.0619321         1036.45         1029.34 
       0.067871         936.365         940.155 
      0.0738098         836.468         839.632 
      0.0800417         723.358         727.616 
      0.0862327         623.632         622.955 
      0.0921407         543.964         540.146 
      0.0982031         478.707          477.33 
       0.104506         440.876          434.04 
       0.110769         411.624           406.6 
       0.116806          388.91         386.856 
       0.122832         370.535         366.914 
       0.129052         342.709         342.049 
       0.135211         314.315         312.916 
       0.141259          286.84         282.593 
       0.147318         259.921         254.089 
       0.153489          234.66         229.834 
       0.159709         216.957         211.434 
       0.165845         205.634         198.639 
       0.171974         194.146         189.448 
       0.178125         186.694         181.707 
       0.184229         178.823         173.732 
        0.19034         167.163         164.528 
       0.196428         158.874         154.171 
       0.202534         149.854         143.326 
       0.208729         138.677         132.855 
       0.214876         129.018         123.795 
       0.220989         122.764         116.448 
       0.227147         115.834         110.611 
        0.23329         110.966         105.904 
       0.239377         107.342         101.782 
       0.245482         101.546         97.7087 
       0.251667         98.5798         93.3583 
       0.257832         94.0557         88.7681 
       0.263955         89.4866         84.1312 
       0.270079         85.0178         79.6587 
        0.27624         81.8683         75.5516 
       0.282372         78.3644         71.9674 
        0.28843          74.767         68.9105 
       0.294538         71.7051         66.2177 
       0.300721         69.8887         63.7369 
        0.30691         66.7657         61.3615 
       0.313033         64.4477         59.0229 
       0.319153         61.2779         56.6759 
       0.325316         59.9395         54.3264 
        0.33145         57.3211         52.0649 
       0.337538         55.5435         49.9499 
       0.343633         53.2853         47.9995 
       0.349808          51.602         46.1989 
       0.355968         50.0615         44.5556 
       0.362074         48.3681         43.0417 
       0.368217         46.7911          41.592 
       0.374374         45.2605         40.1858 
       0.380519         44.0383          38.813 
       0.386598         42.7127         37.4868 
       0.392688         41.6594         36.2022 
        0.39888         40.2589         34.9525 
       0.405048         39.1306         33.7762 
       0.411186         38.0723         32.6768 
       0.417313         36.8269          31.644 
       0.423458         35.8036         30.6653 
       0.429607         34.8038         29.7319 
       0.435692         33.6463          28.843 
       0.441815         32.9845         27.9778 
       0.447964         32.3262         27.1373 
       0.454126         30.9708          26.323 
       0.460267         30.4133         25.5422 
       0.466387         29.4753         24.7972 
        0.47254         28.9126         24.0821 
       0.478662         28.3912         23.4025 
       0.484765         27.4455         22.7548 
       0.490885         26.8052         22.1322 
       0.497035         26.4301         21.5303 
       0.503198         25.6522         20.9481 
       0.509342          24.972         20.3871 
       0.515458         24.4018         19.8477 
       0.521598         23.9381          19.325 
       0.527764         23.3762         18.8189 
       0.533884         22.9732          18.335 
           0.54         22.3942         17.8696 
       0.546137         22.0247           17.42 
       0.552299         21.6235         16.9851 
       0.558452         20.9416         16.5659 
       0.564573         20.5921         16.1627 
       0.570708         20.2128         15.7716 
       0.576825         19.7143         15.3943 
       0.582926         19.2886         15.0303 
       0.589034         18.7863         14.6775 
       0.595184         18.5268         14.3338 
       0.601379         18.1169         13.9989 
       0.607522         17.7758         13.6776 
       0.613639         17.5649         13.3679 
       0.619772         17.0931         13.0673 
       0.625918         16.9654         12.7755 
       0.632068         16.6854         12.4925 
       0.638161         16.2891         12.2205 
         0.6443         15.9531         11.9545 
       0.650464         15.6387         11.6955 
       0.656582         15.5233          11.446 
       0.662703         15.2083         11.2037 
       0.668861         14.9017         10.9671 
       0.675024         14.6189         10.7372 
       0.681124         14.3602         10.5164 
       0.687237         14.1053         10.3013 
       0.693381         13.9519         10.0914 
       0.699536         13.5726         9.88687 
       0.705665         13.4931         9.68893 
       0.711789         13.1881         9.49658 
       0.717957         12.9778         9.30815 
        0.72409         12.7773         9.12589 
       0.730186         12.5895         8.94962 
       0.736317         12.4362         8.77709 
       0.742472          12.214         8.60849 
       0.748622         12.0646         8.44451 
        0.75476         11.8325         8.28518 
       0.760888         11.6391         8.13022 
       0.767043          11.484         7.97863 
       0.773185         11.2712         7.83124 
       0.779291         11.1905         7.68841 
       0.785407         11.0477         7.54895 
       0.791564         10.8487         7.41208 
       0.797719         10.5901         7.27868 
       0.803834         10.5652         7.14942 
       0.809972         10.4515         7.02284 
       0.816124          10.217         6.89906 
       0.822261         10.0741          6.7786 
       0.828378         9.96594         6.66139 
       0.834502          9.8716         6.54686 
       0.840667         9.70223         6.43428 
       0.846816         9.51761         6.32468 
       0.852925         9.42294         6.21832 
       0.859047          9.3063         6.11419 
       0.865192         9.21603         6.01211 
       0.871341         9.11753         5.91229 
       0.877463         8.96127          5.8152 
       0.883569         8.83164         5.72053 
       0.889708         8.67917         5.62749 
       0.895864         8.58672         5.53628 
       0.902008         8.52225         5.44728 
       0.908149         8.42389          5.3603 
       0.914301         8.34249         5.27508 
       0.920448         8.19353         5.19179 
       0.926574         8.09883          5.1106 
       0.932687         7.99739         5.03131 
       0.938823         7.89483         4.95343 
       0.944975         7.79551         4.87702 
       0.951105         7.71049          4.8025 
       0.957225         7.65209         4.72966 
       0.963368         7.56954          4.6581 
       0.969511         7.48022         4.58801 
       0.975621         7.39699         4.51975 
       0.981748         7.29352          4.4527 
       0.987916         7.24238         4.38659 
        0.99406         7.12662         4.32208 
        1.00019         7.02038           4.259 
        1.00632         6.99306         4.19723 
        1.01246         6.91271          4.1366 
        1.01859         6.79674         4.07726 
        1.02471          6.7598         4.01917 
        1.03085         6.67977           3.962 
        1.03698          6.5773         3.90608 
        1.04314         6.53223         3.85099 
        1.04929           6.451          3.7971 
        1.05541         6.37047         3.74445 
        1.06154           6.324         3.69268 
        1.06769         6.29074          3.6418 
        1.07382          6.1926         3.59205 
        1.07993         6.12576         3.54335 
        1.08607         6.07826         3.49534 
        1.09222         6.01985         3.44817 
        1.09836         5.94303         3.40193 
        1.10449         5.89521         3.35659 
        1.11063         5.82056         3.31202 
        1.11677         5.78932         3.26828 
         1.1229         5.74506         3.22541 
        1.12903         5.66447         3.18326 
        1.13518          5.5939         3.14184 
        1.14131         5.55611         3.10117 
        1.14745         5.49542         3.06125 
        1.15359         5.45761         3.02202 
        1.15973         5.39435         2.98346 
        1.16584         5.32356         2.94575 
        1.17197         5.28328         2.90863 
        1.17811         5.25677         2.87204 
        1.18424         5.19975         2.83619 
        1.19038         5.17415         2.80084 
        1.19652         5.10862         2.76611 
        1.20267         5.05828         2.73197 
        1.20881         5.03749         2.69841 
        1.21495         4.98748         2.66547 
        1.22108         4.92461         2.63309 
         1.2272         4.88757         2.60132 
        1.23334         4.83595            2.57 
        1.23949          4.7883         2.53912 
        1.24562         4.76218         2.50883 
        1.25174          4.7213         2.47909 
        1.25789         4.68048         2.44973 
        1.26402         4.65419         2.42091 
        1.27014         4.60797         2.39262 
        1.27628         4.55539         2.36469 
        1.28244         4.50741         2.33716 
        1.28858         4.50324          2.3101 
        1.29471         4.44403         2.28353 
        1.30084         4.39858         2.25741 
        1.30697         4.39168         2.23165 
        1.31312         4.32023         2.20625 
        1.31925         4.28479         2.18133 
        1.32537         4.25695         2.15682 
        1.33151         4.23975          2.1326 
        1.33765         4.18951         2.10876 
        1.34378          4.1611         2.08533 
        1.34992         4.12901         2.06224 
        1.35606         4.08955         2.03945 
         1.3622         4.06867         2.01704 
        1.36833         4.02383         1.99503 
        1.37445         3.99701         1.97335 
        1.38059          3.9829         1.95193 
        1.38675         3.94495         1.93077 
        1.39288         3.92543         1.91001 
        1.39901         3.87281         1.88957 
        1.40515         3.85312         1.86938 
         1.4113          3.8227         1.84949 
        1.41742         3.79277         1.82996 
        1.42355         3.75721         1.81068 
         1.4297         3.74011         1.79162 
        1.43585         3.71721         1.77285 
        1.44198         3.69626         1.75441 
        1.44809         3.66025         1.73627 
        1.45423         3.63136         1.71831 
        1.46036          3.5983         1.70065 
        1.46649          3.5819         1.68322 
        1.47263         3.54617         1.66603 
        1.47877         3.52209         1.64908 
        1.48491         3.50111         1.63235 
        1.49104         3.47683         1.61587 
        1.49718         3.45219         1.59962 
        1.50333         3.43217         1.58356 
        1.50947         3.39801         1.56775 
         1.5156         3.38059         1.55219 
        1.52172         3.36087         1.53683 
        1.52787         3.33592         1.52165 
          1.534         3.30705          1.5067 
        1.54013         3.28988         1.49195 
        1.54627         3.26185         1.47738 
        1.55241         3.23824           1.463 
        1.55855         3.22342         1.44884 
        1.56467         3.19966         1.43489 
         1.5708         3.18199          1.4211 
        1.57695         3.15563         1.40746 
        1.58308          3.1259         1.39403 
        1.58922         3.12091         1.38077 
        1.59535         3.10185         1.36768 
         1.6015         3.06996         1.35475 
        1.60764         3.04952         1.34199 
        1.61376         3.03607         1.32942 
        1.61989         3.01376         1.31701 
        1.62604         2.99556         1.30473 
        1.63218         2.98641         1.29261 
        1.63831         2.95598         1.28068 
        1.64444         2.94368         1.26889 
        1.65059         2.91051         1.25722 
        1.65673           2.911          1.2457 
        1.66285         2.88053         1.23437 
        1.66898         2.86351         1.22317 
        1.67512         2.84805         1.21209 
        1.68127          2.8285         1.20113 
         1.6874         2.81608         1.19034 
        1.69353          2.7888         1.17968 
        1.69967         2.78197         1.16913 
        1.70581         2.76571         1.15871 
        1.71193         2.74267         1.14846 
        1.71806         2.72984         1.13831 
        1.72421         2.71309         1.12826 
        1.73035         2.69936         1.11834 
        1.73649         2.68149         1.10855 
        1.74262         2.66279         1.09888 
        1.74876         2.65233         1.08932 
        1.75489         2.63551         1.07989 
        1.76101         2.61492         1.07058 
        1.76715         2.60681         1.06136 
        1.77329          2.5897         1.05224 
        1.77943         2.56698         1.04322 
        1.78557         2.55644         1.03432 
        1.79171         2.54458         1.02553 
        1.79785         2.52833         1.01683 
        1.80399         2.51407         1.00823 
        1.81012         2.49645        0.999751 
        1.81625         2.48763        0.991368 
        1.82239         2.47338        0.983068 
        1.82853         2.45353        0.974868 
        1.83466         2.44298        0.966768 
        1.84078         2.43502        0.958769 
        1.84692          2.4232        0.950848 
        1.85306         2.40323        0.943005 
         1.8592         2.38721        0.935264 
        1.86533         2.37508        0.927613 
        1.87147         2.36429        0.920039 
        1.87761          2.3499        0.912546 
        1.88375         2.33587        0.905145 
        1.88988         2.32699        0.897834 
        1.89601         2.31039        0.890599 
        1.90215         2.29698        0.883438 
        1.90829         2.28395        0.876359 
        1.91442           2.274        0.869356 
        1.92056         2.26307        0.862436 
         1.9267         2.24744        0.855584 
        1.93284         2.23868        0.848802 
        1.93897         2.22606        0.842107 
        1.94509          2.2181        0.835497 
        1.95123         2.20351        0.828942 
        1.95737          2.1864        0.822452 
        1.96349         2.18226        0.816048 
        1.96964         2.17267        0.809694 
        1.97578         2.15349        0.803404 
        1.98192         2.14834        0.797193 
        1.98805         2.13572        0.791048 
        1.99419          2.1237        0.784966 
        2.00033         2.11657        0.778945 
        2.00647         2.10385        0.772989 
         2.0126         2.09747        0.767105 
        2.01874         2.08005        0.761274 
        2.02488          2.0717        0.755497 
        2.03101         2.05932        0.749791 
        2.03714         2.04804        0.744149 
        2.04328         2.03798        0.738558 
        2.04941         2.02567        0.733029 
        2.05554         2.01885        0.727561 
        2.06167          2.0085         0.72214 
        2.06781          2.0017        0.716774 
        2.07396         1.99283        0.711455 
        2.08009         1.98182        0.706198 
        2.08622         1.97143           0.701 
        2.09237           1.956        0.695845 
        2.09851         1.95487         0.69074 
        2.10464         1.94592        0.685694 
        2.11077         1.93062        0.680705 
        2.11691         1.92218        0.675755 
        2.12305         1.91603        0.670853 
        2.12918         1.90857        0.666011 
        2.13531         1.89868        0.661217 
        2.14145         1.88948        0.656459 
         2.1476         1.87783        0.651741 
        2.15372         1.86782        0.647094 
        2.15985         1.86628        0.642487 
        2.16599         1.85022        0.637912 
        2.17213         1.84112        0.633386 
        2.17827         1.83739        0.628905 
         2.1844         1.82868        0.624471 
        2.19054         1.81778        0.620078 
        2.19666         1.80891        0.615734 
         2.2028         1.80048        0.611427 
        2.20893         1.79247        0.607159 
        2.21508         1.78498        0.602926 
        2.22122         1.77534        0.598733 
        2.22736         1.76846        0.594588 
        2.23349          1.7612        0.590483 
        2.23962         1.75151        0.586415 
        2.24577         1.74672        0.582381 
         2.2519         1.74128         0.57839 
        2.25802         1.73152        0.574444 
        2.26417         1.72547        0.570523 
        2.27031         1.71518        0.566634 
        2.27644         1.70619        0.562794 
        2.28257         1.69413        0.558989 
        2.28872         1.69549        0.555212 
        2.29486         1.68383         0.55147 
        2.30099         1.67486         0.54777 
        2.30712         1.66826        0.544103 
        2.31326         1.65977        0.540463 
         2.3194         1.65477        0.536858 
        2.32553          1.6507        0.533292 
        2.33166         1.64204         0.52976 
         2.3378          1.6339        0.526255 
        2.34394         1.62617         0.52278 
        2.35007         1.61928        0.519341 
        2.35619         1.61313        0.515938 
        2.36233         1.60573        0.512557 
        2.36848         1.59824        0.509198 
        2.37462         1.59495        0.505877 
        2.38075         1.58474        0.502589 
        2.38689         1.58208        0.499327 
        2.39303         1.57234        0.496094 
        2.39916         1.56656        0.492894 
        2.40529         1.55996        0.489721 
        2.41143         1.55253        0.486574 
        2.41757         1.54828        0.483454 
         2.4237         1.54268        0.480366 
        2.42983         1.53285        0.477305 
        2.43598           1.527        0.474263 
        2.44211         1.51989        0.471253 
        2.44823         1.51536        0.468275 
        2.45437         1.50841        0.465315 
        2.46052         1.50472        0.462377 
        2.46665         1.49744         0.45947 
        2.47279         1.48952        0.456589 
        2.47892         1.48421        0.453731 
        2.48507         1.48005        0.450894 
         2.4912         1.46942        0.448087 
