# k  (h/Mpc)    P(k)  (Mpc/h)^3    P_linear(k)  (Mpc/h)^3
     0.00783031         14368.2           14445 
       0.013688         17604.8         18078.4 
       0.019231         18139.6         18430.3 
      0.0249154         17141.3         17130.2 
      0.0312784         14751.1         14928.9 
      0.0375637         12565.8         12820.8 
      0.0433917         11173.4         11270.8 
      0.0492413         9978.72         10153.6 
      0.0555754          9216.2         9319.23 
      0.0619321         8315.77         8679.29 
       0.067871         7872.58         8101.79 
      0.0738098         7316.73         7460.17 
      0.0800417         6611.42         6714.26 
      0.0862327         5861.35         5960.34 
      0.0921407          5265.3         5303.62 
      0.0982031         4798.15         4749.31 
       0.104506         4310.73         4321.43 
       0.110769         4037.05         4026.97 
       0.116806         3890.69         3824.12 
       0.122832         3672.18         3652.76 
       0.129052          3474.2         3467.03 
       0.135211         3344.22         3252.81 
       0.141259          3074.2         3015.35 
       0.147318         2824.61         2769.16 
       0.153489         2644.54         2534.31 
       0.159709         2528.81         2333.57 
       0.165845         2317.89         2178.92 
       0.171974         2265.71         2063.88 
       0.178125         2198.23          1976.1 
       0.184229         2036.24         1901.39 
        0.19034         2005.12         1825.75 
       0.196428         1942.84         1741.82 
       0.202534          1818.7         1648.12 
       0.208729         1777.09         1548.13 
       0.214876         1692.99         1451.52 
       0.220989         1603.94         1364.81 
       0.227147         1561.14         1290.85 
        0.23329         1501.56         1230.78 
       0.239377         1492.61         1182.13 
       0.245482          1423.1         1139.85 
       0.251667         1371.49         1099.15 
       0.257832         1350.59         1057.48 
       0.263955         1287.62         1013.71 
       0.270079         1251.48         968.185 
        0.27624         1199.18           922.6 
       0.282372         1183.13         879.585 
        0.28843         1163.79         841.084 
       0.294538         1109.89         806.912 
       0.300721         1087.93         776.773 
        0.30691         1063.07         749.952 
       0.313033         1021.79         725.327 
       0.319153          1010.5         701.379 
       0.325316         997.226         677.201 
        0.33145         975.243         652.902 
       0.337538         942.611         628.898 
       0.343633         920.255         605.541 
       0.349808         902.294         583.193 
       0.355968         885.058         562.549 
       0.362074         857.003         543.849 
       0.368217         854.487         526.565 
       0.374374         841.735         510.421 
       0.380519         811.318         495.081 
       0.386598         806.222         480.306 
       0.392688          786.84          465.77 
        0.39888         769.188         451.221 
       0.405048         754.693         437.071 
       0.411186         753.071         423.512 
       0.417313         748.227          410.62 
       0.423458         725.395         398.408 
       0.429607         705.682         386.924 
       0.435692         699.257         376.181 
       0.441815         686.212         365.876 
       0.447964         676.866         355.931 
       0.454126         668.592         346.273 
       0.460267         659.268         336.889 
       0.466387         648.034         327.794 
        0.47254         638.019         318.933 
       0.478662         628.456         310.426 
       0.484765         621.543          302.28 
       0.490885          615.35         294.468 
       0.497035         603.357         286.963 
       0.503198         602.775         279.752 
       0.509342          591.17          272.83 
       0.515458         579.644         266.177 
       0.521598         576.583         259.707 
       0.527764         564.204         253.399 
       0.533884          559.61         247.318 
           0.54         554.589          241.43 
       0.546137         545.619         235.716 
       0.552299         543.307         230.179 
       0.558452         535.895         224.845 
       0.564573         531.805         219.721 
       0.570708         526.139         214.758 
       0.576825         515.666         209.972 
       0.582926         514.247         205.348 
       0.589034         506.428         200.856 
       0.595184         502.149         196.462 
       0.601379         494.406         192.163 
       0.607522         486.176         188.025 
       0.613639         485.382         184.027 
       0.619772         482.908         180.142 
       0.625918         473.922         176.367 
       0.632068         471.676         172.704 
       0.638161         466.669         169.181 
         0.6443         461.099         165.732 
       0.650464         456.994         162.368 
       0.656582          453.31         159.122 
       0.662703         449.111         155.964 
       0.668861         443.036         152.875 
       0.675024         440.717         149.868 
       0.681124           433.2         146.973 
       0.687237         432.533          144.15 
       0.693381         425.935         141.389 
       0.699536         425.407         138.697 
       0.705665         419.703         136.087 
       0.711789         418.438         133.549 
       0.717957         412.784         131.059 
        0.72409         408.693         128.648 
       0.730186         409.676         126.313 
       0.736317         402.835         124.024 
       0.742472         399.085         121.784 
       0.748622         396.824         119.602 
        0.75476         393.378         117.479 
       0.760888         390.487         115.412 
       0.767043         387.543         113.386 
       0.773185          384.87         111.414 
       0.779291         380.415         109.501 
       0.785407         378.002         107.631 
       0.791564          375.59         105.793 
       0.797719         369.753         103.999 
       0.803834         371.706         102.259 
       0.809972          365.68         100.553 
       0.816124         362.538         98.8833 
       0.822261         360.188         97.2562 
       0.828378         358.507         95.6711 
       0.834502         353.058         94.1204 
       0.840667         353.163         92.5945 
       0.846816         347.607         91.1072 
       0.852925         348.284         89.6624 
       0.859047          344.87         88.2462 
       0.865192         343.103         86.8565 
       0.871341         338.632         85.4961 
       0.877463         337.114         84.1713 
       0.883569         334.489         82.8784 
       0.889708         331.413         81.6063 
       0.895864          328.07          80.358 
       0.902008         326.988         79.1387 
       0.908149         323.998         77.9458 
       0.914301         322.664         76.7758 
       0.920448         319.905         75.6312 
       0.926574         317.776         74.5143 
       0.932687         316.829         73.4226 
       0.938823         313.036         72.3491 
       0.944975         312.436         71.2949 
       0.951105         309.492         70.2657 
       0.957225          305.82         69.2588 
       0.963368         306.491         68.2685 
       0.969511         300.988         67.2978 
       0.975621         299.894         66.3514 
       0.981748         298.879          65.421 
       0.987916         297.105         64.5028 
        0.99406         294.257         63.6059 
        1.00019         291.707          62.728 
        1.00632         291.325         61.8676 
        1.01246         288.833         61.0223 
        1.01859         285.733         60.1943 
        1.02471         284.066         59.3829 
        1.03085         282.979         58.5838 
        1.03698         281.567         57.8012 
        1.04314         280.336         57.0298 
        1.04929         278.515         56.2744 
        1.05541          275.73         55.5359 
        1.06154         273.987          54.809 
        1.06769         271.676         54.0941 
        1.07382         270.392         53.3945 
        1.07993         268.546         52.7089 
        1.08607         267.058         52.0326 
        1.09222         264.924         51.3677 
        1.09836         264.088         50.7152 
        1.10449         262.184          50.075 
        1.11063         260.318         49.4453 
        1.11677          257.85         48.8267 
         1.1229         257.548         48.2198 
        1.12903         255.122         47.6229 
        1.13518         253.446         47.0357 
        1.14131         252.621         46.4588 
        1.14745         249.849          45.892 
        1.15359         248.178         45.3347 
        1.15973         247.235         44.7865 
        1.16584         245.808         44.2499 
        1.17197         244.391         43.7214 
        1.17811         242.185            43.2 
        1.18424         240.916         42.6888 
        1.19038         239.892         42.1844 
        1.19652         237.111         41.6885 
        1.20267         236.635         41.2006 
        1.20881         234.859         40.7207 
        1.21495         234.263         40.2492 
        1.22108         232.449         39.7854 
         1.2272          229.94         39.3301 
        1.23334         229.258         38.8809 
        1.23949         228.048         38.4377 
        1.24562          226.53         38.0027 
        1.25174          225.34         37.5752 
        1.25789         223.262          37.153 
        1.26402          223.03         36.7381 
        1.27014         221.915         36.3306 
        1.27628         219.872         35.9281 
        1.28244         218.411          35.531 
        1.28858          217.35         35.1405 
        1.29471          216.09         34.7567 
        1.30084         215.204         34.3792 
        1.30697         213.046         34.0067 
        1.31312         212.016         33.6392 
        1.31925         210.697         33.2784 
        1.32537          210.06         32.9232 
        1.33151         208.471         32.5721 
        1.33765          206.93         32.2263 
        1.34378         206.136         31.8862 
        1.34992         204.362         31.5508 
        1.35606          203.58         31.2196 
         1.3622          202.09         30.8938 
        1.36833         200.972         30.5734 
        1.37445         200.642         30.2578 
        1.38059         198.354         29.9457 
        1.38675         197.172         29.6373 
        1.39288         196.218         29.3346 
        1.39901         194.735         29.0362 
        1.40515         194.157         28.7413 
         1.4113         192.716         28.4507 
        1.41742         191.203         28.1653 
        1.42355          191.09         27.8832 
         1.4297         189.531         27.6042 
        1.43585          188.73         27.3292 
        1.44198         186.918          27.059 
        1.44809         186.416          26.793 
        1.45423         185.262         26.5296 
        1.46036         184.148         26.2703 
        1.46649         182.993         26.0144 
        1.47263         182.368         25.7617 
        1.47877         180.953         25.5125 
        1.48491         179.569         25.2662 
        1.49104          178.09         25.0238 
        1.49718         177.746         24.7843 
        1.50333         176.137         24.5477 
        1.50947         175.494         24.3146 
         1.5156          174.42          24.085 
        1.52172         173.573         23.8583 
        1.52787          172.56         23.6341 
          1.534         171.753         23.4131 
        1.54013         170.489         23.1951 
        1.54627         169.683         22.9796 
        1.55241         168.887         22.7667 
        1.55855         167.989         22.5569 
        1.56467         166.972         22.3504 
         1.5708         165.528         22.1458 
        1.57695         164.976         21.9435 
        1.58308         163.754         21.7443 
        1.58922         162.901         21.5473 
        1.59535         161.735          21.353 
         1.6015         161.158         21.1607 
        1.60764         159.975          20.971 
        1.61376         158.902         20.7841 
        1.61989         158.244         20.5993 
        1.62604         157.164         20.4164 
        1.63218         156.422         20.2359 
        1.63831         155.638         20.0579 
        1.64444          154.43         19.8821 
        1.65059         153.719          19.708 
        1.65673         152.756         19.5361 
        1.66285         152.197         19.3668 
        1.66898         151.145         19.1995 
        1.67512         150.166         19.0338 
        1.68127         149.571           18.87 
         1.6874         148.519         18.7084 
        1.69353         148.099         18.5489 
        1.69967         146.822         18.3909 
        1.70581         146.449         18.2348 
        1.71193          145.36         18.0811 
        1.71806         144.031         17.9288 
        1.72421         143.606         17.7781 
        1.73035         142.764         17.6292 
        1.73649         141.801         17.4821 
        1.74262         141.331         17.3368 
        1.74876         140.492         17.1931 
        1.75489         139.945         17.0513 
        1.76101         138.641         16.9111 
        1.76715         137.889         16.7724 
        1.77329         137.082          16.635 
        1.77943         136.209         16.4992 
        1.78557         135.682          16.365 
        1.79171         134.913         16.2324 
        1.79785         133.936         16.1012 
        1.80399         133.355         15.9714 
        1.81012         132.589         15.8433 
        1.81625         131.811         15.7167 
        1.82239         131.201         15.5912 
        1.82853         130.307         15.4673 
        1.83466         129.299         15.3447 
        1.84078         129.026         15.2237 
        1.84692         128.472         15.1037 
        1.85306         127.474          14.985 
         1.8592         126.982         14.8677 
        1.86533         125.949         14.7517 
        1.87147         125.394         14.6368 
        1.87761          124.57         14.5231 
        1.88375         123.703         14.4108 
        1.88988         123.219         14.2998 
        1.89601         122.868         14.1899 
        1.90215         122.304         14.0811 
        1.90829         121.034         13.9734 
        1.91442         120.312         13.8669 
        1.92056         119.786         13.7616 
         1.9267         119.171         13.6573 
        1.93284         118.345         13.5541 
        1.93897         117.872         13.4521 
        1.94509         117.148         13.3514 
        1.95123         116.611         13.2514 
        1.95737         115.985         13.1524 
        1.96349         115.239         13.0547 
        1.96964         114.532         12.9577 
        1.97578         113.941         12.8617 
        1.98192         113.599         12.7668 
        1.98805         112.923         12.6729 
        1.99419          111.91         12.5799 
        2.00033          111.55         12.4879 
        2.00647         111.076         12.3968 
         2.0126         110.317         12.3067 
        2.01874         109.833         12.2174 
        2.02488         109.027         12.1289 
        2.03101         108.625         12.0415 
        2.03714         107.887          11.955 
        2.04328         107.584         11.8693 
        2.04941         106.973         11.7845 
        2.05554         106.394         11.7006 
        2.06167         105.551         11.6174 
        2.06781         105.061          11.535 
        2.07396         104.498         11.4532 
        2.08009         103.759         11.3725 
        2.08622         103.368         11.2926 
        2.09237         102.607         11.2133 
        2.09851         102.249         11.1347 
        2.10464         101.832         11.0571 
        2.11077         101.103         10.9803 
        2.11691         100.686          10.904 
        2.12305         100.125         10.8285 
        2.12918         99.5406         10.7539 
        2.13531         98.9472         10.6799 
        2.14145         98.5319         10.6066 
         2.1476         97.9685         10.5338 
        2.15372         97.3229          10.462 
        2.15985         96.9037         10.3909 
        2.16599         96.2238         10.3202 
        2.17213         95.7387         10.2503 
        2.17827         95.1679         10.1811 
         2.1844         94.9056         10.1125 
        2.19054          94.242         10.0446 
        2.19666          93.575         9.97733 
         2.2028         93.3511         9.91067 
        2.20893         92.9271         9.84458 
        2.21508         92.2717         9.77903 
        2.22122          91.788         9.71406 
        2.22736         91.4837         9.64982 
        2.23349         90.8044         9.58617 
        2.23962          90.301         9.52307 
        2.24577         89.8915         9.46049 
         2.2519         89.3438         9.39855 
        2.25802         88.9707         9.33728 
        2.26417         88.3547         9.27638 
        2.27031         87.7873         9.21598 
        2.27644         87.5058         9.15629 
        2.28257         87.0353         9.09714 
        2.28872         86.6052          9.0384 
        2.29486         86.3755         8.98019 
        2.30099         85.6025         8.92262 
        2.30712          85.329         8.86554 
        2.31326         84.8282         8.80885 
         2.3194         84.3539          8.7527 
        2.32553         83.8977         8.69714 
        2.33166         83.4008         8.64208 
         2.3378         83.0479         8.58743 
        2.34394         82.6616         8.53324 
        2.35007         81.9966         8.47959 
        2.35619         81.7348         8.42648 
        2.36233         81.2407         8.37369 
        2.36848         80.8131         8.32125 
        2.37462          80.582         8.26938 
        2.38075         79.9832         8.21799 
        2.38689         79.6316         8.16701 
        2.39303         79.2903         8.11646 
        2.39916         78.8012          8.0664 
        2.40529         78.5125         8.01677 
        2.41143          78.046         7.96752 
        2.41757         77.5122         7.91867 
         2.4237          77.102         7.87032 
        2.42983         76.7037         7.82238 
        2.43598         76.4333         7.77471 
        2.44211         76.1385         7.72752 
        2.44823         75.6501         7.68083 
        2.45437          75.282          7.6344 
        2.46052         74.8135         7.58832 
        2.46665         74.2307         7.54271 
        2.47279         74.1048         7.49748 
        2.47892         73.7526          7.4526 
        2.48507         73.3473         7.40805 
         2.4912         72.8616         7.36394 
