# k  (h/Mpc)    P(k)  (Mpc/h)^3    P_linear(k)  (Mpc/h)^3
     0.00783031         748.786         757.187 
       0.013688         916.435         919.117 
       0.019231         910.485         910.875 
      0.0249154         817.557         821.291 
      0.0312784         692.605         692.489 
      0.0375637         581.012          579.16 
      0.0433917         501.504         501.465 
      0.0492413         449.907         449.107 
      0.0555754         410.877         412.151 
      0.0619321         385.129         383.711 
       0.067871         355.373         356.291 
      0.0738098         323.389          324.32 
      0.0800417         285.701         286.965 
      0.0862327         250.132         250.268 
      0.0921407         220.243         219.835 
      0.0982031          195.74         195.761 
       0.104506         179.787         178.625 
       0.110769          168.57         167.756 
       0.116806         160.301         160.381 
       0.122832         153.819         153.418 
       0.129052         144.483          144.76 
       0.135211         133.943         134.183 
       0.141259         122.996         122.585 
       0.147318         112.009         111.124 
       0.153489         101.569         100.932 
       0.159709         93.6823         92.9428 
       0.165845         88.6194         87.3418 
       0.171974         84.0601         83.4678 
       0.178125         81.1309         80.4639 
       0.184229         78.3001         77.5308 
        0.19034         74.2451          74.085 
       0.196428         70.6084         69.9961 
       0.202534          66.582         65.4619 
       0.208729         61.7591         60.8622 
       0.214876         57.4369         56.7381 
       0.220989         54.4921         53.3435 
       0.227147         51.4094         50.6869 
        0.23329         49.3649          48.652 
       0.239377         47.7992         46.9868 
       0.245482         45.8898         45.4005 
       0.251667         44.5151         43.6763 
       0.257832         42.5377         41.7626 
       0.263955         40.5583           39.72 
       0.270079         38.5446         37.6582 
        0.27624          36.863         35.7101 
       0.282372         35.1644         33.9998 
        0.28843         33.5723         32.5687 
       0.294538         32.3276         31.3603 
       0.300721         31.4482         30.2988 
        0.30691         30.2347         29.3112 
       0.313033         29.2663         28.3313 
       0.319153         27.9671          27.315 
       0.325316         27.2963          26.252 
        0.33145         26.1657           25.19 
       0.337538         25.1925         24.1725 
       0.343633         24.1689         23.2292 
       0.349808         23.3921         22.3695 
       0.355968         22.6345         21.6063 
       0.362074          21.902         20.9247 
       0.368217         21.2642         20.2851 
       0.374374         20.5551         19.6661 
       0.380519         20.0176         19.0509 
       0.386598         19.4376         18.4404 
       0.392688         18.9016         17.8334 
        0.39888         18.2546         17.2309 
       0.405048         17.7218         16.6596 
       0.411186         17.2133         16.1287 
       0.417313         16.6367         15.6365 
       0.423458         16.2039         15.1788 
       0.429607         15.7268         14.7483 
       0.435692         15.2849         14.3399 
       0.441815          14.914           13.94 
       0.447964         14.6036         13.5466 
       0.454126         14.0897         13.1588 
       0.460267         13.7511         12.7817 
       0.466387         13.3201         12.4194 
        0.47254         13.0355         12.0716 
       0.478662         12.7478         11.7425 
       0.484765         12.3652         11.4314 
       0.490885         12.0662          11.135 
       0.497035         11.8812         10.8497 
       0.503198         11.5483         10.5731 
       0.509342         11.2716         10.3049 
       0.515458         10.9858         10.0453 
       0.521598          10.752         9.79179 
       0.527764         10.4717         9.54467 
       0.533884         10.2839         9.30758 
           0.54         10.0343          9.0796 
       0.546137         9.82875         8.86026 
       0.552299         9.62655         8.64884 
       0.558452         9.34624         8.44549 
       0.564573         9.19627         8.24978 
       0.570708         9.00143         8.05947 
       0.576825         8.77248         7.87533 
       0.582926         8.61427         7.69706 
       0.589034         8.37043         7.52376 
       0.595184         8.22963          7.3544 
       0.601379         8.04555         7.18907 
       0.607522         7.92201         7.03031 
       0.613639         7.80073         6.87737 
       0.619772          7.5857          6.7291 
       0.625918         7.49137         6.58528 
       0.632068         7.36803         6.44576 
       0.638161         7.18624         6.31152 
         0.6443         7.03872         6.17996 
       0.650464         6.88682         6.05146 
       0.656582         6.81013          5.9274 
       0.662703         6.67836         5.80674 
       0.668861         6.56311         5.68881 
       0.675024         6.42313          5.5742 
       0.681124         6.30089         5.46407 
       0.687237         6.20686         5.35683 
       0.693381         6.10467         5.25206 
       0.699536         5.94207         5.14995 
       0.705665          5.8614         5.05099 
       0.711789         5.76636          4.9547 
       0.717957         5.65851         4.86023 
        0.72409         5.56132         4.76873 
       0.730186          5.4738         4.68014 
       0.736317         5.41584         4.59333 
       0.742472         5.32337         4.50843 
       0.748622         5.22255          4.4258 
        0.75476         5.11438         4.34546 
       0.760888         5.04205         4.26726 
       0.767043         4.98184         4.19072 
       0.773185         4.87662         4.11624 
       0.779291          4.8232         4.04401 
       0.785407         4.74051         3.97342 
       0.791564         4.67024         3.90408 
       0.797719         4.59638         3.83644 
       0.803834         4.54486         3.77084 
       0.809972         4.48112         3.70655 
       0.816124         4.39239         3.64363 
       0.822261         4.31478         3.58235 
       0.828378         4.26235         3.52267 
       0.834502         4.22095         3.46432 
       0.840667         4.13084         3.40692 
       0.846816         4.06651           3.351 
       0.852925         4.03071          3.2967 
       0.859047         3.97145          3.2435 
       0.865192         3.92089         3.19131 
       0.871341         3.87237         3.14024 
       0.877463         3.81771         3.09054 
       0.883569         3.74874         3.04205 
       0.889708         3.69164         2.99435 
       0.895864         3.64759         2.94757 
       0.902008         3.59466          2.9019 
       0.908149         3.55543         2.85722 
       0.914301         3.49001         2.81342 
       0.920448         3.44644         2.77059 
       0.926574         3.39709         2.72881 
       0.932687         3.35933         2.68799 
       0.938823         3.32136         2.64786 
       0.944975         3.27548         2.60846 
       0.951105         3.23837         2.57001 
       0.957225         3.21611         2.53241 
       0.963368         3.16703         2.49543 
       0.969511         3.12027          2.4592 
       0.975621         3.07423         2.42389 
       0.981748         3.04604         2.38919 
       0.987916         3.00616         2.35495 
        0.99406         2.95643         2.32151 
        1.00019         2.92684          2.2888 
        1.00632         2.89357         2.25675 
        1.01246         2.86005         2.22527 
        1.01859         2.82611         2.19444 
        1.02471         2.78969         2.16424 
        1.03085         2.75878          2.1345 
        1.03698          2.7213          2.1054 
        1.04314         2.69602         2.07671 
        1.04929         2.66094         2.04863 
        1.05541         2.63113         2.02119 
        1.06154         2.60193         1.99418 
        1.06769         2.57909         1.96763 
        1.07382         2.54178         1.94166 
        1.07993          2.5066         1.91621 
        1.08607          2.4934         1.89112 
        1.09222         2.45935         1.86646 
        1.09836          2.4395         1.84227 
        1.10449         2.41113         1.81853 
        1.11063          2.3781          1.7952 
        1.11677         2.35405         1.77228 
         1.1229          2.3289         1.74981 
        1.12903         2.30051         1.72771 
        1.13518         2.28158         1.70597 
        1.14131         2.24899         1.68463 
        1.14745         2.21465         1.66366 
        1.15359         2.20374         1.64305 
        1.15973         2.17096         1.62278 
        1.16584         2.16092         1.60295 
        1.17197         2.13552         1.58342 
        1.17811         2.11641         1.56416 
        1.18424         2.09827         1.54527 
        1.19038          2.0732         1.52665 
        1.19652         2.05103         1.50833 
        1.20267         2.03442         1.49033 
        1.20881         2.00822         1.47262 
        1.21495         1.99302         1.45523 
        1.22108          1.9731         1.43812 
         1.2272          1.9592         1.42133 
        1.23334         1.93325         1.40477 
        1.23949         1.91241         1.38844 
        1.24562         1.89974         1.37241 
        1.25174         1.87718         1.35666 
        1.25789         1.86151         1.34111 
        1.26402         1.83804         1.32583 
        1.27014         1.82114         1.31083 
        1.27628         1.81314         1.29602 
        1.28244         1.78695         1.28141 
        1.28858           1.774         1.26705 
        1.29471         1.75538         1.25294 
        1.30084         1.73731         1.23905 
        1.30697         1.72685         1.22536 
        1.31312         1.69993         1.21186 
        1.31925         1.69204          1.1986 
        1.32537         1.67634         1.18556 
        1.33151          1.6635         1.17266 
        1.33765         1.64376         1.15997 
        1.34378         1.62805         1.14749 
        1.34992         1.62056         1.13518 
        1.35606         1.59767         1.12303 
         1.3622         1.58958         1.11108 
        1.36833         1.57396         1.09933 
        1.37445          1.5569         1.08776 
        1.38059         1.54645         1.07633 
        1.38675         1.54029         1.06503 
        1.39288         1.51967         1.05393 
        1.39901         1.50525         1.04301 
        1.40515         1.49406         1.03221 
         1.4113          1.4815         1.02157 
        1.41742         1.46906         1.01112 
        1.42355         1.46266          1.0008 
         1.4297         1.44328        0.990592 
        1.43585         1.43425        0.980531 
        1.44198         1.42635        0.970649 
        1.44809         1.40749        0.960922 
        1.45423         1.39723        0.951293 
        1.46036         1.38575        0.941813 
        1.46649         1.37426         0.93246 
        1.47263         1.36208        0.923227 
        1.47877         1.34912        0.914123 
        1.48491           1.339        0.905127 
        1.49104         1.32962        0.896273 
        1.49718         1.32143         0.88753 
        1.50333         1.30766        0.878891 
        1.50947         1.30035        0.870384 
         1.5156         1.28828        0.862004 
        1.52172         1.27784        0.853734 
        1.52787         1.26646        0.845556 
          1.534         1.25908        0.837496 
        1.54013         1.24643         0.82955 
        1.54627          1.2358        0.821693 
        1.55241           1.226        0.813937 
        1.55855         1.21835        0.806292 
        1.56467         1.21063        0.798767 
         1.5708         1.19689        0.791317 
        1.57695         1.19197        0.783951 
        1.58308         1.18248        0.776697 
        1.58922         1.17327        0.769529 
        1.59535         1.16445        0.762455 
         1.6015         1.15565         0.75546 
        1.60764          1.1489        0.748557 
        1.61376         1.13899        0.741759 
        1.61989         1.13046        0.735041 
        1.62604         1.12088        0.728391 
        1.63218         1.11676        0.721828 
        1.63831         1.10476        0.715361 
        1.64444         1.09648        0.708972 
        1.65059         1.09099        0.702645 
        1.65673         1.08093        0.696403 
        1.66285         1.07306        0.690254 
        1.66898         1.06858        0.684177 
        1.67512         1.05677        0.678162 
        1.68127         1.04986        0.672215 
         1.6874         1.04573        0.666351 
        1.69353         1.03449        0.660562 
        1.69967         1.02704        0.654827 
        1.70581         1.02352        0.649164 
        1.71193         1.01417        0.643588 
        1.71806         1.00944        0.638067 
        1.72421         1.00098          0.6326 
        1.73035        0.992773        0.627203 
        1.73649        0.988012         0.62187 
        1.74262        0.980871        0.616604 
        1.74876         0.97381        0.611395 
        1.75489        0.964732        0.606258 
        1.76101         0.95951        0.601181 
        1.76715        0.953653        0.596156 
        1.77329         0.94788        0.591182 
        1.77943        0.939512        0.586263 
        1.78557        0.933077        0.581407 
        1.79171        0.929733        0.576606 
        1.79785        0.921808        0.571858 
        1.80399         0.91622        0.567165 
        1.81012        0.911408         0.56253 
        1.81625        0.903802         0.55795 
        1.82239        0.898566        0.553414 
        1.82853         0.88915        0.548931 
        1.83466        0.885859        0.544502 
        1.84078        0.879156        0.540126 
        1.84692        0.875963        0.535792 
        1.85306        0.869368          0.5315 
         1.8592        0.864546        0.527262 
        1.86533        0.857825        0.523073 
        1.87147        0.853199        0.518925 
        1.87761        0.847452         0.51482 
        1.88375        0.839957        0.510764 
        1.88988        0.837435        0.506756 
        1.89601        0.830603         0.50279 
        1.90215        0.825375        0.498862 
        1.90829        0.819439        0.494979 
        1.91442        0.814857        0.491137 
        1.92056         0.81059        0.487339 
         1.9267        0.804701        0.483578 
        1.93284        0.801962        0.479854 
        1.93897        0.795631        0.476176 
        1.94509        0.790714        0.472545 
        1.95123        0.785013        0.468943 
        1.95737        0.781048        0.465375 
        1.96349        0.775029        0.461855 
        1.96964        0.771565         0.45836 
        1.97578          0.7665          0.4549 
        1.98192        0.763427        0.451483 
        1.98805        0.756671          0.4481 
        1.99419        0.754011        0.444752 
        2.00033        0.751018        0.441437 
        2.00647         0.74373        0.438157 
         2.0126        0.740489        0.434915 
        2.01874        0.736032        0.431702 
        2.02488        0.732611        0.428518 
        2.03101        0.725986        0.425372 
        2.03714        0.720962        0.422261 
        2.04328        0.719761        0.419178 
        2.04941        0.714483        0.416128 
        2.05554         0.70999         0.41311 
        2.06167        0.705602        0.410119 
        2.06781        0.701309        0.407156 
        2.07396        0.696522        0.404219 
        2.08009        0.693634        0.401316 
        2.08622        0.688935        0.398445 
        2.09237        0.687401        0.395596 
        2.09851         0.68325        0.392775 
        2.10464        0.679746        0.389986 
        2.11077        0.674958        0.387227 
        2.11691        0.670458        0.384489 
        2.12305        0.667339        0.381777 
        2.12918        0.663558        0.379099 
        2.13531        0.659727        0.376445 
        2.14145        0.656131        0.373811 
         2.1476        0.651731        0.371199 
        2.15372        0.649667        0.368626 
        2.15985        0.644526        0.366074 
        2.16599        0.640832        0.363539 
        2.17213        0.637803        0.361031 
        2.17827        0.635816        0.358547 
         2.1844        0.632307        0.356089 
        2.19054        0.629245        0.353653 
        2.19666        0.624786        0.351243 
         2.2028        0.621408        0.348854 
        2.20893        0.618249        0.346486 
        2.21508         0.61593        0.344137 
        2.22122        0.609953        0.341809 
        2.22736        0.607428        0.339508 
        2.23349        0.606916        0.337229 
        2.23962        0.602224        0.334969 
        2.24577        0.598018        0.332728 
         2.2519        0.595146         0.33051 
        2.25802        0.592431        0.328317 
        2.26417        0.588317        0.326137 
        2.27031        0.585842        0.323975 
        2.27644        0.583129        0.321839 
        2.28257        0.580564        0.319722 
        2.28872        0.577033         0.31762 
        2.29486        0.574029        0.315538 
        2.30099        0.570587        0.313479 
        2.30712        0.568173        0.311437 
        2.31326        0.565638         0.30941 
         2.3194        0.563927        0.307402 
        2.32553         0.56073        0.305416 
        2.33166        0.557367        0.303448 
         2.3378        0.554303        0.301494 
        2.34394        0.550434        0.299558 
        2.35007        0.548347        0.297641 
        2.35619        0.546269        0.295743 
        2.36233        0.542069        0.293857 
        2.36848        0.540498        0.291984 
        2.37462        0.537041        0.290131 
        2.38075        0.535973        0.288296 
        2.38689        0.532513        0.286475 
        2.39303        0.530658        0.284671 
        2.39916        0.526201        0.282883 
        2.40529        0.525139        0.281112 
        2.41143         0.52261        0.279354 
        2.41757        0.519972        0.277611 
         2.4237        0.517692        0.275885 
        2.42983        0.515353        0.274175 
        2.43598        0.512641        0.272474 
        2.44211        0.510713        0.270791 
        2.44823        0.507941        0.269125 
        2.45437        0.505176         0.26747 
        2.46052        0.504125        0.265826 
        2.46665        0.500745          0.2642 
        2.47279        0.498198        0.262588 
        2.47892        0.495203        0.260988 
        2.48507        0.493511          0.2594 
         2.4912        0.491302        0.257828 
