# k  (h/Mpc)    P(k)  (Mpc/h)^3    P_linear(k)  (Mpc/h)^3
     0.00783031          1988.4         2011.31 
       0.013688         2607.61         2608.76 
       0.019231          2751.1         2752.11 
      0.0249154         2622.13         2644.45 
      0.0312784          2372.8         2380.15 
      0.0375637         2095.02         2092.12 
      0.0433917         1852.56         1861.63 
      0.0492413         1683.24         1684.53 
      0.0555754          1533.8         1547.44 
      0.0619321         1450.99         1445.47 
       0.067871         1350.51         1360.64 
      0.0738098         1259.87         1270.77 
      0.0800417         1149.79         1165.05 
      0.0862327         1044.05         1052.44 
      0.0921407          943.95         947.138 
      0.0982031         845.466         850.972 
       0.104506         775.036          770.39 
       0.110769         715.047         711.186 
       0.116806         669.169         670.435 
       0.122832         641.959         639.767 
       0.129052         608.265         611.746 
       0.135211          578.47         582.114 
       0.141259         549.134         548.595 
       0.147318         514.684         511.083 
       0.153489         473.114         471.561 
       0.159709         438.356         434.007 
       0.165845         411.913         402.096 
       0.171974         383.143         376.677 
       0.178125         364.634         357.351 
       0.184229         351.065         342.742 
        0.19034         333.156         330.501 
       0.196428         325.069         318.582 
       0.202534         314.865         305.455 
       0.208729         298.258         290.444 
       0.214876         280.448         274.334 
       0.220989         268.893         258.176 
       0.227147         250.882          242.95 
        0.23329         238.663          229.69 
       0.239377         229.892         218.808 
       0.245482         217.615         209.979 
       0.251667         213.382         202.574 
       0.257832         206.508         195.966 
       0.263955         199.588         189.479 
       0.270079         192.833         182.607 
        0.27624         187.885         175.196 
       0.282372         179.992         167.507 
        0.28843         172.034         159.952 
       0.294538         164.843         152.768 
       0.300721         160.709         146.221 
        0.30691         153.459         140.527 
       0.313033         148.965         135.662 
       0.319153         142.493         131.377 
       0.325316         140.353         127.378 
        0.33145         135.614         123.489 
       0.337538         132.668         119.558 
       0.343633         128.194         115.521 
       0.349808         124.345          111.37 
       0.355968         120.827         107.294 
       0.362074         116.928         103.441 
       0.368217         113.601         99.8478 
       0.374374          110.18         96.5787 
       0.380519         107.483         93.6191 
       0.386598         104.708         90.9362 
       0.392688         102.734         88.4037 
        0.39888         99.9564         85.9051 
       0.405048         97.7603         83.4452 
       0.411186         95.5931         80.9955 
       0.417313          92.561         78.5667 
       0.423458           90.38         76.1831 
       0.429607         87.9727         73.8854 
       0.435692         85.2038         71.7321 
       0.441815         84.1175         69.7058 
       0.447964         82.7674         67.8012 
       0.454126         79.4593         66.0068 
       0.460267           78.22          64.307 
       0.466387         76.2668         62.6707 
        0.47254         75.1834         61.0592 
       0.478662         73.9257         59.4852 
       0.484765         71.9278         57.9458 
       0.490885         70.3894         56.4367 
       0.497035         69.4725         54.9676 
       0.503198         67.6946         53.5564 
       0.509342         66.0159         52.2159 
       0.515458         64.8627         50.9432 
       0.521598         63.9192         49.7219 
       0.527764           62.71         48.5458 
       0.533884         61.6361         47.4189 
           0.54         60.4855         46.3241 
       0.546137         59.6294         45.2497 
       0.552299         58.7517         44.1963 
       0.558452         57.0124         43.1729 
       0.564573         56.1701         42.1853 
       0.570708         55.4458         41.2275 
       0.576825         54.1812         40.3052 
       0.582926         53.2338         39.4182 
       0.589034         51.9198         38.5627 
       0.595184         51.3236         37.7316 
       0.601379         50.5742         36.9212 
       0.607522         49.5357         36.1401 
       0.613639           49.24         35.3817 
       0.619772         47.9842         34.6404 
       0.625918         47.7839         33.9172 
       0.632068         47.0203         33.2138 
       0.638161         46.1673         32.5374 
         0.6443          45.332         31.8761 
       0.650464         44.6142          31.232 
       0.656582         44.3374         30.6112 
       0.662703         43.4887         30.0079 
       0.668861         42.8177         29.4182 
       0.675024         42.1486         28.8443 
       0.681124         41.4407         28.2917 
       0.687237         40.7844         27.7526 
       0.693381         40.4805         27.2247 
       0.699536         39.5466         26.7093 
       0.705665         39.5392         26.2091 
       0.711789         38.6567          25.722 
       0.717957         38.2256          25.244 
        0.72409          37.678          24.781 
       0.730186         37.1682         24.3329 
       0.736317         36.8546         23.8938 
       0.742472         36.2187         23.4644 
       0.748622         35.9158         23.0463 
        0.75476         35.3393         22.6395 
       0.760888         34.8807         22.2432 
       0.767043         34.5139         21.8549 
       0.773185         33.9378         21.4765 
       0.779291         33.7856         21.1093 
       0.785407         33.3929           20.75 
       0.791564         32.8035         20.3969 
       0.797719         32.2053         20.0522 
       0.803834         32.1606         19.7178 
       0.809972         31.8519         19.3899 
       0.816124         31.1273         19.0688 
       0.822261         30.9826          18.756 
       0.828378         30.6606         18.4513 
       0.834502         30.3339         18.1532 
       0.840667         30.0033         17.8598 
       0.846816          29.526         17.5739 
       0.852925         29.2803         17.2961 
       0.859047         28.9514         17.0237 
       0.865192         28.7137         16.7564 
       0.871341         28.5267         16.4947 
       0.877463         28.0034         16.2399 
       0.883569         27.7095         15.9911 
       0.889708         27.3888         15.7463 
       0.895864         27.2103         15.5061 
       0.902008         26.9997         15.2714 
       0.908149         26.7234         15.0417 
       0.914301         26.5777         14.8165 
       0.920448         26.0448         14.5961 
       0.926574          25.898          14.381 
       0.932687          25.641         14.1708 
       0.938823         25.3192          13.964 
       0.944975          25.083         13.7609 
       0.951105         24.9079         13.5627 
       0.957225         24.6405         13.3687 
       0.963368         24.4479         13.1779 
       0.969511         24.2621         12.9908 
       0.975621         24.0688         12.8084 
       0.981748         23.7602          12.629 
       0.987916         23.6254          12.452 
        0.99406          23.343         12.2791 
        1.00019         23.0446         12.1098 
        1.00632         23.0084         11.9439 
        1.01246          22.775         11.7809 
        1.01859         22.4688         11.6212 
        1.02471         22.4034         11.4647 
        1.03085         22.1959         11.3106 
        1.03698         21.8652         11.1596 
        1.04314         21.7519         11.0108 
        1.04929         21.5053         10.8651 
        1.05541         21.3081         10.7226 
        1.06154         21.1749         10.5823 
        1.06769          21.068         10.4444 
        1.07382         20.8162         10.3094 
        1.07993         20.7215         10.1771 
        1.08607         20.4864         10.0466 
        1.09222         20.3534         9.91822 
        1.09836         20.1172          9.7923 
        1.10449         20.0252         9.66874 
        1.11063         19.8245         9.54718 
        1.11677         19.7444         9.42778 
         1.1229         19.6347         9.31064 
        1.12903         19.3956         9.19541 
        1.13518         19.1898         9.08204 
        1.14131         19.1142         8.97067 
        1.14745         18.9766         8.86124 
        1.15359         18.8534         8.75363 
        1.15973         18.6957         8.64778 
        1.16584         18.4522         8.54416 
        1.17197         18.4126         8.44211 
        1.17811         18.2621         8.34142 
        1.18424         18.1086         8.24268 
        1.19038         18.0424         8.14526 
        1.19652         17.8712         8.04946 
        1.20267         17.7109         7.95522 
        1.20881         17.6772         7.86251 
        1.21495         17.5398         7.77143 
        1.22108          17.357         7.68182 
         1.2272         17.2273         7.59384 
        1.23334          17.091         7.50705 
        1.23949         16.9595         7.42141 
        1.24562         16.9221         7.33736 
        1.25174         16.8017         7.25475 
        1.25789         16.6951         7.17316 
        1.26402         16.6104         7.09298 
        1.27014         16.4703         7.01423 
        1.27628         16.2774         6.93645 
        1.28244         16.2164         6.85971 
        1.28858         16.1785         6.78423 
        1.29471           16.01         6.71007 
        1.30084         15.8758         6.63709 
        1.30697         15.8312         6.56509 
        1.31312          15.648         6.49406 
        1.31925         15.5569         6.42431 
        1.32537         15.5065         6.35567 
        1.33151         15.3903         6.28778 
        1.33765         15.2888         6.22094 
        1.34378         15.1941         6.15521 
        1.34992         15.0592         6.09038 
        1.35606         15.0162         6.02636 
         1.3622         14.9302         5.96337 
        1.36833         14.8143         5.90145 
        1.37445         14.7461         5.84043 
        1.38059         14.6799          5.7801 
        1.38675         14.5352         5.72049 
        1.39288         14.4722         5.66195 
        1.39901         14.3387         5.60427 
        1.40515         14.2939         5.54726 
         1.4113         14.2162         5.49108 
        1.41742         14.1237         5.43589 
        1.42355         14.0319         5.38136 
         1.4297         13.9421         5.32742 
        1.43585         13.9033         5.27424 
        1.44198         13.8134           5.222 
        1.44809         13.7253         5.17056 
        1.45423         13.6345         5.11964 
        1.46036          13.575         5.06949 
        1.46649         13.5026            5.02 
        1.47263         13.3877         4.97114 
        1.47877           13.33         4.92295 
        1.48491          13.255         4.87533 
        1.49104          13.191         4.82844 
        1.49718         13.1188         4.78213 
        1.50333         13.0501         4.73636 
        1.50947         12.9739         4.69128 
         1.5156         12.8956         4.64686 
        1.52172         12.8273         4.60302 
        1.52787         12.7445         4.55966 
          1.534         12.6795         4.51691 
        1.54013         12.6174         4.47476 
        1.54627         12.5255         4.43308 
        1.55241         12.4832         4.39191 
        1.55855         12.4295         4.35134 
        1.56467         12.3377         4.31139 
         1.5708         12.3175         4.27183 
        1.57695         12.2027         4.23271 
        1.58308         12.1515         4.19417 
        1.58922         12.1055         4.15609 
        1.59535         12.0506          4.1185 
         1.6015         11.9626         4.08132 
        1.60764         11.8952         4.04462 
        1.61376         11.8763         4.00848 
        1.61989         11.7828         3.97275 
        1.62604         11.7379         3.93738 
        1.63218         11.6878         3.90246 
        1.63831         11.6412         3.86805 
        1.64444         11.5693         3.83405 
        1.65059         11.4821         3.80037 
        1.65673         11.4566         3.76714 
        1.66285         11.3503          3.7344 
        1.66898         11.3276         3.70204 
        1.67512         11.2778            3.67 
        1.68127         11.2115         3.63831 
         1.6874         11.1728         3.60707 
        1.69353         11.1081         3.57622 
        1.69967         11.0419         3.54565 
        1.70581         10.9876         3.51546 
        1.71193         10.9426         3.48574 
        1.71806         10.9236         3.45629 
        1.72421         10.8297         3.42713 
        1.73035         10.8098         3.39834 
        1.73649         10.7621         3.36989 
        1.74262         10.6924         3.34179 
        1.74876         10.6555         3.31399 
        1.75489         10.6171         3.28656 
        1.76101         10.5332         3.25945 
        1.76715         10.5146         3.23262 
        1.77329         10.4538         3.20605 
        1.77943         10.3918         3.17978 
        1.78557         10.3744         3.15384 
        1.79171         10.3199         3.12818 
        1.79785         10.2596          3.1028 
        1.80399         10.2067         3.07772 
        1.81012          10.174         3.05294 
        1.81625         10.1117         3.02845 
        1.82239         10.0817          3.0042 
        1.82853         10.0194         2.98022 
        1.83466         9.98676         2.95653 
        1.84078         9.92331         2.93312 
        1.84692         9.92087         2.90993 
        1.85306         9.85235         2.88696 
         1.8592         9.80214         2.86427 
        1.86533         9.77117         2.84185 
        1.87147         9.72817         2.81963 
        1.87761         9.68862         2.79765 
        1.88375         9.64456         2.77593 
        1.88988          9.6118         2.75446 
        1.89601         9.56781         2.73321 
        1.90215         9.52305         2.71217 
        1.90829         9.48083         2.69136 
        1.91442         9.44383         2.67077 
        1.92056         9.40693         2.65041 
         1.9267         9.35897         2.63025 
        1.93284          9.3183         2.61028 
        1.93897         9.27391         2.59056 
        1.94509         9.24074         2.57108 
        1.95123         9.19671         2.55176 
        1.95737         9.15315         2.53263 
        1.96349         9.12149         2.51373 
        1.96964         9.08479         2.49498 
        1.97578         9.04232         2.47641 
        1.98192         9.00703         2.45807 
        1.98805          8.9779         2.43991 
        1.99419         8.94028         2.42194 
        2.00033         8.91997         2.40414 
        2.00647          8.8721         2.38652 
         2.0126          8.8372         2.36911 
        2.01874         8.79346         2.35185 
        2.02488         8.76188         2.33474 
        2.03101         8.71845         2.31784 
        2.03714         8.68291         2.30112 
        2.04328         8.65072         2.28455 
        2.04941         8.61621         2.26815 
        2.05554         8.57851         2.25193 
        2.06167         8.54293         2.23585 
        2.06781         8.52273         2.21992 
        2.07396          8.4959         2.20412 
        2.08009         8.44801         2.18851 
        2.08622         8.40733         2.17306 
        2.09237         8.40328         2.15774 
        2.09851         8.37211         2.14256 
        2.10464         8.32677         2.12755 
        2.11077         8.27646          2.1127 
        2.11691         8.25177         2.09796 
        2.12305         8.23257         2.08337 
        2.12918         8.20775         2.06894 
        2.13531         8.16148         2.05466 
        2.14145         8.13835         2.04047 
         2.1476         8.09313         2.02641 
        2.15372         8.07136         2.01254 
        2.15985         8.06347         1.99879 
        2.16599           8.009         1.98514 
        2.17213          7.9942         1.97162 
        2.17827         7.96676         1.95824 
         2.1844         7.92603         1.94499 
        2.19054         7.88764         1.93186 
        2.19666          7.8639         1.91887 
         2.2028         7.83287         1.90599 
        2.20893         7.81891         1.89322 
        2.21508          7.7737         1.88055 
        2.22122         7.74281         1.86799 
        2.22736         7.72033         1.85558 
        2.23349         7.70578         1.84328 
        2.23962         7.67144         1.83109 
        2.24577         7.63256           1.819 
         2.2519         7.62079         1.80703 
        2.25802         7.57986          1.7952 
        2.26417         7.55222         1.78343 
        2.27031         7.52691         1.77176 
        2.27644         7.49871         1.76023 
        2.28257         7.47719          1.7488 
        2.28872         7.44886         1.73745 
        2.29486           7.422         1.72621 
        2.30099         7.40096         1.71509 
        2.30712         7.37654         1.70406 
        2.31326         7.32752         1.69311 
         2.3194         7.31522         1.68226 
        2.32553         7.29644         1.67153 
        2.33166         7.27152         1.66089 
         2.3378          7.2462         1.65033 
        2.34394         7.21612         1.63987 
        2.35007         7.17724          1.6295 
        2.35619         7.16578         1.61924 
        2.36233         7.13996         1.60905 
        2.36848         7.11401         1.59892 
        2.37462         7.09022          1.5889 
        2.38075         7.07359         1.57897 
        2.38689         7.03928         1.56913 
        2.39303         7.01411         1.55937 
        2.39916         6.99647          1.5497 
        2.40529         6.96723         1.54011 
        2.41143         6.94758          1.5306 
        2.41757         6.93717         1.52117 
         2.4237         6.90965         1.51183 
        2.42983         6.87428         1.50257 
        2.43598         6.86441         1.49337 
        2.44211         6.83689         1.48426 
        2.44823         6.81577         1.47524 
        2.45437         6.78519         1.46627 
        2.46052         6.75796         1.45738 
        2.46665         6.74172         1.44857 
        2.47279         6.71614         1.43984 
        2.47892         6.69075         1.43117 
        2.48507          6.6786         1.42257 
         2.4912         6.64488         1.41405 
