# k  (h/Mpc)    P(k)  (Mpc/h)^3    P_linear(k)  (Mpc/h)^3
     0.00783031         5996.96         6061.13 
       0.013688         6538.87         6660.75 
       0.019231         6083.94         6139.01 
      0.0249154         5225.82         5202.62 
      0.0312784         4141.32         4141.98 
      0.0375637         3303.33         3316.73 
      0.0433917         2802.87         2792.87 
      0.0492413         2454.22          2456.6 
      0.0555754         2235.76         2223.31 
      0.0619321         2012.41         2040.23 
       0.067871         1858.15         1862.09 
      0.0738098         1664.02         1659.97 
      0.0800417         1447.18         1434.81 
      0.0862327          1233.6         1225.51 
      0.0921407         1073.35         1061.24 
      0.0982031         958.486         937.945 
       0.104506         861.032         854.064 
       0.110769         810.525         801.437 
       0.116806         779.258         763.279 
       0.122832         731.985         723.796 
       0.129052         685.039         673.801 
       0.135211         634.174         615.097 
       0.141259         569.643         554.332 
       0.147318         510.281         497.739 
       0.153489         466.325         450.145 
       0.159709         436.078         414.527 
       0.165845         402.631         390.066 
       0.171974         393.647          372.54 
       0.178125         376.846         357.534 
       0.184229         354.963         341.698 
        0.19034         340.765         323.185 
       0.196428         321.765         302.344 
       0.202534         294.387         280.664 
       0.208729          281.11         259.945 
       0.214876         265.231         242.227 
       0.220989         246.201          228.02 
       0.227147         238.995         216.821 
        0.23329         229.452         207.788 
       0.239377         223.369         199.778 
       0.245482          212.26          191.73 
       0.251667         202.009         183.053 
       0.257832          197.25         173.877 
       0.263955          184.47         164.643 
       0.270079         175.317         155.812 
        0.27624         166.913         147.768 
       0.282372         160.915         140.812 
        0.28843         158.241         134.904 
       0.294538         150.703         129.696 
       0.300721         144.459         124.868 
        0.30691         141.495         120.202 
       0.313033          134.99         115.577 
       0.319153         131.975          110.92 
       0.325316         126.787          106.27 
        0.33145         122.086         101.811 
       0.337538           117.4         97.6639 
       0.343633         113.633         93.8623 
       0.349808         109.733         90.3592 
       0.355968         106.665         87.1668 
       0.362074         104.129         84.2136 
       0.368217         101.411         81.3757 
       0.374374         98.5467         78.6118 
       0.380519         94.2993         75.9055 
       0.386598         91.9496         73.2945 
       0.392688          88.824         70.7672 
        0.39888         87.1609         68.3163 
       0.405048         84.8538          66.018 
       0.411186         82.9104         63.8711 
       0.417313         80.6145          61.857 
       0.423458          78.361         59.9473 
       0.429607         76.5545         58.1211 
       0.435692         75.3422         56.3787 
       0.441815         72.7059         54.6824 
       0.447964          70.327         53.0319 
       0.454126         68.9799         51.4339 
       0.460267          68.238         49.9044 
       0.466387         66.2903         48.4474 
        0.47254         65.3882         47.0487 
       0.478662         63.0253         45.7208 
       0.484765         61.8504         44.4559 
       0.490885         60.1551         43.2391 
       0.497035         59.5261         42.0607 
       0.503198         58.1684         40.9203 
       0.509342          56.548          39.822 
       0.515458         55.5915         38.7661 
       0.521598         54.1506         37.7427 
       0.527764         53.4464         36.7521 
       0.533884         52.7788         35.8057 
           0.54         51.3387         34.8964 
       0.546137         49.9453         34.0179 
       0.552299         48.9574         33.1674 
       0.558452         47.9813         32.3473 
       0.564573          47.642         31.5585 
       0.570708         46.2487         30.7937 
       0.576825         45.7291          30.056 
       0.582926         45.0456          29.344 
       0.589034         44.1101          28.654 
       0.595184         43.4708         27.9818 
       0.601379         42.3999         27.3269 
       0.607522         41.5102         26.6989 
       0.613639         41.1079         26.0938 
       0.619772         40.2017         25.5064 
       0.625918         39.7119          24.936 
       0.632068         39.1123         24.3827 
       0.638161         38.3388         23.8508 
         0.6443         37.9508         23.3309 
       0.650464         36.9683         22.8244 
       0.656582         36.7975         22.3367 
       0.662703         36.1961         21.8633 
       0.668861         35.3285         21.4011 
       0.675024          35.055          20.952 
       0.681124         34.6445         20.5205 
       0.687237         33.9597         20.1003 
       0.693381         33.4254           19.69 
       0.699536         33.1016         19.2904 
       0.705665         32.5455         18.9036 
       0.711789         32.0304         18.5277 
       0.717957         31.4759         18.1596 
        0.72409         31.1088         17.8035 
       0.730186         30.8946         17.4592 
       0.736317         30.2946         17.1221 
       0.742472         29.9092         16.7928 
       0.748622         29.4479         16.4726 
        0.75476         28.9329         16.1613 
       0.760888         28.8541         15.8587 
       0.767043         28.2333         15.5626 
       0.773185         27.8494         15.2747 
       0.779291         27.5095         14.9957 
       0.785407         27.1833         14.7233 
       0.791564          27.085          14.456 
       0.797719         26.4468         14.1955 
       0.803834         26.3199          13.943 
       0.809972         25.8938         13.6958 
       0.816124         25.6079         13.4541 
       0.822261          25.247         13.2189 
       0.828378         25.0875           12.99 
       0.834502         24.7756         12.7663 
       0.840667         24.5124         12.5465 
       0.846816         24.1098         12.3325 
       0.852925         23.9168         12.1249 
       0.859047         23.7574         11.9216 
       0.865192         23.3729         11.7223 
       0.871341         23.0968         11.5274 
       0.877463         22.8161         11.3378 
       0.883569         22.6999          11.153 
       0.889708         22.3804         10.9714 
       0.895864         22.1152         10.7933 
       0.902008         21.9101         10.6196 
       0.908149          21.601         10.4498 
       0.914301         21.4196         10.2835 
       0.920448         21.2419         10.1209 
       0.926574         20.9868         9.96242 
       0.932687         20.7323         9.80767 
       0.938823          20.442         9.65566 
       0.944975         20.2916         9.50653 
       0.951105         20.1364         9.36109 
       0.957225         19.9394         9.21894 
       0.963368         19.7052         9.07927 
       0.969511         19.5152          8.9425 
       0.975621         19.3714         8.80928 
       0.981748         19.1237         8.67844 
       0.987916         18.9839         8.54944 
        0.99406          18.738         8.42355 
        1.00019          18.611         8.30045 
        1.00632         18.4741         8.17992 
        1.01246         18.2504         8.06161 
        1.01859         18.0874         7.94584 
        1.02471         17.9218         7.83248 
        1.03085         17.8049         7.72095 
        1.03698         17.6794         7.61183 
        1.04314         17.4702         7.50435 
        1.04929         17.2399          7.3992 
        1.05541         17.1905         7.29649 
        1.06154         17.0274         7.19548 
        1.06769         16.8003         7.09622 
        1.07382         16.6918         6.99915 
        1.07993         16.5562         6.90413 
        1.08607         16.4026         6.81047 
        1.09222         16.2626         6.71845 
        1.09836         16.0948         6.62825 
        1.10449          16.034          6.5398 
        1.11063         15.8824         6.45287 
        1.11677         15.8156         6.36755 
         1.1229         15.6294         6.28391 
        1.12903         15.4802         6.20171 
        1.13518         15.4192         6.12091 
        1.14131         15.2851         6.04159 
        1.14745         15.1061         5.96371 
        1.15359         14.9398          5.8872 
        1.15973         14.8901         5.81199 
        1.16584         14.7357         5.73844 
        1.17197         14.5847         5.66605 
        1.17811         14.5076         5.59469 
        1.18424         14.3552         5.52477 
        1.19038         14.3129         5.45584 
        1.19652         14.1362         5.38811 
        1.20267         14.0945         5.32153 
        1.20881         13.9364         5.25609 
        1.21495         13.8749         5.19185 
        1.22108         13.7878          5.1287 
         1.2272         13.6511         5.06675 
        1.23334         13.5871         5.00567 
        1.23949         13.4636         4.94546 
        1.24562         13.3302         4.88641 
        1.25174         13.2885         4.82841 
        1.25789         13.1981         4.77117 
        1.26402         13.0926         4.71497 
        1.27014         13.0118         4.65981 
        1.27628         12.8893         4.60536 
        1.28244         12.8725         4.55168 
        1.28858         12.7219         4.49892 
        1.29471         12.6147         4.44712 
        1.30084          12.523         4.39618 
        1.30697         12.4466         4.34596 
        1.31312         12.3754         4.29644 
        1.31925         12.2937         4.24786 
        1.32537         12.1768         4.20007 
        1.33151         12.0883         4.15284 
        1.33765         12.0705         4.10636 
        1.34378         11.9804         4.06069 
        1.34992         11.8809         4.01568 
        1.35606          11.768         3.97125 
         1.3622         11.7152         3.92757 
        1.36833         11.6661         3.88465 
        1.37445         11.5725         3.84239 
        1.38059         11.4886         3.80064 
        1.38675         11.4458          3.7594 
        1.39288         11.3378         3.71893 
        1.39901         11.2531         3.67908 
        1.40515         11.2123         3.63973 
         1.4113         11.1359         3.60096 
        1.41742         11.0731          3.5629 
        1.42355         10.9846         3.52533 
         1.4297         10.9184         3.48818 
        1.43585         10.8508         3.45158 
        1.44198          10.832         3.41564 
        1.44809          10.743         3.38028 
        1.45423         10.6668          3.3453 
        1.46036         10.6031         3.31086 
        1.46649          10.536         3.27691 
        1.47263         10.4783          3.2434 
        1.47877         10.3862         3.21037 
        1.48491         10.3606         3.17775 
        1.49104         10.2927         3.14565 
        1.49718         10.2488         3.11397 
        1.50333         10.1935         3.08267 
        1.50947          10.112         3.05187 
         1.5156         10.0751         3.02153 
        1.52172         10.0002         2.99161 
        1.52787         9.98741         2.96203 
          1.534         9.90118         2.93288 
        1.54013         9.85618         2.90415 
        1.54627         9.77348         2.87576 
        1.55241         9.70398         2.84774 
        1.55855         9.67148         2.82013 
        1.56467         9.62488         2.79297 
         1.5708         9.58266         2.76608 
        1.57695         9.52425         2.73951 
        1.58308         9.46219         2.71334 
        1.58922         9.41227          2.6875 
        1.59535         9.36697           2.662 
         1.6015         9.29231          2.6368 
        1.60764         9.25065         2.61194 
        1.61376         9.21182         2.58746 
        1.61989         9.13733         2.56328 
        1.62604         9.11297         2.53935 
        1.63218         9.05936         2.51574 
        1.63831         9.00439         2.49248 
        1.64444         8.95757         2.46951 
        1.65059         8.90888         2.44678 
        1.65673         8.86673         2.42435 
        1.66285         8.80649         2.40226 
        1.66898         8.77981         2.38045 
        1.67512         8.75853         2.35886 
        1.68127         8.69044         2.33751 
         1.6874         8.67023         2.31648 
        1.69353         8.57806         2.29572 
        1.69967         8.54444         2.27517 
        1.70581         8.51423         2.25487 
        1.71193         8.45613          2.2349 
        1.71806         8.41721         2.21513 
        1.72421          8.3785         2.19555 
        1.73035         8.34813         2.17624 
        1.73649         8.30625         2.15716 
        1.74262         8.26134         2.13832 
        1.74876         8.22299         2.11969 
        1.75489          8.1863         2.10133 
        1.76101         8.11717         2.08319 
        1.76715         8.11545         2.06523 
        1.77329         8.05785         2.04747 
        1.77943         8.01419          2.0299 
        1.78557          8.0064         2.01257 
        1.79171         7.94303         1.99543 
        1.79785         7.89569         1.97849 
        1.80399         7.86777         1.96175 
        1.81012         7.82493         1.94523 
        1.81625         7.79469          1.9289 
        1.82239           7.749         1.91274 
        1.82853         7.71086         1.89677 
        1.83466         7.66987         1.88099 
        1.84078         7.63067         1.86541 
        1.84692         7.62846         1.84999 
        1.85306         7.58496         1.83471 
         1.8592          7.5523         1.81964 
        1.86533         7.49895         1.80474 
        1.87147         7.47514         1.78998 
        1.87761          7.4474         1.77539 
        1.88375         7.41554         1.76098 
        1.88988         7.36487         1.74674 
        1.89601         7.33753         1.73265 
        1.90215         7.29881          1.7187 
        1.90829         7.26501         1.70492 
        1.91442         7.23979         1.69128 
        1.92056         7.20788          1.6778 
         1.9267         7.18982         1.66446 
        1.93284          7.1636         1.65125 
        1.93897          7.1015         1.63821 
        1.94509         7.07977         1.62534 
        1.95123         7.04745         1.61258 
        1.95737         7.01633         1.59994 
        1.96349         6.97939         1.58747 
        1.96964         6.96326         1.57509 
        1.97578         6.93296         1.56285 
        1.98192         6.91716         1.55075 
        1.98805         6.85649         1.53879 
        1.99419         6.84975         1.52694 
        2.00033         6.80515         1.51522 
        2.00647          6.7738         1.50362 
         2.0126         6.74887         1.49217 
        2.01874         6.72284         1.48081 
        2.02488         6.69275         1.46956 
        2.03101         6.68209         1.45845 
        2.03714         6.63213         1.44747 
        2.04328         6.60373         1.43658 
        2.04941         6.57368         1.42581 
        2.05554         6.56008         1.41517 
        2.06167         6.53309         1.40461 
        2.06781         6.51889         1.39416 
        2.07396          6.4807         1.38381 
        2.08009         6.43614         1.37357 
        2.08622           6.422         1.36345 
        2.09237         6.41002         1.35342 
        2.09851          6.3621         1.34348 
        2.10464         6.34925         1.33365 
        2.11077         6.30786         1.32394 
        2.11691         6.29222          1.3143 
        2.12305         6.26613         1.30476 
        2.12918         6.22467         1.29533 
        2.13531         6.22026           1.286 
        2.14145          6.1833         1.27674 
         2.1476         6.16603         1.26755 
        2.15372         6.14828         1.25851 
        2.15985         6.10743         1.24954 
        2.16599         6.10321         1.24063 
        2.17213         6.08566         1.23182 
        2.17827          6.0569          1.2231 
         2.1844         6.03584         1.21447 
        2.19054         6.00248         1.20591 
        2.19666         5.98269         1.19746 
         2.2028         5.95856         1.18907 
        2.20893         5.94057         1.18076 
        2.21508         5.90666         1.17252 
        2.22122         5.88427         1.16436 
        2.22736         5.85948         1.15629 
        2.23349         5.83759          1.1483 
        2.23962         5.81749         1.14038 
        2.24577         5.81054         1.13253 
         2.2519         5.78226         1.12476 
        2.25802         5.75283         1.11708 
        2.26417          5.7355         1.10945 
        2.27031         5.71488         1.10188 
        2.27644         5.70173          1.0944 
        2.28257         5.65622           1.087 
        2.28872         5.65071         1.07965 
        2.29486         5.63093         1.07236 
        2.30099         5.60542         1.06516 
        2.30712         5.57258         1.05802 
        2.31326         5.56343         1.05094 
         2.3194         5.53432         1.04392 
        2.32553         5.51944         1.03698 
        2.33166         5.48893         1.03011 
         2.3378         5.48377         1.02328 
        2.34394         5.45417         1.01652 
        2.35007         5.44172         1.00983 
        2.35619         5.42173          1.0032 
        2.36233         5.39596        0.996623 
        2.36848         5.37378        0.990087 
        2.37462         5.35841        0.983623 
        2.38075         5.33108        0.977223 
        2.38689         5.32079        0.970874 
        2.39303         5.30237        0.964582 
        2.39916         5.28839        0.958353 
        2.40529         5.27256        0.952179 
        2.41143         5.25069        0.946055 
        2.41757          5.2232        0.939981 
         2.4237         5.20546        0.933972 
        2.42983         5.19293        0.928016 
        2.43598         5.17061        0.922095 
        2.44211         5.14888        0.916236 
        2.44823         5.13246        0.910441 
        2.45437         5.11675         0.90468 
        2.46052         5.10469        0.898964 
        2.46665         5.08915        0.893306 
        2.47279         5.06211          0.8877 
        2.47892         5.04296        0.882137 
        2.48507         5.02802        0.876617 
         2.4912         5.01165        0.871155 
