#  k  (h/Mpc)          P(k)  (Mpc/h)^3     P_linear(k) (Mpc/h)^3
     0.00783031         2236.12         2255.95 
       0.013688         2480.89         2511.84 
       0.019231         2282.71         2294.14 
      0.0249154         1899.63         1892.87 
      0.0312784         1446.13         1442.04 
      0.0375637         1104.58         1103.89 
      0.0433917         908.636         903.642 
      0.0492413         791.133         790.031 
      0.0555754         731.059         726.624 
      0.0619321         679.092         684.582 
       0.067871         637.316         637.524 
      0.0738098         572.816         572.272 
      0.0800417         492.046         489.377 
      0.0862327         408.795         407.055 
      0.0921407         343.841          341.44 
      0.0982031          297.99         293.762 
       0.104506         266.065         264.835 
       0.110769          252.81         251.351 
       0.116806         247.893         245.257 
       0.122832         239.498         238.768 
       0.129052         228.173         226.547 
       0.135211         210.532         207.734 
       0.141259         187.243          185.19 
       0.147318         164.216          162.63 
       0.153489         145.926         143.319 
       0.159709         132.882         129.498 
       0.165845         123.026         121.329 
       0.171974         120.506          117.11 
       0.178125         117.387         114.665 
       0.184229         113.669         111.901 
        0.19034         109.895         107.391 
       0.196428         103.439         100.849 
       0.202534         94.3925         92.9189 
       0.208729         87.6286         84.7017 
       0.214876         81.0896         77.5283 
       0.220989         74.7284         72.0268 
       0.227147          71.738         68.2207 
        0.23329          69.156         65.7731 
       0.239377         67.5262         64.0395 
       0.245482          65.385         62.3381 
       0.251667         62.6487         60.1659 
       0.257832         60.7477         57.3788 
       0.263955         56.8608           54.15 
       0.270079         53.5295         50.7925 
        0.27624         50.3534          47.651 
       0.282372         47.8839         45.0154 
        0.28843         46.4259         42.9674 
       0.294538         44.5596         41.3955 
       0.300721         42.8479         40.1175 
        0.30691         42.0056          38.944 
       0.313033         40.5134         37.7085 
       0.319153         39.5203         36.3231 
       0.325316         37.5491         34.7806 
        0.33145         35.8715         33.1905 
       0.337538         34.4142         31.6607 
       0.343633         33.2409         30.2738 
       0.349808         31.9109         29.0582 
       0.355968          30.821         28.0352 
       0.362074          30.177         27.1606 
       0.368217         29.2289         26.3552 
       0.374374         28.5332         25.5668 
       0.380519         27.4154         24.7538 
       0.386598         26.5008         23.9194 
       0.392688         25.5625         23.0681 
        0.39888         24.9227         22.2141 
       0.405048         24.1919         21.4109 
       0.411186         23.3937         20.6775 
       0.417313         22.6765         20.0146 
       0.423458          21.931         19.4144 
       0.429607         21.5464         18.8586 
       0.435692         21.1227         18.3313 
       0.441815         20.3256         17.8109 
       0.447964         19.6689         17.2905 
       0.454126         19.2767         16.7688 
       0.460267         18.9494         16.2575 
       0.466387         18.3435         15.7668 
        0.47254          17.986         15.2982 
       0.478662         17.3991         14.8593 
       0.484765         16.9791         14.4506 
       0.490885         16.4514         14.0656 
       0.497035         16.1004         13.6964 
       0.503198         15.7969         13.3378 
       0.509342          15.307         12.9886 
       0.515458         15.0453         12.6488 
       0.521598         14.6894         12.3151 
       0.527764          14.419         11.9888 
       0.533884         14.0034          11.676 
           0.54         13.7406          11.377 
       0.546137          13.321         11.0914 
       0.552299         13.0556         10.8176 
       0.558452         12.7349          10.555 
       0.564573         12.5556         10.3024 
       0.570708         12.2656          10.057 
       0.576825         12.0405         9.81949 
       0.582926         11.7769         9.58925 
       0.589034         11.5308         9.36498 
       0.595184          11.379         9.14561 
       0.601379         11.0647         8.93158 
       0.607522         10.8256         8.72652 
       0.613639          10.624         8.52977 
       0.619772         10.4311         8.33968 
       0.625918         10.2165         8.15571 
       0.632068         10.0743         7.97743 
       0.638161          9.8657         7.80583 
         0.6443         9.67664         7.63753 
       0.650464         9.43747         7.47308 
       0.656582         9.35114         7.31435 
       0.662703         9.19283         7.16013 
       0.668861         8.95126         7.00961 
       0.675024         8.79088         6.86361 
       0.681124         8.77015         6.72354 
       0.687237         8.56331          6.5873 
       0.693381         8.34357         6.45431 
       0.699536         8.28502         6.32479 
       0.705665         8.11076         6.19931 
       0.711789         7.95614         6.07726 
       0.717957         7.78683         5.95758 
        0.72409          7.6995         5.84174 
       0.730186         7.64454         5.72968 
       0.736317         7.45716         5.61996 
       0.742472         7.36854         5.51278 
       0.748622         7.24449         5.40856 
        0.75476         7.05416         5.30732 
       0.760888          7.0077         5.20889 
       0.767043         6.85403          5.1126 
       0.773185         6.76328         5.01897 
       0.779291         6.71357         4.92824 
       0.785407         6.58161         4.83962 
       0.791564         6.49057         4.75261 
       0.797719          6.3604         4.66779 
       0.803834         6.31224         4.58556 
       0.809972         6.18247         4.50503 
       0.816124         6.11253         4.42626 
       0.822261         6.02635         4.34959 
       0.828378         5.94484         4.27497 
       0.834502         5.86357         4.20206 
       0.840667         5.79186         4.13039 
       0.846816         5.66302         4.06061 
       0.852925         5.62401         3.99289 
       0.859047          5.5342         3.92659 
       0.865192         5.45538         3.86158 
       0.871341          5.3841         3.79802 
       0.877463         5.30171         3.73618 
       0.883569         5.25627         3.67589 
       0.889708         5.16946         3.61662 
       0.895864         5.10149         3.55852 
       0.902008         5.02894         3.50182 
       0.908149         4.95668         3.44639 
       0.914301         4.90078         3.39209 
       0.920448         4.84905         3.33901 
       0.926574         4.80978         3.28726 
       0.932687         4.72304         3.23672 
       0.938823         4.64389         3.18707 
       0.944975         4.62251         3.13835 
       0.951105         4.53468         3.09083 
       0.957225          4.5094         3.04437 
       0.963368         4.44063         2.99873 
       0.969511         4.38622         2.95402 
       0.975621         4.33176         2.91046 
       0.981748         4.26781         2.86768 
       0.987916         4.22547         2.82549 
        0.99406          4.1854         2.78432 
        1.00019         4.13939         2.74405 
        1.00632         4.10203         2.70461 
        1.01246         4.03977          2.6659 
        1.01859         3.99635         2.62801 
        1.02471         3.93565          2.5909 
        1.03085         3.90639         2.55438 
        1.03698         3.86262         2.51865 
        1.04314         3.81727         2.48345 
        1.04929         3.76877         2.44901 
        1.05541         3.72594         2.41537 
        1.06154         3.69277         2.38227 
        1.06769         3.67009         2.34975 
        1.07382         3.60539         2.31795 
        1.07993         3.56671          2.2868 
        1.08607         3.54298         2.25611 
        1.09222         3.49507         2.22595 
        1.09836          3.4794         2.19637 
        1.10449         3.41088         2.16737 
        1.11063         3.39217         2.13886 
        1.11677         3.36166         2.11088 
         1.1229          3.3241         2.08345 
        1.12903         3.29606         2.05649 
        1.13518         3.24969         2.02998 
        1.14131         3.21862         2.00395 
        1.14745         3.17856          1.9784 
        1.15359         3.14391         1.95329 
        1.15973         3.11309         1.92861 
        1.16584         3.09123         1.90447 
        1.17197         3.05136          1.8807 
        1.17811         3.02275         1.85727 
        1.18424          2.9938         1.83431 
        1.19038         2.97269         1.81168 
        1.19652         2.94219         1.78943 
        1.20267         2.91811         1.76756 
        1.20881         2.88552         1.74606 
        1.21495          2.8588         1.72496 
        1.22108         2.82964          1.7042 
         1.2272         2.79741         1.68384 
        1.23334         2.78654         1.66377 
        1.23949         2.74797         1.64397 
        1.24562         2.73035         1.62456 
        1.25174         2.71349         1.60548 
        1.25789         2.66889         1.58666 
        1.26402         2.65237         1.56817 
        1.27014          2.6293         1.55002 
        1.27628         2.60126          1.5321 
        1.28244          2.5837         1.51444 
        1.28858         2.56326         1.49707 
        1.29471         2.52946         1.48002 
        1.30084         2.50813         1.46325 
        1.30697         2.49566         1.44672 
        1.31312         2.46995         1.43042 
        1.31925          2.4468         1.41442 
        1.32537         2.43073         1.39868 
        1.33151         2.40275         1.38312 
        1.33765         2.38343         1.36782 
        1.34378         2.37371         1.35277 
        1.34992         2.35012         1.33794 
        1.35606         2.33045          1.3233 
         1.3622         2.30932         1.30891 
        1.36833         2.28586         1.29477 
        1.37445         2.26218         1.28084 
        1.38059         2.24353         1.26707 
        1.38675         2.22615         1.25348 
        1.39288         2.21853         1.24014 
        1.39901         2.18971           1.227 
        1.40515         2.17833         1.21402 
         1.4113          2.1594         1.20124 
        1.41742         2.14149         1.18868 
        1.42355         2.12345         1.17629 
         1.4297         2.10607         1.16403 
        1.43585         2.09452         1.15196 
        1.44198         2.07354          1.1401 
        1.44809         2.05966         1.12843 
        1.45423         2.04279         1.11688 
        1.46036         2.02962         1.10551 
        1.46649         2.00909          1.0943 
        1.47263         2.00028         1.08324 
        1.47877         1.98513         1.07233 
        1.48491         1.96472         1.06156 
        1.49104         1.95121         1.05096 
        1.49718         1.93952         1.04049 
        1.50333         1.91915         1.03015 
        1.50947         1.90625         1.01997 
         1.5156          1.8943         1.00995 
        1.52172         1.87819         1.00006 
        1.52787         1.86694        0.990283 
          1.534         1.85435        0.980649 
        1.54013         1.84168        0.971153 
        1.54627         1.82174        0.961766 
        1.55241         1.80956        0.952502 
        1.55855         1.79956        0.943373 
        1.56467         1.78929        0.934388 
         1.5708         1.77188        0.925495 
        1.57695          1.7563        0.916705 
        1.58308         1.74243        0.908049 
        1.58922         1.73776        0.899499 
        1.59535         1.72222        0.891063 
         1.6015         1.70741        0.882723 
        1.60764         1.70195        0.874494 
        1.61376         1.68266        0.866393 
        1.61989          1.6708        0.858387 
        1.62604          1.6594        0.850466 
        1.63218         1.65124        0.842649 
        1.63831         1.64199        0.834949 
        1.64444         1.62696        0.827342 
        1.65059         1.62154        0.819812 
        1.65673         1.60368        0.812384 
        1.66285         1.59451        0.805069 
        1.66898         1.58336        0.797841 
        1.67512         1.57135        0.790689 
        1.68127         1.56271        0.783618 
         1.6874         1.55433        0.776649 
        1.69353         1.54122        0.769769 
        1.69967         1.52869        0.762956 
        1.70581         1.52466        0.756228 
        1.71193         1.50531        0.749607 
        1.71806         1.50275        0.743052 
        1.72421          1.4944        0.736562 
        1.73035         1.48038        0.730157 
        1.73649         1.47315         0.72383 
        1.74262         1.46359        0.717583 
        1.74876         1.45468        0.711405 
        1.75489         1.44311        0.705313 
        1.76101         1.43211        0.699294 
        1.76715         1.42846        0.693337 
        1.77329         1.41631        0.687443 
        1.77943         1.40717        0.681614 
        1.78557         1.39962        0.675862 
        1.79171          1.3907        0.670175 
        1.79785         1.38378        0.664552 
        1.80399         1.37339        0.658995 
        1.81012         1.36641        0.653509 
        1.81625         1.35297        0.648088 
        1.82239         1.34899         0.64272 
        1.82853         1.34092        0.637415 
        1.83466         1.32891        0.632176 
        1.84078         1.32127        0.627001 
        1.84692         1.31283        0.621876 
        1.85306         1.30717        0.616801 
         1.8592         1.29711        0.611792 
        1.86533         1.29296         0.60684 
        1.87147         1.28543        0.601938 
        1.87761         1.27757        0.597088 
        1.88375         1.26759        0.592297 
        1.88988            1.26        0.587564 
        1.89601         1.25146         0.58288 
        1.90215         1.24464        0.578244 
        1.90829         1.24005         0.57366 
        1.91442         1.23072        0.569125 
        1.92056         1.22557        0.564644 
         1.9267         1.21773        0.560206 
        1.93284         1.21037        0.555813 
        1.93897         1.20251        0.551476 
        1.94509          1.1929        0.547194 
        1.95123         1.18996        0.542947 
        1.95737         1.18497        0.538742 
        1.96349         1.17572        0.534592 
        1.96964         1.17184        0.530474 
        1.97578         1.16262        0.526397 
        1.98192          1.1528        0.522372 
        1.98805         1.14841        0.518388 
        1.99419         1.14116        0.514446 
        2.00033         1.13494        0.510543 
        2.00647         1.13189        0.506681 
         2.0126         1.12539        0.502866 
        2.01874          1.1167        0.499084 
        2.02488          1.1134        0.495338 
        2.03101         1.10468        0.491638 
        2.03714         1.10005        0.487978 
        2.04328         1.09438        0.484352 
        2.04941         1.08797        0.480766 
        2.05554         1.08034        0.477218 
        2.06167         1.07623        0.473702 
        2.06781         1.06953         0.47022 
        2.07396         1.06462        0.466768 
        2.08009         1.05989        0.463357 
        2.08622         1.05326        0.459984 
        2.09237         1.04898        0.456638 
        2.09851         1.04133        0.453325 
        2.10464         1.03549         0.45005 
        2.11077         1.03156        0.446811 
        2.11691         1.02473        0.443597 
        2.12305         1.01947        0.440414 
        2.12918         1.01374        0.437271 
        2.13531         1.01035        0.434158 
        2.14145         1.00417        0.431067 
         2.1476        0.995701        0.428004 
        2.15372         0.99309        0.424985 
        2.15985        0.987366        0.421993 
        2.16599        0.983311        0.419021 
        2.17213        0.978589        0.416081 
        2.17827        0.972934        0.413169 
         2.1844        0.968029        0.410288 
        2.19054         0.96211        0.407434 
        2.19666         0.95821        0.404611 
         2.2028        0.951917        0.401812 
        2.20893         0.94947        0.399038 
        2.21508        0.943703        0.396287 
        2.22122        0.938243        0.393561 
        2.22736        0.933268        0.390867 
        2.23349        0.928581        0.388198 
        2.23962        0.926674        0.385553 
        2.24577        0.920803         0.38293 
         2.2519        0.916374        0.380335 
        2.25802        0.912154        0.377768 
        2.26417        0.906284        0.375218 
        2.27031        0.902706        0.372689 
        2.27644        0.897544        0.370191 
        2.28257        0.893363        0.367716 
        2.28872        0.889641        0.365258 
        2.29486        0.884499        0.362824 
        2.30099          0.8803        0.360417 
        2.30712        0.877301         0.35803 
        2.31326        0.872323        0.355662 
         2.3194        0.867388        0.353316 
        2.32553        0.863971        0.350995 
        2.33166        0.859834        0.348696 
         2.3378        0.856962        0.346414 
        2.34394        0.850266        0.344152 
        2.35007        0.846676        0.341913 
        2.35619        0.843938        0.339697 
        2.36233         0.83998        0.337496 
        2.36848         0.83617        0.335309 
        2.37462         0.83156        0.333147 
        2.38075        0.828581        0.331005 
        2.38689        0.825624        0.328881 
        2.39303        0.819814        0.326775 
        2.39916        0.817883        0.324691 
        2.40529        0.812506        0.322624 
        2.41143        0.807895        0.320574 
        2.41757        0.805312        0.318541 
         2.4237        0.800882        0.316529 
        2.42983        0.797459        0.314535 
        2.43598        0.794706        0.312552 
        2.44211        0.790095        0.310591 
        2.44823        0.786375         0.30865 
        2.45437        0.783936         0.30672 
        2.46052        0.780516        0.304806 
        2.46665        0.777133        0.302911 
        2.47279         0.77329        0.301033 
        2.47892        0.770265        0.299169 
        2.48507        0.766903         0.29732 
         2.4912        0.763274         0.29549 
