# k  (h/Mpc)    Pcb(k)  (Mpc/h)^3    Pcb_linear(k)  (Mpc/h)^3
     0.00783031         3653.17         3692.97 
       0.013688         4722.41         4711.58 
       0.019231         4900.93         4897.32 
      0.0249154         4594.16         4641.84 
      0.0312784         4110.96         4127.33 
      0.0375637         3606.52         3601.03 
      0.0433917         3173.38         3196.34 
      0.0492413         2887.79         2893.67 
      0.0555754         2626.12            2661 
      0.0619321          2490.9         2482.14 
       0.067871          2298.7         2324.84 
      0.0738098         2127.24         2153.67 
      0.0800417         1919.77         1954.87 
      0.0862327         1731.72         1750.78 
      0.0921407         1562.81         1568.47 
      0.0982031         1399.17         1409.76 
       0.104506         1294.53         1282.82 
       0.110769         1201.63         1192.55 
       0.116806         1128.99          1129.8 
       0.122832          1083.9          1078.7 
       0.129052         1019.21         1026.42 
       0.135211         962.191         967.928 
       0.141259         907.614         902.869 
       0.147318         845.523          833.91 
       0.153489         773.748         766.019 
       0.159709         720.631         705.871 
       0.165845         683.161         657.893 
       0.171974         640.332         621.305 
       0.178125         612.777         593.453 
       0.184229         591.363         570.743 
        0.19034         557.565         549.045 
       0.196428         543.538         525.714 
       0.202534         523.731         499.599 
       0.208729         493.521         471.072 
       0.214876         462.903         442.604 
       0.220989          445.09         416.186 
       0.227147         417.443         393.003 
        0.23329         399.747         373.863 
       0.239377         388.516         358.431 
       0.245482         366.476         345.427 
       0.251667         361.034         333.461 
       0.257832         348.997         321.574 
       0.263955         336.148         309.139 
       0.270079          323.64         296.006 
        0.27624         316.029         282.482 
       0.282372         302.488         269.362 
        0.28843         290.516         257.329 
       0.294538         278.347          246.51 
       0.300721         273.906         236.985 
        0.30691         261.771         228.658 
       0.313033         255.102         221.234 
       0.319153         244.563         214.194 
       0.325316         239.622         207.166 
        0.33145          231.41         200.063 
       0.337538         227.199         192.929 
       0.343633         219.396         185.841 
       0.349808         212.595         178.922 
       0.355968         207.928         172.461 
       0.362074         201.857         166.579 
       0.368217         196.466         161.199 
       0.374374         190.701         156.246 
       0.380519         186.606         151.621 
       0.386598         181.815         147.228 
       0.392688         178.849         142.906 
        0.39888         174.098          138.56 
       0.405048         170.209          134.28 
       0.411186         166.416         130.119 
       0.417313         162.128         126.126 
       0.423458         158.605         122.324 
       0.429607         154.648         118.747 
       0.435692         149.791         115.431 
       0.441815         148.595          112.28 
       0.447964         146.179         109.262 
       0.454126         139.923         106.348 
       0.460267         138.211         103.522 
       0.466387          135.68         100.763 
        0.47254         133.325         98.0557 
       0.478662         131.514         95.4414 
       0.484765         128.024         92.9257 
       0.490885         125.707         90.5043 
       0.497035         124.092         88.1817 
       0.503198         120.763         85.9631 
       0.509342         118.302         83.8443 
       0.515458         116.586         81.8132 
       0.521598         115.089         79.8409 
       0.527764         113.175         77.9197 
       0.533884         111.231         76.0644 
           0.54         109.287         74.2593 
       0.546137         108.177         72.4998 
       0.552299         106.574         70.7908 
       0.558452         103.904         69.1455 
       0.564573         102.056         67.5675 
       0.570708          100.95          66.041 
       0.576825         99.1983         64.5707 
       0.582926         97.4196         63.1521 
       0.589034         95.4016         61.7756 
       0.595184         94.3835         60.4305 
       0.601379         93.3164         59.1134 
       0.607522         91.0191         57.8427 
       0.613639         90.8908         56.6124 
       0.619772          88.682         55.4146 
       0.625918         88.0518         54.2508 
       0.632068         86.8954         53.1226 
       0.638161         85.6775         52.0391 
         0.6443          84.429         50.9797 
       0.650464         83.2564         49.9467 
       0.656582         82.4441         48.9496 
       0.662703          80.819         47.9789 
       0.668861         79.9845         47.0286 
       0.675024         78.9382         46.1032 
       0.681124          77.788         45.2122 
       0.687237         76.5027         44.3433 
       0.693381          75.855         43.4936 
       0.699536         74.5967         42.6653 
       0.705665         74.9342         41.8624 
       0.711789         72.9375         41.0813 
       0.717957         72.4046          40.315 
        0.72409         71.3836         39.5728 
       0.730186         70.2701         38.8539 
       0.736317         70.0348         38.1491 
       0.742472         68.9655         37.4594 
       0.748622          68.436         36.7875 
        0.75476         67.5843         36.1338 
       0.760888         66.6447         35.4972 
       0.767043         65.9808         34.8735 
       0.773185         65.1483         34.2663 
       0.779291         64.8081         33.6772 
       0.785407         64.1843         33.1012 
       0.791564         63.1855         32.5353 
       0.797719         62.2437         31.9829 
       0.803834         62.1001         31.4471 
       0.809972         61.1181         30.9216 
       0.816124         60.3043         30.4072 
       0.822261         59.9882          29.906 
       0.828378         59.4785         29.4176 
       0.834502         58.7885         28.9399 
       0.840667         58.3087         28.4698 
       0.846816         57.5324         28.0116 
       0.852925         57.0471         27.5665 
       0.859047         56.2988         27.1303 
       0.865192          56.028         26.7021 
       0.871341         55.7192         26.2831 
       0.877463         54.6276          25.875 
       0.883569         54.2941         25.4767 
       0.889708         53.9755         25.0848 
       0.895864         53.4606         24.7003 
       0.902008         53.0184         24.3247 
       0.908149         52.5626         23.9572 
       0.914301         52.2513         23.5968 
       0.920448         51.4811         23.2442 
       0.926574         51.1976         22.9001 
       0.932687         50.7173         22.5638 
       0.938823         50.0146         22.2331 
       0.944975         49.8813         21.9083 
       0.951105         49.4108         21.5912 
       0.957225         48.8133          21.281 
       0.963368         48.6682         20.9759 
       0.969511         48.2949         20.6769 
       0.975621         47.8981         20.3853 
       0.981748          47.314         20.0986 
       0.987916         47.0911         19.8157 
        0.99406          46.764         19.5393 
        1.00019         46.1528         19.2688 
        1.00632         45.9805         19.0037 
        1.01246         45.6052         18.7433 
        1.01859         45.0578         18.4881 
        1.02471         45.0904         18.2381 
        1.03085         44.6168         17.9919 
        1.03698         44.0577         17.7508 
        1.04314         43.6883         17.5131 
        1.04929         43.5041         17.2803 
        1.05541          43.023         17.0528 
        1.06154         42.9135         16.8288 
        1.06769         42.5453         16.6086 
        1.07382         42.2379          16.393 
        1.07993            42.1         16.1818 
        1.08607         41.5653         15.9735 
        1.09222         41.4391         15.7686 
        1.09836         41.0057         15.5676 
        1.10449         40.8032         15.3704 
        1.11063          40.269         15.1764 
        1.11677         40.1375         14.9859 
         1.1229         40.0136          14.799 
        1.12903         39.4662         14.6151 
        1.13518         39.3064         14.4342 
        1.14131         39.2264         14.2566 
        1.14745         38.8063          14.082 
        1.15359         38.6737         13.9103 
        1.15973         38.2344         13.7415 
        1.16584         37.9236         13.5762 
        1.17197         37.9543         13.4135 
        1.17811         37.4851         13.2529 
        1.18424         37.1693         13.0955 
        1.19038         37.1395         12.9401 
        1.19652         36.8946         12.7874 
        1.20267         36.6331         12.6371 
        1.20881         36.3728         12.4893 
        1.21495         36.1104         12.3441 
        1.22108         35.8806         12.2013 
         1.2272         35.5033         12.0611 
        1.23334         35.4005         11.9227 
        1.23949          35.192         11.7862 
        1.24562         35.0441         11.6523 
        1.25174         34.8539         11.5206 
        1.25789         34.6166         11.3906 
        1.26402         34.4446         11.2629 
        1.27014         34.1006         11.1374 
        1.27628         33.9086         11.0135 
        1.28244         33.7537         10.8912 
        1.28858         33.6177          10.771 
        1.29471         33.3894         10.6528 
        1.30084         33.1821         10.5366 
        1.30697         32.9392         10.4219 
        1.31312         32.6639         10.3088 
        1.31925         32.5621         10.1977 
        1.32537         32.4334         10.0883 
        1.33151         32.1709         9.98024 
        1.33765         32.1052         9.87379 
        1.34378         31.9534         9.76912 
        1.34992         31.4986          9.6659 
        1.35606         31.4391         9.56396 
         1.3622         31.2608         9.46368 
        1.36833         31.0833         9.36509 
        1.37445         31.0569         9.26796 
        1.38059         30.8619         9.17192 
        1.38675         30.5553         9.07702 
        1.39288         30.4789         8.98385 
        1.39901         30.2253         8.89204 
        1.40515         30.1081         8.80131 
         1.4113         29.9685         8.71189 
        1.41742          29.672         8.62406 
        1.42355         29.6441         8.53729 
         1.4297         29.4492         8.45145 
        1.43585         29.3968         8.36684 
        1.44198         29.0876         8.28371 
        1.44809         29.0051         8.20187 
        1.45423         28.8866         8.12085 
        1.46036         28.7817         8.04107 
        1.46649         28.5735         7.96234 
        1.47263         28.4006          7.8846 
        1.47877         28.2837         7.80794 
        1.48491         28.1172         7.73218 
        1.49104         28.0733         7.65759 
        1.49718         27.8082         7.58394 
        1.50333         27.7275         7.51114 
        1.50947         27.6186         7.43945 
         1.5156         27.4037          7.3688 
        1.52172         27.1995         7.29908 
        1.52787         27.2112         7.23013 
          1.534          26.998         7.16215 
        1.54013         26.7962         7.09512 
        1.54627         26.7592         7.02884 
        1.55241         26.5698         6.96339 
        1.55855         26.4507         6.89887 
        1.56467         26.3608         6.83536 
         1.5708         26.2435         6.77247 
        1.57695         25.9853         6.71028 
        1.58308         26.0399         6.64901 
        1.58922         25.8455         6.58848 
        1.59535         25.6795         6.52872 
         1.6015         25.5716         6.46963 
        1.60764         25.5154         6.41129 
        1.61376         25.3676         6.35385 
        1.61989          25.139         6.29706 
        1.62604         25.1259         6.24084 
        1.63218          24.944         6.18535 
        1.63831         24.8946         6.13067 
        1.64444         24.7176         6.07663 
        1.65059         24.6041         6.02311 
        1.65673         24.5253          5.9703 
        1.66285         24.3823         5.91828 
        1.66898         24.2931         5.86686 
        1.67512         24.2029         5.81595 
        1.68127         24.0197         5.76561 
         1.6874         23.9271         5.71597 
        1.69353         23.8954         5.66695 
        1.69967         23.6881          5.6184 
        1.70581         23.5823         5.57043 
        1.71193         23.4551         5.52321 
        1.71806         23.4012         5.47643 
        1.72421         23.2872         5.43011 
        1.73035         23.2106         5.38437 
        1.73649         23.0516         5.33918 
        1.74262         23.0138         5.29454 
        1.74876         22.8773         5.25039 
        1.75489         22.7724         5.20683 
        1.76101         22.6825         5.16378 
        1.76715         22.6216         5.12116 
        1.77329         22.5132         5.07897 
        1.77943         22.3809         5.03724 
        1.78557         22.2872         4.99605 
        1.79171         22.2281          4.9553 
        1.79785         22.0796         4.91501 
        1.80399         21.9945         4.87518 
        1.81012         21.9302         4.83584 
        1.81625         21.8149         4.79695 
        1.82239         21.7629         4.75844 
        1.82853         21.5827         4.72037 
        1.83466         21.5054         4.68275 
        1.84078         21.3579         4.64559 
        1.84692         21.3554         4.60877 
        1.85306         21.2179         4.57231 
         1.8592         21.1604          4.5363 
        1.86533          21.063          4.5007 
        1.87147         20.9672         4.46544 
        1.87761         20.9294         4.43054 
        1.88375         20.7642         4.39607 
        1.88988         20.7403         4.36199 
        1.89601         20.6233         4.32826 
        1.90215         20.5231         4.29487 
        1.90829         20.4814         4.26184 
        1.91442         20.3692         4.22916 
        1.92056         20.2971         4.19685 
         1.9267         20.2234         4.16485 
        1.93284         20.1038         4.13316 
        1.93897         20.0326         4.10186 
        1.94509         19.9565         4.07096 
        1.95123         19.8551          4.0403 
        1.95737         19.7678         4.00993 
        1.96349         19.7009         3.97995 
        1.96964         19.6067          3.9502 
        1.97578         19.5526         3.92073 
        1.98192          19.422         3.89163 
        1.98805         19.3843         3.86282 
        1.99419         19.2876          3.8343 
        2.00033         19.2123         3.80606 
        2.00647         19.1619         3.77811 
         2.0126         19.0024         3.75049 
        2.01874         18.9593          3.7231 
        2.02488         18.8897         3.69596 
        2.03101         18.8723         3.66915 
        2.03714         18.7615         3.64262 
        2.04328          18.654         3.61634 
        2.04941         18.5804         3.59033 
        2.05554         18.5741          3.5646 
        2.06167         18.4783         3.53908 
        2.06781         18.3952         3.51381 
        2.07396         18.3184         3.48876 
        2.08009         18.2493         3.46399 
        2.08622         18.1675         3.43949 
        2.09237         18.1039         3.41519 
        2.09851          18.015         3.39111 
        2.10464         17.9513         3.36731 
        2.11077         17.8722         3.34376 
        2.11691         17.8231         3.32039 
        2.12305         17.7187         3.29724 
        2.12918          17.662         3.27437 
        2.13531         17.6094         3.25171 
        2.14145         17.5162         3.22922 
         2.1476         17.4607         3.20691 
        2.15372         17.4095         3.18493 
        2.15985         17.2993         3.16313 
        2.16599         17.2682         3.14147 
        2.17213         17.2179         3.12004 
        2.17827         17.1501         3.09882 
         2.1844         17.0785         3.07781 
        2.19054         16.9908         3.05699 
        2.19666         16.9463          3.0364 
         2.2028         16.8853         3.01597 
        2.20893         16.7971         2.99573 
        2.21508         16.7533         2.97565 
        2.22122         16.6541         2.95574 
        2.22736         16.5969         2.93607 
        2.23349         16.5289         2.91657 
        2.23962         16.4854         2.89724 
        2.24577         16.4005         2.87807 
         2.2519         16.3731         2.85911 
        2.25802         16.3108         2.84034 
        2.26417         16.2477         2.82169 
        2.27031         16.1863         2.80319 
        2.27644         16.1177         2.78491 
        2.28257         16.0579          2.7668 
        2.28872         15.9863         2.74881 
        2.29486         15.9632         2.73099 
        2.30099         15.8924         2.71336 
        2.30712         15.8378         2.69588 
        2.31326         15.7804         2.67852 
         2.3194         15.6796         2.66133 
        2.32553         15.6585         2.64432 
        2.33166         15.5497         2.62746 
         2.3378         15.5233         2.61073 
        2.34394         15.4509         2.59414 
        2.35007         15.3801         2.57772 
        2.35619         15.3426         2.56146 
        2.36233         15.2799         2.54531 
        2.36848         15.2596         2.52925 
        2.37462         15.2119         2.51338 
        2.38075         15.1206         2.49765 
        2.38689         15.0817         2.48205 
        2.39303         15.0282         2.46658 
        2.39916          14.964         2.45126 
        2.40529         14.9198         2.43607 
        2.41143         14.8544           2.421 
        2.41757         14.8217         2.40605 
         2.4237         14.7335         2.39126 
        2.42983         14.7025         2.37659 
        2.43598         14.6463           2.362 
        2.44211         14.5682         2.34757 
        2.44823         14.5245         2.33328 
        2.45437         14.5015         2.31908 
        2.46052         14.4522         2.30498 
        2.46665         14.3718         2.29103 
        2.47279         14.3301         2.27719 
        2.47892         14.2757         2.26346 
        2.48507         14.2378         2.24983 
         2.4912         14.1923         2.23634 
