# k  (h/Mpc)    P(k)  (Mpc/h)^3    P_linear(k)  (Mpc/h)^3
     0.00783031         533.322         538.729 
       0.013688         648.252         654.495 
       0.019231         647.422         649.847 
      0.0249154         586.054         586.145 
      0.0312784         491.212         491.079 
      0.0375637         403.801         403.815 
      0.0433917         342.557          341.44 
      0.0492413          298.55         298.297 
      0.0555754         270.195         268.959 
      0.0619321         249.174         250.204 
       0.067871         235.826         235.718 
      0.0738098         219.708         219.655 
      0.0800417         199.619         199.206 
      0.0862327         176.256         176.198 
      0.0921407         154.434         154.222 
      0.0982031         134.956         134.271 
       0.104506         118.186         118.107 
       0.110769         107.247         107.056 
       0.116806         100.999          100.37 
       0.122832         96.3674         96.1889 
       0.129052         93.2342         92.8258 
       0.135211         89.5539         89.0259 
       0.141259         84.2977         84.0639 
       0.147318         77.8398         77.8477 
       0.153489         71.1027         70.8256 
       0.159709         64.4028         63.9207 
       0.165845          58.135         58.0329 
       0.171974           54.14         53.4793 
       0.178125         50.8461         50.2688 
       0.184229         48.5395         48.1537 
        0.19034         47.2629         46.6569 
       0.196428          45.799          45.306 
       0.202534         43.8672         43.7136 
       0.208729         42.0946         41.6653 
       0.214876          39.811         39.2356 
       0.220989         36.9672         36.6261 
       0.227147         34.7294         34.0678 
        0.23329         32.5243         31.8121 
       0.239377         30.7557         29.9937 
       0.245482           29.33         28.5985 
       0.251667         28.0991         27.5385 
       0.257832         27.4376         26.6911 
       0.263955         26.4662         25.9067 
       0.270079         25.6072         25.0602 
        0.27624         24.5444         24.0864 
       0.282372         23.4886         23.0048 
        0.28843         22.5534         21.8796 
       0.294538         21.4103         20.7676 
       0.300721         20.2784         19.7358 
        0.30691         19.5452         18.8434 
       0.313033         18.7573         18.1071 
       0.319153         18.2804         17.4945 
       0.325316         17.5421           16.96 
        0.33145         17.0084         16.4629 
       0.337538         16.5436         15.9643 
       0.343633         16.0796         15.4403 
       0.349808          15.467         14.8803 
       0.355968         14.8916         14.3087 
       0.362074         14.4173         13.7504 
       0.368217         13.8619         13.2209 
       0.374374         13.4576         12.7375 
       0.380519         12.9347         12.3072 
       0.386598         12.5158         11.9292 
       0.392688          12.148         11.5847 
        0.39888          11.859         11.2561 
       0.405048         11.5551          10.937 
       0.411186         11.2184         10.6179 
       0.417313         10.8939         10.2971 
       0.423458          10.519         9.97456 
       0.429607         10.2769          9.6572 
       0.435692         10.0012         9.35597 
       0.441815         9.65502         9.07032 
       0.447964         9.35165          8.8031 
       0.454126         9.14988         8.55564 
       0.460267         8.97013         8.32543 
       0.466387         8.71595         8.10757 
        0.47254         8.52755         7.89626 
       0.478662         8.29258         7.69087 
       0.484765          8.0935         7.48859 
       0.490885         7.85812         7.28842 
       0.497035         7.64077         7.09184 
       0.503198         7.48483         6.90122 
       0.509342         7.26537         6.71873 
       0.515458         7.12165         6.54549 
       0.521598         6.95826         6.38068 
       0.527764         6.82428         6.22345 
       0.533884         6.61662           6.074 
           0.54         6.49534         5.92979 
       0.546137         6.31812         5.78927 
       0.552299         6.18958         5.65186 
       0.558452         6.04773         5.51792 
       0.564573         5.93319          5.3877 
       0.570708         5.80277         5.26073 
       0.576825         5.67803         5.13824 
       0.582926         5.54508         5.02064 
       0.589034         5.44386         4.90742 
       0.595184         5.35241         4.79759 
       0.601379          5.2171         4.69083 
       0.607522         5.10403          4.5884 
       0.613639         4.98931         4.48952 
       0.619772         4.91199         4.39323 
       0.625918         4.81142         4.29935 
       0.632068         4.72412          4.2078 
       0.638161         4.62966         4.11942 
         0.6443         4.53355          4.0328 
       0.650464         4.43837          3.9484 
       0.656582         4.38198         3.86721 
       0.662703         4.29797          3.7886 
       0.668861         4.18957         3.71195 
       0.675024         4.11602         3.63751 
       0.681124         4.09223         3.56591 
       0.687237         3.99289         3.49603 
       0.693381         3.89352          3.4276 
       0.699536         3.85616         3.36081 
       0.705665         3.78438         3.29605 
       0.711789         3.70015         3.23305 
       0.717957           3.634          3.1713 
        0.72409         3.57936         3.11156 
       0.730186         3.54076         3.05378 
       0.736317         3.45867         2.99719 
       0.742472         3.41438         2.94186 
       0.748622         3.36181           2.888 
        0.75476         3.28218         2.83561 
       0.760888         3.24687         2.78459 
       0.767043         3.16305         2.73463 
       0.773185         3.12699         2.68601 
       0.779291         3.10023         2.63885 
       0.785407          3.0391         2.59277 
       0.791564         2.98982         2.54751 
       0.797719         2.93963         2.50338 
       0.803834         2.89743         2.46059 
       0.809972         2.84981         2.41866 
       0.816124         2.81004         2.37763 
       0.822261         2.76746         2.33768 
       0.828378         2.72321         2.29878 
       0.834502         2.68214         2.26074 
       0.840667         2.65087         2.22331 
       0.846816         2.60283         2.18684 
       0.852925         2.56281         2.15143 
       0.859047         2.52616         2.11673 
       0.865192         2.49146         2.08268 
       0.871341         2.45864         2.04937 
       0.877463         2.41527         2.01694 
       0.883569         2.38558          1.9853 
       0.889708         2.35684         1.95419 
       0.895864         2.32398         1.92366 
       0.902008         2.28374         1.89387 
       0.908149          2.2553         1.86472 
       0.914301         2.22858         1.83615 
       0.920448         2.20198         1.80821 
       0.926574         2.17976         1.78095 
       0.932687         2.14541         1.75432 
       0.938823          2.1054         1.72814 
       0.944975         2.08806         1.70244 
       0.951105         2.04687         1.67736 
       0.957225         2.02862         1.65284 
       0.963368         2.00604         1.62872 
       0.969511         1.98248         1.60509 
       0.975621         1.95124         1.58206 
       0.981748         1.91646         1.55942 
       0.987916         1.89812         1.53709 
        0.99406         1.88116         1.51529 
        1.00019         1.85528         1.49395 
        1.00632         1.83777         1.47305 
        1.01246         1.81104         1.45252 
        1.01859          1.7905         1.43242 
        1.02471         1.76039         1.41272 
        1.03085          1.7408         1.39333 
        1.03698          1.7245         1.37435 
        1.04314           1.704         1.35565 
        1.04929         1.68661         1.33734 
        1.05541         1.65876         1.31945 
        1.06154         1.64601         1.30184 
        1.06769         1.62957         1.28453 
        1.07382         1.60615         1.26759 
        1.07993         1.58592           1.251 
        1.08607         1.57186         1.23464 
        1.09222         1.54928         1.21855 
        1.09836         1.53893         1.20278 
        1.10449         1.51218          1.1873 
        1.11063         1.49646         1.17208 
        1.11677         1.48379         1.15714 
         1.1229         1.46148         1.14248 
        1.12903         1.45185         1.12806 
        1.13518         1.43146         1.11389 
        1.14131         1.41864         1.09997 
        1.14745         1.40392         1.08629 
        1.15359         1.38719         1.07285 
        1.15973         1.37219         1.05962 
        1.16584         1.35623         1.04669 
        1.17197         1.34016         1.03395 
        1.17811         1.32597         1.02138 
        1.18424         1.31217         1.00907 
        1.19038         1.29752        0.996916 
        1.19652         1.28747        0.984973 
        1.20267         1.27671        0.973227 
        1.20881         1.25875        0.961676 
        1.21495         1.24748        0.950332 
        1.22108         1.23611        0.939175 
         1.2272         1.21833        0.928223 
        1.23334         1.20948        0.917423 
        1.23949         1.19796         0.90677 
        1.24562          1.1859        0.896317 
        1.25174         1.17522        0.886045 
        1.25789         1.15943        0.875904 
        1.26402         1.14816        0.865942 
        1.27014         1.13462        0.856159 
        1.27628          1.1275        0.846499 
        1.28244         1.11628        0.836971 
        1.28858          1.1031        0.827604 
        1.29471         1.09185        0.818401 
        1.30084         1.08374        0.809348 
        1.30697         1.07569        0.800419 
        1.31312         1.06411        0.791612 
        1.31925         1.05374        0.782967 
        1.32537         1.04505         0.77446 
        1.33151         1.03319         0.76605 
        1.33765         1.02425        0.757769 
        1.34378         1.01375        0.749629 
        1.34992         1.00706        0.741602 
        1.35606        0.995368        0.733677 
         1.3622        0.987909        0.725881 
        1.36833        0.978522        0.718219 
        1.37445        0.969105        0.710671 
        1.38059         0.96087        0.703209 
        1.38675        0.951423        0.695837 
        1.39288        0.943377        0.688601 
        1.39901        0.934736        0.681471 
        1.40515        0.925839        0.674427 
         1.4113        0.921284        0.667485 
        1.41742        0.909792        0.660669 
        1.42355        0.899939        0.653935 
         1.4297        0.895383        0.647275 
        1.43585        0.885996        0.640711 
        1.44198        0.879474        0.634264 
        1.44809         0.87112        0.627918 
        1.45423        0.864484        0.621635 
        1.46036        0.856953        0.615451 
        1.46649        0.847867        0.609349 
        1.47263        0.841962        0.603325 
        1.47877        0.838428        0.597386 
        1.48491        0.826029        0.591517 
        1.49104        0.822351        0.585741 
        1.49718        0.813149        0.580038 
        1.50333        0.807626        0.574402 
        1.50947        0.802394        0.568852 
         1.5156        0.794791        0.563385 
        1.52172        0.788786         0.55799 
        1.52787        0.780613        0.552655 
          1.534        0.776783        0.547396 
        1.54013        0.769636        0.542212 
        1.54627        0.763501        0.537086 
        1.55241         0.75612        0.532026 
        1.55855        0.750996        0.527038 
        1.56467        0.744579        0.522128 
         1.5708        0.738705        0.517267 
        1.57695         0.73212        0.512461 
        1.58308        0.725096        0.507727 
        1.58922        0.721832         0.50305 
        1.59535        0.714462        0.498434 
         1.6015        0.708794         0.49387 
        1.60764        0.703927        0.489366 
        1.61376        0.698211         0.48493 
        1.61989        0.693274        0.480546 
        1.62604        0.685894        0.476206 
        1.63218        0.683511        0.471923 
        1.63831        0.676607        0.467703 
        1.64444        0.672193        0.463533 
        1.65059        0.666885        0.459404 
        1.65673        0.661098         0.45533 
        1.66285        0.657044        0.451318 
        1.66898        0.652652        0.447352 
        1.67512        0.645598        0.443426 
        1.68127        0.640994        0.439544 
         1.6874        0.638219        0.435718 
        1.69353        0.632046        0.431939 
        1.69967        0.628292        0.428196 
        1.70581        0.624638          0.4245 
        1.71193        0.619108        0.420861 
        1.71806        0.615217        0.417258 
        1.72421        0.610386         0.41369 
        1.73035        0.603881        0.410167 
        1.73649        0.603192        0.406687 
        1.74262        0.596115         0.40325 
        1.74876        0.592766         0.39985 
        1.75489        0.589215        0.396497 
        1.76101        0.583363        0.393184 
        1.76715        0.580184        0.389904 
        1.77329        0.576436        0.386657 
        1.77943        0.571911        0.383446 
        1.78557        0.569718        0.380277 
        1.79171        0.565055        0.377143 
        1.79785        0.560735        0.374044 
        1.80399        0.555176         0.37098 
        1.81012        0.553052        0.367955 
        1.81625        0.549314        0.364965 
        1.82239        0.546061        0.362004 
        1.82853        0.541351        0.359078 
        1.83466        0.537282        0.356186 
        1.84078        0.533358         0.35333 
        1.84692        0.530703        0.350501 
        1.85306        0.527843        0.347699 
         1.8592        0.523153        0.344932 
        1.86533        0.520508        0.342198 
        1.87147        0.515297        0.339489 
        1.87761        0.512738        0.336809 
        1.88375        0.509418        0.334162 
        1.88988        0.505148        0.331545 
        1.89601        0.501652        0.328955 
        1.90215        0.499549        0.326391 
        1.90829        0.495426        0.323856 
        1.91442        0.492851        0.321348 
        1.92056        0.490534        0.318868 
         1.9267        0.486159        0.316412 
        1.93284        0.482611         0.31398 
        1.93897        0.480193        0.311579 
        1.94509        0.477773        0.309208 
        1.95123        0.473184        0.306856 
        1.95737        0.470545        0.304527 
        1.96349        0.467458        0.302228 
        1.96964        0.465043        0.299946 
        1.97578        0.461208        0.297686 
        1.98192        0.459151        0.295455 
        1.98805        0.456379        0.293246 
        1.99419        0.453908         0.29106 
        2.00033        0.450956        0.288896 
        2.00647        0.448363        0.286753 
         2.0126        0.445416        0.284637 
        2.01874        0.442706        0.282538 
        2.02488        0.439276        0.280459 
        2.03101        0.436683        0.278405 
        2.03714        0.435255        0.276373 
        2.04328        0.431186         0.27436 
        2.04941        0.429277        0.272368 
        2.05554        0.426634        0.270397 
        2.06167        0.424007        0.268443 
        2.06781        0.420181        0.266509 
        2.07396        0.419362         0.26459 
        2.08009        0.416133        0.262694 
        2.08622        0.413919        0.260819 
        2.09237        0.411609        0.258958 
        2.09851        0.408288        0.257116 
        2.10464        0.406555        0.255294 
        2.11077        0.402735        0.253492 
        2.11691        0.401262        0.251704 
        2.12305         0.39966        0.249933 
        2.12918        0.396533        0.248183 
        2.13531        0.394381         0.24645 
        2.14145        0.391921         0.24473 
         2.1476        0.390061        0.243024 
        2.15372        0.387894        0.241342 
        2.15985        0.384887        0.239676 
        2.16599        0.383422         0.23802 
        2.17213        0.381211        0.236382 
        2.17827         0.37814        0.234759 
         2.1844        0.377134        0.233153 
        2.19054        0.374939        0.231562 
        2.19666        0.372743        0.229988 
         2.2028        0.369879        0.228427 
        2.20893        0.368636         0.22688 
        2.21508        0.366425        0.225346 
        2.22122        0.364686        0.223825 
        2.22736        0.361253        0.222322 
        2.23349         0.35913        0.220832 
        2.23962         0.35797        0.219356 
        2.24577        0.355976        0.217892 
         2.2519        0.354284        0.216443 
        2.25802        0.352204         0.21501 
        2.26417         0.34997        0.213586 
        2.27031        0.348241        0.212173 
        2.27644        0.347442        0.210778 
        2.28257        0.344218        0.209395 
        2.28872        0.342938        0.208022 
        2.29486        0.340754        0.206661 
        2.30099        0.338969        0.205316 
        2.30712        0.337069        0.203982 
        2.31326        0.335273        0.202657 
         2.3194        0.333922        0.201345 
        2.32553        0.331756        0.200047 
        2.33166        0.330562        0.198761 
         2.3378        0.328414        0.197485 
        2.34394        0.326766        0.196219 
        2.35007        0.324563        0.194967 
        2.35619        0.322422        0.193727 
        2.36233        0.321373        0.192494 
        2.36848        0.319941         0.19127 
        2.37462        0.318552        0.190059 
        2.38075         0.31651         0.18886 
        2.38689        0.315241         0.18767 
        2.39303        0.313396        0.186491 
        2.39916        0.311513        0.185323 
        2.40529        0.310351        0.184165 
        2.41143        0.308194        0.183016 
        2.41757        0.306764        0.181877 
         2.4237         0.30537        0.180749 
        2.42983        0.303871        0.179631 
        2.43598         0.30237         0.17852 
        2.44211        0.300155         0.17742 
        2.44823        0.299453        0.176331 
        2.45437        0.298145        0.175249 
        2.46052        0.296399        0.174175 
        2.46665         0.29467        0.173112 
        2.47279        0.293237        0.172058 
        2.47892        0.292039        0.171013 
        2.48507        0.290629        0.169975 
         2.4912        0.289107        0.168947 
