# k  (h/Mpc)    Pcb(k)  (Mpc/h)^3    Pcb_linear(k)  (Mpc/h)^3
     0.00783031         12518.7         12593.8 
       0.013688         14941.8           15298 
       0.019231           14987         15188.2 
      0.0249154         13737.7         13698.6 
      0.0312784           11396         11476.5 
      0.0375637         9315.18         9436.86 
      0.0433917         7967.13         7979.07 
      0.0492413         6914.42         6970.77 
      0.0555754          6291.5         6285.12 
      0.0619321         5680.86         5846.82 
       0.067871         5429.47         5508.26 
      0.0738098         5089.79         5132.88 
      0.0800417         4632.47            4655 
      0.0862327         4084.62         4117.35 
      0.0921407         3612.67          3603.8 
      0.0982031         3207.62          3137.6 
       0.104506         2797.64         2759.87 
       0.110769         2562.78         2501.63 
       0.116806         2444.23         2345.41 
       0.122832         2312.41         2247.69 
       0.129052         2218.21          2169.1 
       0.135211         2161.73          2080.3 
       0.141259          2010.5         1964.36 
       0.147318         1852.67          1819.1 
       0.153489         1716.87         1655.01 
       0.159709          1609.9         1493.66 
       0.165845         1449.87         1356.07 
       0.171974         1397.31         1249.67 
       0.178125          1334.1         1174.64 
       0.184229         1239.03         1125.22 
        0.19034          1221.5         1090.24 
       0.196428         1188.67         1058.68 
       0.202534         1114.85         1021.46 
       0.208729         1095.07         973.599 
       0.214876         1042.58         916.829 
       0.220989         975.354         855.851 
       0.227147          943.54          796.07 
        0.23329          899.78         743.362 
       0.239377          885.19         700.872 
       0.245482         837.599         668.273 
       0.251667         806.793         643.498 
       0.257832         796.263         623.697 
       0.263955         756.604         605.366 
       0.270079         731.672         585.584 
        0.27624         701.844         562.831 
       0.282372         687.785         537.556 
        0.28843         679.196         511.266 
       0.294538         643.229         485.281 
       0.300721         625.131          461.17 
        0.30691         612.251         440.317 
       0.313033         584.381         423.111 
       0.319153         576.033         408.799 
       0.325316         566.582         396.308 
        0.33145         553.214          384.69 
       0.337538         533.301         373.042 
       0.343633         518.867         360.796 
       0.349808          505.91          347.71 
       0.355968         496.472         334.354 
       0.362074         478.765         321.307 
       0.368217         476.231         308.937 
       0.374374         467.153          297.64 
       0.380519         448.183         287.585 
       0.386598         443.614         278.751 
       0.392688         432.524         270.702 
        0.39888         421.691         263.024 
       0.405048         413.129         255.566 
       0.411186         411.954         248.111 
       0.417313         406.436         240.615 
       0.423458         394.841         233.077 
       0.429607         383.678         225.662 
       0.435692         378.245         218.622 
       0.441815         371.195         211.948 
       0.447964         363.536         205.704 
       0.454126         359.261         199.921 
       0.460267         353.446         194.542 
       0.466387          346.45         189.451 
        0.47254         341.925         184.513 
       0.478662         334.288         179.714 
       0.484765         330.105         174.987 
       0.490885         326.339          170.31 
       0.497035         319.941         165.716 
       0.503198         319.271         161.262 
       0.509342         311.559         156.997 
       0.515458         306.337          152.95 
       0.521598         301.399         149.098 
       0.527764         297.216         145.424 
       0.533884         295.313         141.932 
           0.54         290.946         138.562 
       0.546137         284.634         135.279 
       0.552299         283.405         132.068 
       0.558452         278.537         128.938 
       0.564573         276.788         125.895 
       0.570708         271.701         122.928 
       0.576825         267.254         120.066 
       0.582926         265.353         117.318 
       0.589034         260.994         114.672 
       0.595184         259.268         112.106 
       0.601379         255.198         109.611 
       0.607522         249.733         107.218 
       0.613639          248.84         104.907 
       0.619772         247.462         102.657 
       0.625918         243.631         100.463 
       0.632068         240.087         98.3243 
       0.638161         238.883         96.2591 
         0.6443         235.834          94.235 
       0.650464         232.358         92.2628 
       0.656582         230.281         90.3657 
       0.662703          228.97         88.5286 
       0.668861         224.419         86.7378 
       0.675024         223.796         84.9983 
       0.681124         220.864          83.325 
       0.687237         219.172         81.6922 
       0.693381         215.869         80.0932 
       0.699536         214.617         78.5325 
       0.705665         212.457         77.0192 
       0.711789         210.131         75.5471 
       0.717957         208.133         74.1042 
        0.72409         205.369         72.7082 
       0.730186         206.571          71.358 
       0.736317         203.147         70.0357 
       0.742472         200.738         68.7428 
       0.748622         198.283         67.4842 
        0.75476           198.5           66.26 
       0.760888         195.901         65.0679 
       0.767043           193.1         63.9005 
       0.773185         191.684         62.7643 
       0.779291         189.552         61.6623 
       0.785407         188.711         60.5855 
       0.791564          186.98          59.528 
       0.797719         183.924         58.4967 
       0.803834         185.023         57.4968 
       0.809972         182.806         56.5171 
       0.816124         179.807         55.5585 
       0.822261         178.765         54.6249 
       0.828378         178.331         53.7159 
       0.834502         176.109         52.8269 
       0.840667         176.026         51.9524 
       0.846816         172.893         51.1003 
       0.852925         172.322         50.2727 
       0.859047         170.696         49.4618 
       0.865192         170.299         48.6663 
       0.871341         168.263         47.8878 
       0.877463         166.682         47.1301 
       0.883569         166.584         46.3908 
       0.889708         164.936         45.6637 
       0.895864         163.361         44.9505 
       0.902008         161.893         44.2542 
       0.908149         160.423         43.5731 
       0.914301          159.51         42.9055 
       0.920448         159.308         42.2526 
       0.926574         157.123         41.6157 
       0.932687         156.914         40.9934 
       0.938823         155.631         40.3817 
       0.944975         154.771         39.7812 
       0.951105         153.185         39.1952 
       0.957225          152.29          38.622 
       0.963368         151.423         38.0585 
       0.969511         149.745         37.5063 
       0.975621         148.272         36.9681 
       0.981748         147.789         36.4392 
       0.987916         146.944         35.9174 
        0.99406          145.99         35.4078 
        1.00019         145.104         34.9093 
        1.00632         144.019         34.4208 
        1.01246         143.148         33.9411 
        1.01859         142.112         33.4714 
        1.02471         141.119         33.0112 
        1.03085         140.169         32.5582 
        1.03698         139.201         32.1147 
        1.04314         138.792         31.6776 
        1.04929         138.101         31.2498 
        1.05541         137.296         30.8316 
        1.06154         135.853         30.4202 
        1.06769         135.223         30.0156 
        1.07382         134.516         29.6199 
        1.07993         133.492         29.2322 
        1.08607          132.96         28.8499 
        1.09222         131.762          28.474 
        1.09836         131.099         28.1054 
        1.10449          130.23         27.7438 
        1.11063         129.376         27.3881 
        1.11677         128.806         27.0389 
         1.1229         127.677         26.6964 
        1.12903         126.889         26.3596 
        1.13518         126.108         26.0283 
        1.14131         125.683          25.703 
        1.14745         124.851         25.3834 
        1.15359         123.709         25.0693 
        1.15973         123.344         24.7603 
        1.16584         122.491          24.458 
        1.17197         121.965         24.1604 
        1.17811         120.915         23.8668 
        1.18424         120.449         23.5789 
        1.19038         119.768          23.295 
        1.19652         119.108         23.0159 
        1.20267         118.268         22.7415 
        1.20881         117.397         22.4716 
        1.21495         117.095         22.2065 
        1.22108         116.298         21.9458 
         1.2272         115.602         21.6899 
        1.23334         115.188         21.4375 
        1.23949         114.569         21.1886 
        1.24562         113.706         20.9443 
        1.25174          113.45         20.7043 
        1.25789          112.39         20.4673 
        1.26402         112.096         20.2345 
        1.27014         111.303         20.0059 
        1.27628         110.568         19.7802 
        1.28244         110.276         19.5576 
        1.28858         109.416         19.3387 
        1.29471          108.74         19.1236 
        1.30084         108.017         18.9121 
        1.30697         107.511         18.7034 
        1.31312         106.924         18.4977 
        1.31925         106.202         18.2956 
        1.32537         105.764         18.0969 
        1.33151         105.594         17.9003 
        1.33765         104.676         17.7068 
        1.34378          104.39         17.5166 
        1.34992         103.826         17.3291 
        1.35606         103.283         17.1439 
         1.3622         102.942         16.9617 
        1.36833         101.939         16.7827 
        1.37445         101.771         16.6063 
        1.38059         101.149         16.4319 
        1.38675         100.472         16.2597 
        1.39288         99.8786         16.0906 
        1.39901         99.4192          15.924 
        1.40515         98.9766         15.7594 
         1.4113         98.3984         15.5972 
        1.41742         97.9818         15.4379 
        1.42355         97.6297         15.2805 
         1.4297         96.8957         15.1249 
        1.43585         96.5298         14.9715 
        1.44198         95.6856         14.8209 
        1.44809         95.2275         14.6726 
        1.45423         95.2365         14.5258 
        1.46036         94.2777         14.3813 
        1.46649         93.8027         14.2387 
        1.47263         93.2607         14.0979 
        1.47877         92.9122         13.9591 
        1.48491         92.5164          13.822 
        1.49104         91.7018          13.687 
        1.49718         91.3975         13.5538 
        1.50333         91.0763         13.4221 
        1.50947         90.6559         13.2924 
         1.5156          90.299         13.1646 
        1.52172         89.4846         13.0386 
        1.52787          89.254         12.9139 
          1.534         88.7793          12.791 
        1.54013         88.3919         12.6699 
        1.54627           87.68         12.5501 
        1.55241         87.6279         12.4319 
        1.55855         86.8044         12.3153 
        1.56467         86.3163         12.2006 
         1.5708         85.8074          12.087 
        1.57695         85.6466         11.9747 
        1.58308         85.1377         11.8641 
        1.58922         84.9724         11.7548 
        1.59535         84.7375         11.6469 
         1.6015         83.9856         11.5403 
        1.60764         83.5341          11.435 
        1.61376         83.2914         11.3314 
        1.61989         82.7222         11.2289 
        1.62604          82.382         11.1275 
        1.63218         82.0089         11.0274 
        1.63831         81.6477         10.9288 
        1.64444         81.0981         10.8314 
        1.65059         80.7211         10.7349 
        1.65673         80.5437         10.6397 
        1.66285         79.9772         10.5459 
        1.66898         79.4004         10.4533 
        1.67512         79.0436         10.3615 
        1.68127         78.8704         10.2708 
         1.6874         78.3008         10.1814 
        1.69353         77.9242         10.0931 
        1.69967         77.5661         10.0057 
        1.70581         77.2964          9.9193 
        1.71193         76.8262         9.83427 
        1.71806          76.585         9.75007 
        1.72421         76.1212         9.66669 
        1.73035         75.7655         9.58438 
        1.73649         75.3338         9.50305 
        1.74262         74.9962         9.42274 
        1.74876          74.614          9.3433 
        1.75489          74.296         9.26495 
        1.76101         73.9638         9.18752 
        1.76715         73.5515         9.11088 
        1.77329         73.1525         9.03502 
        1.77943         73.0139         8.95999 
        1.78557         72.6233         8.88593 
        1.79171         72.0651          8.8127 
        1.79785         71.7214         8.74028 
        1.80399         71.6499         8.66869 
        1.81012         71.0878           8.598 
        1.81625         70.7577         8.52814 
        1.82239         70.3931         8.45895 
        1.82853          70.065         8.39056 
        1.83466         69.6645           8.323 
        1.84078         69.4545         8.25626 
        1.84692         69.3264         8.19015 
        1.85306         68.9849         8.12468 
         1.8592         68.5791         8.06003 
        1.86533         68.1479         7.99613 
        1.87147         67.8385         7.93284 
        1.87761         67.3145         7.87022 
        1.88375         67.2764         7.80835 
        1.88988         66.7136         7.74721 
        1.89601          66.709          7.6867 
        1.90215         66.1661         7.62678 
        1.90829         65.8634         7.56754 
        1.91442         65.5122         7.50892 
        1.92056         65.3848         7.45098 
         1.9267          64.973         7.39359 
        1.93284         64.7667         7.33677 
        1.93897         64.3336         7.28066 
        1.94509         64.0625         7.22526 
        1.95123         63.8089          7.1703 
        1.95737         63.5589         7.11587 
        1.96349         63.2898         7.06214 
        1.96964         62.9441         7.00882 
        1.97578         62.5946         6.95603 
        1.98192         62.2021         6.90389 
        1.98805         61.7704         6.85228 
        1.99419         61.8401          6.8012 
        2.00033         61.3081         6.75061 
        2.00647         61.0809         6.70056 
         2.0126         60.8516          6.6511 
        2.01874         60.7369         6.60206 
        2.02488         60.4277         6.55348 
        2.03101         60.0192         6.50548 
        2.03714         59.7601           6.458 
        2.04328         59.5084         6.41095 
        2.04941         59.0827          6.3644 
        2.05554         58.9173         6.31835 
        2.06167         58.6126          6.2727 
        2.06781         58.3864         6.22749 
        2.07396         58.1033         6.18267 
        2.08009         57.8514         6.13836 
        2.08622         57.5915         6.09454 
        2.09237         57.3284         6.05106 
        2.09851         56.8854         6.00801 
        2.10464         56.7053         5.96544 
        2.11077         56.5584         5.92334 
        2.11691         56.2531         5.88155 
        2.12305         55.9479         5.84016 
        2.12918         55.6429         5.79928 
        2.13531         55.4718         5.75878 
        2.14145         55.1364         5.71858 
         2.1476          55.082         5.67872 
        2.15372         54.6779         5.63943 
        2.15985         54.4279         5.60048 
        2.16599         54.2042         5.56179 
        2.17213         53.9146         5.52351 
        2.17827          53.655          5.4856 
         2.1844         53.3239         5.44808 
        2.19054         53.3091         5.41089 
        2.19666         53.0589         5.37411 
         2.2028         52.6709         5.33764 
        2.20893         52.4094         5.30149 
        2.21508         52.1197         5.26564 
        2.22122         51.8857          5.2301 
        2.22736         51.6985         5.19497 
        2.23349         51.4808         5.16017 
        2.23962         51.3114         5.12567 
        2.24577         51.0456         5.09146 
         2.2519          50.754         5.05761 
        2.25802         50.5435         5.02412 
        2.26417         50.2792         4.99084 
        2.27031         50.1346         4.95783 
        2.27644         49.8869         4.92522 
        2.28257         49.6247         4.89291 
        2.28872         49.4475         4.86082 
        2.29486         49.2236         4.82903 
        2.30099         48.8589         4.79759 
        2.30712         48.7527         4.76642 
        2.31326         48.5716         4.73547 
         2.3194         48.3227         4.70482 
        2.32553         48.0897         4.67449 
        2.33166         47.8772         4.64444 
         2.3378         47.6208         4.61461 
        2.34394         47.4258         4.58504 
        2.35007         47.2266         4.55577 
        2.35619         47.0252         4.52679 
        2.36233         46.8255         4.49799 
        2.36848         46.5881         4.46939 
        2.37462         46.2875         4.44109 
        2.38075         46.1788         4.41307 
        2.38689         45.9274         4.38527 
        2.39303         45.7847         4.35771 
        2.39916         45.5212         4.33042 
        2.40529         45.3814         4.30337 
        2.41143         45.1759         4.27652 
        2.41757         44.9769          4.2499 
         2.4237         44.7787         4.22355 
        2.42983          44.587         4.19742 
        2.43598         44.3803         4.17145 
        2.44211         44.0745         4.14575 
        2.44823         44.0218         4.12031 
        2.45437         43.7465         4.09503 
        2.46052         43.4636         4.06993 
        2.46665         43.3257         4.04509 
        2.47279         43.1258         4.02046 
        2.47892          42.978         3.99603 
        2.48507         42.8143         3.97177 
         2.4912         42.5099         3.94776 
