# k  (h/Mpc)    P(k)  (Mpc/h)^3    P_linear(k)  (Mpc/h)^3
     0.00783031          657.34         664.043 
       0.013688         798.585         806.663 
       0.019231         797.671         800.902 
      0.0249154         722.337         722.376 
      0.0312784         605.285         605.207 
      0.0375637         497.482         497.657 
      0.0433917         422.146         420.785 
      0.0492413         367.849         367.614 
      0.0555754          333.01         331.457 
      0.0619321         306.887         308.344 
       0.067871         290.578         290.491 
      0.0738098         270.743         270.695 
      0.0800417         246.023         245.494 
      0.0862327         217.191          217.14 
      0.0921407         190.312         190.057 
      0.0982031          166.37         165.471 
       0.104506         145.636          145.55 
       0.110769          132.18         131.931 
       0.116806         124.543         123.693 
       0.122832         118.782         118.539 
       0.129052          114.94         114.395 
       0.135211         110.434         109.712 
       0.141259          103.92         103.597 
       0.147318         95.9285         95.9362 
       0.153489         87.6559         87.2825 
       0.159709         79.4424         78.7732 
       0.165845         71.6723         71.5172 
       0.171974         66.8284         65.9056 
       0.178125         62.7657         61.9491 
       0.184229         59.8899         59.3426 
        0.19034         58.3411          57.498 
       0.196428         56.5316         55.8332 
       0.202534         54.0991         53.8707 
       0.208729          51.955         51.3465 
       0.214876         49.1615         48.3523 
       0.220989         45.6209         45.1364 
       0.227147         42.9118         41.9836 
        0.23329         40.2058         39.2038 
       0.239377         38.0436         36.9629 
       0.245482         36.2689         35.2436 
       0.251667         34.7377         33.9372 
       0.257832         33.9513          32.893 
       0.263955         32.7204         31.9263 
       0.270079         31.6558         30.8831 
        0.27624         30.3373          29.683 
       0.282372         29.0432         28.3501 
        0.28843         27.9219         26.9635 
       0.294538         26.5077         25.5931 
       0.300721         25.1032         24.3215 
        0.30691         24.2194         23.2218 
       0.313033         23.2392         22.3144 
       0.319153         22.6668         21.5595 
       0.325316         21.7382         20.9008 
        0.33145         21.0725         20.2882 
       0.337538         20.4989         19.6737 
       0.343633         19.9311          19.028 
       0.349808         19.1736         18.3378 
       0.355968          18.464         17.6334 
       0.362074          17.895         16.9454 
       0.368217         17.2091         16.2929 
       0.374374         16.7175         15.6971 
       0.380519         16.0592         15.1669 
       0.386598         15.5409          14.701 
       0.392688         15.0839         14.2765 
        0.39888         14.7348         13.8716 
       0.405048         14.3622         13.4783 
       0.411186         13.9443         13.0851 
       0.417313         13.5406         12.6897 
       0.423458          13.076         12.2922 
       0.429607         12.7859         11.9011 
       0.435692         12.4536         11.5299 
       0.441815         12.0134         11.1779 
       0.447964         11.6355         10.8486 
       0.454126         11.3924         10.5436 
       0.460267         11.1805         10.2599 
       0.466387         10.8605         9.99141 
        0.47254          10.634         9.73101 
       0.478662         10.3372         9.47789 
       0.484765         10.0905          9.2286 
       0.490885         9.79478         8.98193 
       0.497035         9.53166         8.73966 
       0.503198         9.33987         8.50476 
       0.509342         9.06435         8.27986 
       0.515458         8.89327         8.06637 
       0.521598         8.68995         7.86327 
       0.527764         8.52724         7.66951 
       0.533884         8.26739         7.48533 
           0.54         8.11929         7.30761 
       0.546137         7.89366         7.13443 
       0.552299         7.73612          6.9651 
       0.558452         7.55903         6.80004 
       0.564573         7.42269         6.63956 
       0.570708         7.25943         6.48308 
       0.576825         7.10655         6.33214 
       0.582926         6.94303         6.18722 
       0.589034         6.81491         6.04769 
       0.595184         6.70652         5.91234 
       0.601379         6.53471         5.78077 
       0.607522         6.39607         5.65454 
       0.613639         6.25407         5.53268 
       0.619772         6.15775         5.41402 
       0.625918         6.03189         5.29833 
       0.632068         5.92835         5.18551 
       0.638161         5.81006         5.07659 
         0.6443         5.69084         4.96985 
       0.650464           5.568         4.86583 
       0.656582         5.50358         4.76578 
       0.662703         5.40155          4.6689 
       0.668861         5.26338         4.57445 
       0.675024         5.17165         4.48271 
       0.681124         5.14756         4.39446 
       0.687237         5.02289         4.30835 
       0.693381         4.89615         4.22402 
       0.699536         4.85325         4.14171 
       0.705665         4.76279          4.0619 
       0.711789         4.65801         3.98427 
       0.717957         4.57265         3.90817 
        0.72409         4.50883         3.83455 
       0.730186         4.46387         3.76334 
       0.736317         4.35938          3.6936 
       0.742472          4.3048         3.62542 
       0.748622           4.239         3.55904 
        0.75476         4.13649         3.49448 
       0.760888         4.09517         3.43161 
       0.767043         3.99187         3.37004 
       0.773185          3.9462         3.31012 
       0.779291         3.91575           3.252 
       0.785407         3.83769         3.19521 
       0.791564         3.77779         3.13944 
       0.797719         3.71392         3.08505 
       0.803834         3.66404         3.03232 
       0.809972         3.60206         2.98065 
       0.816124         3.55385         2.93009 
       0.822261         3.50104         2.88086 
       0.828378         3.44609         2.83291 
       0.834502         3.39588         2.78603 
       0.840667         3.35742         2.73991 
       0.846816         3.29456         2.69497 
       0.852925         3.24771         2.65132 
       0.859047         3.20163         2.60856 
       0.865192         3.15776          2.5666 
       0.871341         3.11596         2.52555 
       0.877463         3.06322         2.48559 
       0.883569         3.02733          2.4466 
       0.889708         2.98968         2.40825 
       0.895864          2.9491         2.37064 
       0.902008         2.89902         2.33392 
       0.908149         2.86299           2.298 
       0.914301         2.82956         2.26279 
       0.920448         2.79663         2.22836 
       0.926574         2.77066         2.19477 
       0.932687         2.72609         2.16195 
       0.938823         2.67603         2.12969 
       0.944975         2.65576         2.09802 
       0.951105         2.60322         2.06711 
       0.957225         2.58251         2.03688 
       0.963368         2.55353         2.00716 
       0.969511         2.52359         1.97804 
       0.975621         2.48511         1.94966 
       0.981748         2.44086         1.92176 
       0.987916         2.41836         1.89424 
        0.99406          2.3983         1.86737 
        1.00019         2.36623         1.84108 
        1.00632         2.34356         1.81532 
        1.01246         2.30929         1.79002 
        1.01859         2.28355         1.76524 
        1.02471         2.24584         1.74098 
        1.03085         2.22341         1.71708 
        1.03698         2.20165         1.69369 
        1.04314         2.17675         1.67064 
        1.04929          2.1534         1.64808 
        1.05541         2.11974         1.62603 
        1.06154         2.10417         1.60433 
        1.06769         2.08508         1.58299 
        1.07382         2.05352         1.56212 
        1.07993         2.02744         1.54167 
        1.08607         2.01153         1.52151 
        1.09222          1.9827         1.50169 
        1.09836         1.97187         1.48225 
        1.10449          1.9353         1.46318 
        1.11063         1.91708         1.44442 
        1.11677         1.90101           1.426 
         1.1229         1.87372         1.40794 
        1.12903         1.86202         1.39018 
        1.13518         1.83555         1.37271 
        1.14131         1.81889         1.35555 
        1.14745         1.79924          1.3387 
        1.15359          1.7797         1.32213 
        1.15973         1.75991         1.30583 
        1.16584         1.74102         1.28989 
        1.17197         1.72066         1.27419 
        1.17811         1.70274         1.25871 
        1.18424         1.68518         1.24353 
        1.19038         1.66779         1.22856 
        1.19652         1.65415         1.21384 
        1.20267           1.641         1.19936 
        1.20881         1.61971         1.18513 
        1.21495         1.60461         1.17115 
        1.22108         1.59047          1.1574 
         1.2272         1.56757          1.1439 
        1.23334         1.55786         1.13059 
        1.23949         1.54194         1.11746 
        1.24562         1.52762         1.10458 
        1.25174         1.51461         1.09192 
        1.25789         1.49414         1.07943 
        1.26402         1.47947         1.06715 
        1.27014         1.46324         1.05509 
        1.27628         1.45346         1.04319 
        1.28244         1.43961         1.03145 
        1.28858         1.42404          1.0199 
        1.29471         1.40863         1.00856 
        1.30084         1.39857        0.997404 
        1.30697         1.38861          0.9864 
        1.31312         1.37412        0.975548 
        1.31925         1.36114        0.964894 
        1.32537          1.3505         0.95441 
        1.33151         1.33512        0.944045 
        1.33765         1.32422        0.933841 
        1.34378         1.31184        0.923809 
        1.34992         1.30235        0.913917 
        1.35606         1.28829         0.90415 
         1.3622          1.2788        0.894544 
        1.36833         1.26571          0.8851 
        1.37445         1.25389        0.875799 
        1.38059         1.24382        0.866603 
        1.38675         1.23205        0.857518 
        1.39288         1.22315        0.848601 
        1.39901         1.21102        0.839814 
        1.40515         1.20013        0.831133 
         1.4113         1.19415        0.822579 
        1.41742         1.17921        0.814178 
        1.42355         1.16775         0.80588 
         1.4297         1.16162        0.797673 
        1.43585         1.15037        0.789584 
        1.44198         1.14168        0.781638 
        1.44809         1.13154        0.773817 
        1.45423         1.12286        0.766076 
        1.46036         1.11356        0.758454 
        1.46649         1.10088        0.750934 
        1.47263         1.09516        0.743511 
        1.47877         1.09008        0.736191 
        1.48491         1.07421         0.72896 
        1.49104         1.06898        0.721841 
        1.49718         1.05818        0.714812 
        1.50333         1.05058        0.707867 
        1.50947         1.04412        0.701028 
         1.5156          1.0344         0.69429 
        1.52172         1.02704        0.687641 
        1.52787          1.0173        0.681067 
          1.534         1.01216        0.674587 
        1.54013         1.00265        0.668198 
        1.54627        0.994867        0.661881 
        1.55241         0.98546        0.655644 
        1.55855         0.97904        0.649498 
        1.56467        0.971163        0.643447 
         1.5708        0.964013        0.637456 
        1.57695        0.955351        0.631534 
        1.58308        0.946385          0.6257 
        1.58922        0.942494        0.619937 
        1.59535        0.932514        0.614248 
         1.6015        0.925588        0.608623 
        1.60764        0.919704        0.603072 
        1.61376        0.911981        0.597606 
        1.61989        0.906144        0.592203 
        1.62604        0.896426        0.586855 
        1.63218         0.89373        0.581577 
        1.63831        0.885173        0.576376 
        1.64444        0.879058        0.571237 
        1.65059         0.87333        0.566149 
        1.65673        0.864909        0.561129 
        1.66285        0.859676        0.556183 
        1.66898        0.854708        0.551296 
        1.67512        0.845343        0.546458 
        1.68127        0.839726        0.541675 
         1.6874        0.836427        0.536959 
        1.69353        0.828314        0.532302 
        1.69967        0.823542         0.52769 
        1.70581        0.819339        0.523135 
        1.71193        0.810773        0.518651 
        1.71806        0.806592         0.51421 
        1.72421         0.80112        0.509812 
        1.73035        0.792279        0.505472 
        1.73649         0.79155        0.501183 
        1.74262        0.782713        0.496947 
        1.74876        0.778126        0.492757 
        1.75489        0.773621        0.488625 
        1.76101        0.765961        0.484542 
        1.76715        0.762163          0.4805 
        1.77329        0.757619        0.476499 
        1.77943        0.751954        0.472542 
        1.78557        0.748764        0.468636 
        1.79171         0.74317        0.464774 
        1.79785        0.737578        0.460955 
        1.80399        0.730753        0.457179 
        1.81012        0.727531        0.453451 
        1.81625        0.722206        0.449767 
        1.82239         0.71844        0.446118 
        1.82853        0.712695        0.442511 
        1.83466        0.707586        0.438948 
        1.84078        0.702637        0.435428 
        1.84692        0.699041        0.431941 
        1.85306        0.695843        0.428489 
         1.8592        0.689139        0.425079 
        1.86533         0.68606        0.421709 
        1.87147        0.679185        0.418371 
        1.87761        0.676341        0.415069 
        1.88375        0.671845        0.411806 
        1.88988        0.666504        0.408581 
        1.89601        0.662285         0.40539 
        1.90215        0.659236         0.40223 
        1.90829        0.654344        0.399106 
        1.91442        0.650573        0.396014 
        1.92056        0.647769        0.392958 
         1.9267        0.642327        0.389932 
        1.93284        0.637647        0.386935 
        1.93897        0.634385        0.383976 
        1.94509        0.631378        0.381054 
        1.95123        0.625526        0.378156 
        1.95737        0.622524        0.375285 
        1.96349        0.618312        0.372452 
        1.96964        0.615848         0.36964 
        1.97578        0.610068        0.366855 
        1.98192        0.607297        0.364106 
        1.98805        0.603856        0.361384 
        1.99419        0.600695         0.35869 
        2.00033        0.597226        0.356022 
        2.00647        0.593825        0.353382 
         2.0126        0.590447        0.350774 
        2.01874        0.586569        0.348187 
        2.02488        0.581762        0.345625 
        2.03101        0.578626        0.343094 
        2.03714        0.576677         0.34059 
        2.04328        0.571972        0.338108 
        2.04941        0.568956        0.335654 
        2.05554        0.565685        0.333225 
        2.06167        0.562493        0.330817 
        2.06781        0.557614        0.328433 
        2.07396         0.55658        0.326069 
        2.08009        0.552365        0.323732 
        2.08622        0.549352        0.321421 
        2.09237        0.546506        0.319128 
        2.09851        0.542467        0.316858 
        2.10464        0.540132        0.314613 
        2.11077        0.535124        0.312392 
        2.11691        0.533251        0.310188 
        2.12305        0.531631        0.308006 
        2.12918         0.52717         0.30585 
        2.13531        0.524331        0.303714 
        2.14145         0.52114        0.301594 
         2.1476        0.518928        0.299491 
        2.15372        0.515922         0.29742 
        2.15985        0.512391        0.295365 
        2.16599        0.510416        0.293325 
        2.17213        0.507303        0.291306 
        2.17827        0.503441        0.289306 
         2.1844        0.502061        0.287328 
        2.19054        0.499279        0.285367 
        2.19666        0.496547        0.283427 
         2.2028        0.493188        0.281503 
        2.20893         0.49121        0.279597 
        2.21508        0.488297        0.277706 
        2.22122        0.486115        0.275832 
        2.22736        0.481537        0.273979 
        2.23349        0.479049        0.272144 
        2.23962        0.477594        0.270324 
        2.24577        0.474989         0.26852 
         2.2519        0.472547        0.266735 
        2.25802         0.47042        0.264968 
        2.26417        0.466977        0.263213 
        2.27031        0.464995        0.261473 
        2.27644        0.463743        0.259753 
        2.28257        0.459622        0.258049 
        2.28872        0.458255        0.256356 
        2.29486        0.455122         0.25468 
        2.30099        0.453024        0.253022 
        2.30712        0.450503        0.251378 
        2.31326        0.448387        0.249745 
         2.3194        0.446329        0.248129 
        2.32553        0.443387        0.246529 
        2.33166        0.442171        0.244944 
         2.3378        0.439321        0.243371 
        2.34394        0.437217        0.241812 
        2.35007        0.434053        0.240268 
        2.35619         0.43141         0.23874 
        2.36233        0.430019        0.237221 
        2.36848        0.428584        0.235713 
        2.37462        0.426295         0.23422 
        2.38075        0.423663        0.232743 
        2.38689        0.422163        0.231276 
        2.39303        0.419598        0.229823 
        2.39916         0.41741        0.228384 
        2.40529        0.416086        0.226957 
        2.41143         0.41307        0.225541 
        2.41757         0.41129        0.224137 
         2.4237        0.409416        0.222747 
        2.42983        0.407216         0.22137 
        2.43598        0.405426            0.22 
        2.44211        0.402852        0.218644 
        2.44823        0.401631        0.217303 
        2.45437        0.399988        0.215969 
        2.46052        0.398034        0.214646 
        2.46665        0.395562        0.213335 
        2.47279        0.393681        0.212037 
        2.47892        0.391928        0.210748 
        2.48507        0.390567        0.209469 
         2.4912        0.388203        0.208203 
