# k  (h/Mpc)    Pcb(k)  (Mpc/h)^3    Pcb_linear(k)  (Mpc/h)^3
     0.00783031         14392.8         14473.9 
       0.013688         17033.1         17464.3 
       0.019231         17119.4         17369.7 
      0.0249154         15835.3         15795.1 
      0.0312784         13309.7         13428.8 
      0.0375637         11053.6         11228.4 
      0.0433917         9582.62         9620.53 
      0.0492413         8375.66         8468.74 
      0.0555754         7619.98         7637.72 
      0.0619321         6831.63          7062.1 
       0.067871         6483.59         6602.57 
      0.0738098         6053.16         6116.21 
      0.0800417         5499.33          5537.1 
      0.0862327         4868.44         4916.59 
      0.0921407          4343.8         4339.13 
      0.0982031         3898.08         3819.15 
       0.104506         3431.33         3394.01 
       0.110769         3160.54         3093.46 
       0.116806         3013.82         2898.06 
       0.122832         2839.57         2760.96 
       0.129052         2702.29         2641.14 
       0.135211         2622.62         2512.53 
       0.141259         2429.44         2361.04 
       0.147318         2240.65          2185.7 
       0.153489          2087.1         1997.17 
       0.159709         1974.77         1816.51 
       0.165845         1789.69         1663.27 
       0.171974          1732.3         1542.76 
       0.178125         1661.46         1453.64 
       0.184229         1537.28         1389.38 
        0.19034         1513.91         1338.52 
       0.196428         1469.98         1290.67 
       0.202534         1377.49         1237.72 
       0.208729         1351.32          1175.7 
       0.214876         1286.41         1107.38 
       0.220989         1210.98         1037.37 
       0.227147         1174.16         970.361 
        0.23329         1123.21         911.432 
       0.239377          1110.5         862.982 
       0.245482         1052.78         824.021 
       0.251667         1014.39         792.131 
       0.257832         998.895         764.721 
       0.263955         950.371         738.697 
       0.270079         920.562         711.582 
        0.27624         882.689         682.347 
       0.282372          867.74         651.675 
        0.28843         855.433         621.088 
       0.294538         812.181          591.52 
       0.300721         792.715         564.176 
        0.30691         775.234          540.12 
       0.313033         741.772         519.518 
       0.319153         732.139         501.546 
       0.325316         721.547          485.13 
        0.33145         704.702         469.576 
       0.337538         679.716           454.2 
       0.343633         662.548         438.579 
       0.349808         647.378         422.551 
       0.355968         635.456         406.685 
       0.362074         612.837         391.516 
       0.368217         610.708         377.165 
       0.374374         600.649         363.948 
       0.380519         577.057         351.907 
       0.386598          572.17         340.998 
       0.392688         558.103         330.819 
        0.39888         544.496         320.943 
       0.405048         533.562         311.381 
       0.411186         532.569         301.999 
       0.417313         527.171         292.743 
       0.423458         511.624         283.653 
       0.429607         497.103         274.841 
       0.435692         491.137         266.503 
       0.441815         481.902         258.576 
       0.447964         473.561         251.085 
       0.454126         468.177         244.012 
       0.460267         460.572         237.337 
       0.466387          452.05         230.973 
        0.47254         445.758         224.779 
       0.478662         437.318         218.784 
       0.484765         432.029          212.96 
       0.490885         427.673         207.268 
       0.497035          418.63         201.717 
       0.503198         418.506         196.359 
       0.509342         409.343         191.239 
       0.515458         401.697         186.359 
       0.521598         397.476         181.668 
       0.527764         390.446         177.155 
       0.533884         387.356         172.847 
           0.54         383.006         168.686 
       0.546137         375.535         164.633 
       0.552299         374.342         160.678 
       0.558452          368.19         156.846 
       0.564573         365.567         153.147 
       0.570708          360.34         149.556 
       0.576825         353.758         146.092 
       0.582926         352.206         142.755 
       0.589034         346.162         139.531 
       0.595184         343.841         136.398 
       0.601379         338.507         133.347 
       0.607522         331.848         130.415 
       0.613639         331.066          127.58 
       0.619772         329.759         124.819 
       0.625918         323.498         122.132 
       0.632068         320.812          119.52 
       0.638161         318.585         117.008 
         0.6443         314.172         114.549 
       0.650464         310.645         112.153 
       0.656582         307.753         109.844 
       0.662703         305.963         107.603 
       0.668861         300.338         105.414 
       0.675024         299.228         103.287 
       0.681124         294.754         101.241 
       0.687237         293.332         99.2463 
       0.693381         289.078         97.2958 
       0.699536         287.954         95.3932 
       0.705665         284.666         93.5489 
       0.711789         282.368         91.7548 
       0.717957         279.504         89.9957 
        0.72409         275.813         88.2933 
       0.730186         277.543         86.6464 
       0.736317         272.621         85.0337 
       0.742472         270.176          83.457 
       0.748622         267.697         81.9224 
        0.75476         266.775         80.4302 
       0.760888         263.738         78.9775 
       0.767043         260.753          77.555 
       0.773185         259.066         76.1705 
       0.779291         256.058         74.8277 
       0.785407         254.917         73.5156 
       0.791564         252.798         72.2269 
       0.797719         248.683           70.97 
       0.803834         250.397         69.7514 
       0.809972         246.766         68.5574 
       0.816124         243.557         67.3891 
       0.822261         241.877         66.2516 
       0.828378         241.145          65.144 
       0.834502          237.88          64.061 
       0.840667         238.147         62.9959 
       0.846816         233.586         61.9582 
       0.852925         233.825         60.9506 
       0.859047         231.588         59.9633 
       0.865192         230.967         58.9948 
       0.871341         228.049         58.0472 
       0.877463         226.325         57.1248 
       0.883569         225.515         56.2248 
       0.889708         223.454         55.3398 
       0.895864         221.102         54.4717 
       0.902008         219.568         53.6242 
       0.908149         217.822         52.7952 
       0.914301         216.426         51.9826 
       0.920448         215.678          51.188 
       0.926574         213.677         50.4128 
       0.932687         213.193         49.6554 
       0.938823         210.977          48.911 
       0.944975         210.402         48.1803 
       0.951105         208.061         47.4671 
       0.957225          206.49         46.7698 
       0.963368         206.379         46.0841 
       0.969511         203.053         45.4123 
       0.975621         201.438         44.7576 
       0.981748         201.126         44.1142 
       0.987916         200.043         43.4795 
        0.99406         198.381         42.8597 
        1.00019         197.194         42.2534 
        1.00632         196.216         41.6594 
        1.01246         194.734          41.076 
        1.01859         192.909         40.5048 
        1.02471         191.567         39.9453 
        1.03085         190.532         39.3945 
        1.03698         189.813         38.8553 
        1.04314         189.095         38.3239 
        1.04929         187.901         37.8039 
        1.05541         186.832         37.2956 
        1.06154         185.026         36.7955 
        1.06769         184.026         36.3039 
        1.07382         182.972         35.8229 
        1.07993          181.44         35.3518 
        1.08607         180.842         34.8872 
        1.09222         179.201         34.4306 
        1.09836         178.663         33.9827 
        1.10449         177.301         33.5434 
        1.11063         176.062         33.1113 
        1.11677         175.161         32.6871 
         1.1229         174.223          32.271 
        1.12903         172.744         31.8619 
        1.13518         171.832         31.4596 
        1.14131         171.245         31.0644 
        1.14745         169.673         30.6763 
        1.15359         168.495         30.2948 
        1.15973         167.987         29.9197 
        1.16584         166.896         29.5526 
        1.17197         166.136         29.1911 
        1.17811         164.748         28.8347 
        1.18424         163.997         28.4852 
        1.19038         163.179         28.1405 
        1.19652          161.74         27.8017 
        1.20267         160.868         27.4685 
        1.20881         159.782         27.1409 
        1.21495         159.698         26.8191 
        1.22108         158.332         26.5026 
         1.2272         157.252          26.192 
        1.23334         156.482         25.8857 
        1.23949         155.843         25.5836 
        1.24562         154.743         25.2872 
        1.25174         154.234         24.9959 
        1.25789         152.831         24.7084 
        1.26402         152.487         24.4259 
        1.27014         151.726         24.1486 
        1.27628         150.582         23.8747 
        1.28244          149.68         23.6046 
        1.28858         148.832         23.3391 
        1.29471         147.813         23.0782 
        1.30084         147.017         22.8217 
        1.30697         146.033         22.5686 
        1.31312         145.386          22.319 
        1.31925         144.331          22.074 
        1.32537         143.897          21.833 
        1.33151         143.161         21.5947 
        1.33765         142.121         21.3601 
        1.34378         141.872         21.1294 
        1.34992         140.781         20.9021 
        1.35606         140.167         20.6776 
         1.3622         139.392         20.4567 
        1.36833         138.291         20.2397 
        1.37445         138.163         20.0259 
        1.38059         136.959         19.8146 
        1.38675         136.297         19.6058 
        1.39288         135.369         19.4009 
        1.39901         134.573         19.1989 
        1.40515         134.238         18.9995 
         1.4113         133.278         18.8029 
        1.41742         132.648         18.6099 
        1.42355         132.259         18.4192 
         1.4297         131.204         18.2307 
        1.43585         130.654         18.0448 
        1.44198         129.449         17.8623 
        1.44809         129.135         17.6827 
        1.45423         128.678         17.5048 
        1.46036         127.484         17.3298 
        1.46649         126.858          17.157 
        1.47263         126.281         16.9865 
        1.47877         125.501         16.8184 
        1.48491          125.04         16.6524 
        1.49104         123.858         16.4889 
        1.49718         123.595         16.3275 
        1.50333         122.881          16.168 
        1.50947         122.391          16.011 
         1.5156         121.553         15.8563 
        1.52172         120.873         15.7036 
        1.52787          120.49         15.5527 
          1.534         119.818         15.4039 
        1.54013         119.018         15.2573 
        1.54627         118.333         15.1122 
        1.55241         118.041         14.9691 
        1.55855         117.343          14.828 
        1.56467         116.683         14.6892 
         1.5708         115.609         14.5517 
        1.57695         115.586         14.4158 
        1.58308         114.634         14.2819 
        1.58922         114.278         14.1496 
        1.59535         113.943         14.0191 
         1.6015         113.021         13.8901 
        1.60764         112.304         13.7627 
        1.61376         111.913         13.6373 
        1.61989         111.454         13.5133 
        1.62604         110.596         13.3907 
        1.63218         110.173         13.2696 
        1.63831         109.494         13.1503 
        1.64444         108.763         13.0324 
        1.65059         108.335         12.9157 
        1.65673         108.165         12.8006 
        1.66285         107.569         12.6872 
        1.66898         106.704         12.5751 
        1.67512         106.041         12.4642 
        1.68127         105.837         12.3545 
         1.6874         104.997         12.2463 
        1.69353         104.533         12.1396 
        1.69967         103.905         12.0338 
        1.70581         103.669         11.9294 
        1.71193         102.989         11.8266 
        1.71806         102.316         11.7248 
        1.72421         101.839          11.624 
        1.73035         101.339         11.5244 
        1.73649         100.733         11.4261 
        1.74262           100.4          11.329 
        1.74876         99.6719          11.233 
        1.75489         99.4766         11.1383 
        1.76101         98.8509         11.0447 
        1.76715          98.197         10.9521 
        1.77329         97.7272         10.8604 
        1.77943         97.2606         10.7697 
        1.78557         96.9747         10.6802 
        1.79171          96.319         10.5917 
        1.79785         95.6553         10.5042 
        1.80399         95.4565         10.4177 
        1.81012          94.629         10.3323 
        1.81625         94.2541         10.2479 
        1.82239         93.9149         10.1643 
        1.82853         93.2396         10.0817 
        1.83466         92.6724              10 
        1.84078         92.5704         9.91941 
        1.84692          92.236         9.83954 
        1.85306         91.7159         9.76046 
         1.8592         91.2641         9.68237 
        1.86533         90.5819         9.60518 
        1.87147         90.3045         9.52875 
        1.87761         89.4494         9.45312 
        1.88375         89.2217          9.3784 
        1.88988         88.6266         9.30457 
        1.89601         88.5235         9.23149 
        1.90215         88.0292         9.15914 
        1.90829         87.3427         9.08761 
        1.91442         86.8923         9.01683 
        1.92056          86.563         8.94687 
         1.9267         86.1595         8.87759 
        1.93284         85.7756         8.80899 
        1.93897         85.3033         8.74126 
        1.94509         84.8921         8.67438 
        1.95123         84.4913         8.60803 
        1.95737         84.2119         8.54233 
        1.96349         83.8144         8.47748 
        1.96964         83.2956         8.41312 
        1.97578         82.8341          8.3494 
        1.98192         82.4548         8.28647 
        1.98805         81.8877         8.22418 
        1.99419          81.822         8.16253 
        2.00033         81.1265         8.10148 
        2.00647         80.6995         8.04108 
         2.0126         80.3933         7.98139 
        2.01874         80.2065         7.92222 
        2.02488         79.6688          7.8636 
        2.03101         79.1994         7.80569 
        2.03714         78.8828          7.7484 
        2.04328         78.6763         7.69164 
        2.04941         78.2157         7.63548 
        2.05554         77.7404         7.57993 
        2.06167         77.2416         7.52486 
        2.06781         76.8666         7.47033 
        2.07396         76.4471         7.41626 
        2.08009         76.1103         7.36282 
        2.08622         75.8482         7.30996 
        2.09237         75.4631         7.25753 
        2.09851          74.891          7.2056 
        2.10464         74.7374         7.15426 
        2.11077         74.4088         7.10349 
        2.11691         74.0778          7.0531 
        2.12305         73.6088         7.00319 
        2.12918         73.2442         6.95389 
        2.13531         72.8599         6.90506 
        2.14145         72.5587         6.85659 
         2.1476         72.3322         6.80852 
        2.15372         71.7718         6.76116 
        2.15985         71.4534          6.7142 
        2.16599         71.1646         6.66756 
        2.17213          70.693         6.62141 
        2.17827         70.2304         6.57571 
         2.1844         70.1036         6.53048 
        2.19054         69.7153         6.48566 
        2.19666         69.4574         6.44132 
         2.2028         69.1348         6.39737 
        2.20893         68.8058          6.3538 
        2.21508         68.3855         6.31058 
        2.22122         67.9768         6.26776 
        2.22736         67.6895         6.22542 
        2.23349         67.3351         6.18349 
        2.23962          67.108         6.14192 
        2.24577         66.7869         6.10069 
         2.2519         66.4004          6.0599 
        2.25802         66.0624         6.01955 
        2.26417         65.7407         5.97946 
        2.27031         65.4911         5.93969 
        2.27644         65.0736          5.9004 
        2.28257         64.8435         5.86147 
        2.28872         64.4236         5.82281 
        2.29486         64.3476         5.78452 
        2.30099         63.7845         5.74664 
        2.30712         63.6301         5.70909 
        2.31326         63.3629         5.67181 
         2.3194         63.0223         5.63489 
        2.32553         62.6402         5.59836 
        2.33166         62.4006         5.56217 
         2.3378         62.1499         5.52625 
        2.34394          61.794         5.49063 
        2.35007         61.4714         5.45538 
        2.35619         61.2579         5.42048 
        2.36233         60.9474         5.38581 
        2.36848         60.5758         5.35137 
        2.37462          60.291          5.3173 
        2.38075         60.0401         5.28356 
        2.38689         59.6352         5.25008 
        2.39303         59.5272          5.2169 
        2.39916          59.134         5.18405 
        2.40529         58.9772         5.15148 
        2.41143         58.7262         5.11916 
        2.41757         58.2477         5.08711 
         2.4237         58.1851         5.05539 
        2.42983         57.8324         5.02394 
        2.43598         57.5558         4.99268 
        2.44211         57.2443         4.96174 
        2.44823         57.0887         4.93113 
        2.45437         56.6169         4.90069 
        2.46052         56.4282         4.87049 
        2.46665          56.079         4.84059 
        2.47279          55.898         4.81095 
        2.47892         55.6719         4.78155 
        2.48507         55.3766         4.75236 
         2.4912         55.1395         4.72347 
