# k  (h/Mpc)    P(k)  (Mpc/h)^3    P_linear(k)  (Mpc/h)^3
     0.00783031         3994.18         4031.78 
       0.013688          4781.6          4860.6 
       0.019231         4793.25         4832.45 
      0.0249154         4400.35         4393.42 
      0.0312784         3725.09          3734.7 
      0.0375637         3104.44         3122.45 
      0.0433917         2679.26         2675.18 
      0.0492413         2347.28         2354.81 
      0.0555754         2131.88         2123.66 
      0.0619321          1934.8         1963.56 
       0.067871         1828.09         1835.76 
      0.0738098         1697.43         1700.51 
      0.0800417          1542.2         1539.48 
      0.0862327         1364.57         1366.95 
      0.0921407         1207.97         1206.38 
      0.0982031         1073.36         1061.81 
       0.104506         945.132         943.606 
       0.110769         865.186         860.042 
       0.116806         820.427         805.713 
       0.122832         773.899         767.595 
       0.129052         742.797         734.281 
       0.135211         712.337         698.523 
       0.141259         664.293         656.405 
       0.147318         610.714         607.658 
       0.153489         563.588         555.242 
       0.159709         520.974         505.014 
       0.165845         470.845         462.411 
       0.171974         449.491         428.905 
       0.178125         424.848         404.128 
       0.184229         400.388         386.264 
        0.19034         390.369         372.125 
       0.196428         376.819          358.82 
       0.202534         354.337         344.102 
       0.208729         343.769         326.858 
       0.214876         327.327         307.863 
       0.220989         303.019         288.401 
       0.227147          291.32          269.77 
        0.23329         276.568         253.386 
       0.239377         266.297         239.916 
       0.245482         252.599         229.086 
       0.251667         241.725          220.22 
       0.257832         238.315           212.6 
       0.263955         225.989         205.365 
       0.270079         217.655         197.826 
        0.27624         208.315         189.699 
       0.282372         201.152         181.172 
        0.28843         197.547         172.668 
       0.294538         187.546         164.447 
       0.300721         178.922         156.845 
        0.30691          175.09         150.158 
       0.313033          167.42          144.43 
       0.319153         164.302         139.434 
       0.325316         158.342          134.87 
        0.33145         153.396         130.546 
       0.337538         148.492         126.271 
       0.343633         144.061         121.929 
       0.349808         139.287         117.472 
       0.355968         135.341         113.062 
       0.362074         132.287         108.844 
       0.368217         128.817         104.855 
       0.374374         125.444         101.181 
       0.380519          120.06         97.8326 
       0.386598         117.271         94.8003 
       0.392688         113.822         91.9703 
        0.39888         111.739         89.2247 
       0.405048         109.173         86.5667 
       0.411186         106.851         83.9581 
       0.417313         103.979         81.3848 
       0.423458         101.202         78.8579 
       0.429607         99.1349         76.4079 
       0.435692         97.4805         74.0898 
       0.441815         94.1916         71.8863 
       0.447964         91.3561         69.8036 
       0.454126         89.6723          67.837 
       0.460267         88.8773         65.9817 
       0.466387         86.5859         64.2122 
        0.47254         85.5015         62.4903 
       0.478662         82.5236         60.8237 
       0.484765         81.1376         59.2047 
       0.490885         79.0329          57.622 
       0.497035         78.2846         56.0789 
       0.503198         76.4369         54.5892 
       0.509342          74.438         53.1658 
       0.515458         73.4581         51.8092 
       0.521598         71.6412         50.5051 
       0.527764         70.7536         49.2504 
       0.533884         69.9158         48.0527 
           0.54          68.134          46.896 
       0.546137         66.3529         45.7691 
       0.552299         65.2172         44.6696 
       0.558452         63.9397         43.6042 
       0.564573         63.6074         42.5761 
       0.570708          61.737         41.5776 
       0.576825         61.0981         40.6146 
       0.582926         60.2613         39.6868 
       0.589034         59.1114         38.7906 
       0.595184         58.3373         37.9196 
       0.601379         56.8507         37.0714 
       0.607522         55.9128         36.2563 
       0.613639         55.3488         35.4682 
       0.619772         54.2878         34.7006 
       0.625918         53.5286         33.9535 
       0.632068         52.8852         33.2275 
       0.638161         51.8767         32.5289 
         0.6443         51.3535         31.8454 
       0.650464         50.1623         31.1793 
       0.656582         49.9226         30.5375 
       0.662703          49.244         29.9143 
       0.668861         48.0521         29.3058 
       0.675024         47.7551         28.7144 
       0.681124         47.2174         28.1456 
       0.687237         46.2604         27.5912 
       0.693381         45.6616         27.0489 
       0.699536         45.2776           26.52 
       0.705665         44.5326         26.0073 
       0.711789         43.8585         25.5085 
       0.717957         43.1453         25.0195 
        0.72409         42.7251         24.5462 
       0.730186         42.4835         24.0883 
       0.736317         41.6728           23.64 
       0.742472          41.172         23.2017 
       0.748622         40.5852          22.775 
        0.75476         39.8623         22.3602 
       0.760888         39.7953         21.9563 
       0.767043         39.0228         21.5608 
       0.773185         38.5981         21.1759 
       0.779291         38.1168         20.8026 
       0.785407         37.5997         20.4379 
       0.791564         37.5471         20.0796 
       0.797719         36.8063         19.7302 
       0.803834         36.5642         19.3914 
       0.809972         36.0131         19.0594 
       0.816124         35.6623         18.7347 
       0.822261         35.2199         18.4184 
       0.828378         34.9923         18.1105 
       0.834502         34.5795         17.8094 
       0.840667         34.2627         17.5133 
       0.846816         33.6635         17.2248 
       0.852925         33.4921         16.9447 
       0.859047         33.2945         16.6702 
       0.865192         32.7586          16.401 
       0.871341         32.3655         16.1375 
       0.877463         32.0668         15.8811 
       0.883569         31.9198         15.6309 
       0.889708          31.512         15.3849 
       0.895864         31.1368         15.1435 
       0.902008         30.8332         14.9079 
       0.908149         30.5062         14.6775 
       0.914301         30.2985         14.4515 
       0.920448          29.986         14.2306 
       0.926574         29.6266         14.0151 
       0.932687         29.3436         13.8046 
       0.938823         28.9766         13.5976 
       0.944975         28.7656         13.3945 
       0.951105         28.5462         13.1962 
       0.957225         28.3279         13.0023 
       0.963368         27.9879         12.8117 
       0.969511         27.7439         12.6249 
       0.975621          27.529         12.4429 
       0.981748          27.207         12.2641 
       0.987916         27.0448         12.0876 
        0.99406         26.6957         11.9153 
        1.00019         26.5532         11.7467 
        1.00632         26.3419         11.5816 
        1.01246         26.0921         11.4194 
        1.01859         25.8409         11.2606 
        1.02471         25.6194         11.1051 
        1.03085          25.502         10.9519 
        1.03698         25.3166          10.802 
        1.04314         25.0447         10.6543 
        1.04929         24.7566         10.5097 
        1.05541         24.6807         10.3684 
        1.06154         24.4954         10.2294 
        1.06769         24.1609         10.0927 
        1.07382         24.0167         9.95902 
        1.07993         23.8107         9.82804 
        1.08607         23.6512          9.6989 
        1.09222         23.4566         9.57195 
        1.09836         23.2279         9.44744 
        1.10449         23.1452         9.32529 
        1.11063         22.9359         9.20518 
        1.11677         22.8759         9.08724 
         1.1229          22.624         8.97158 
        1.12903         22.4267         8.85784 
        1.13518         22.3215         8.74599 
        1.14131         22.1499         8.63614 
        1.14745         21.8897         8.52824 
        1.15359         21.6964         8.42218 
        1.15973         21.5892         8.31788 
        1.16584         21.4121         8.21583 
        1.17197         21.1824         8.11534 
        1.17811         21.1039         8.01624 
        1.18424         20.8888         7.91908 
        1.19038         20.8328         7.82326 
        1.19652         20.6136         7.72907 
        1.20267         20.5371         7.63644 
        1.20881         20.3374         7.54535 
        1.21495          20.231          7.4559 
        1.22108          20.159         7.36791 
         1.2272         19.9923         7.28157 
        1.23334         19.8717         7.19641 
        1.23949         19.7011         7.11242 
        1.24562         19.5048         7.03002 
        1.25174         19.4563         6.94904 
        1.25789         19.3407         6.86911 
        1.26402         19.2196         6.79058 
        1.27014         19.1055         6.71348 
        1.27628         18.9103         6.63734 
        1.28244         18.9074         6.56225 
        1.28858         18.6989         6.48843 
        1.29471         18.5365         6.41592 
        1.30084         18.4266         6.34458 
        1.30697         18.3421         6.27423 
        1.31312         18.2056         6.20485 
        1.31925         18.1021         6.13674 
        1.32537         17.9521         6.06972 
        1.33151         17.8385         6.00347 
        1.33765         17.8055         5.93826 
        1.34378         17.6914         5.87414 
        1.34992         17.5674         5.81093 
        1.35606         17.4047         5.74851 
         1.3622         17.3035         5.68712 
        1.36833         17.2616         5.62678 
        1.37445         17.1363         5.56735 
        1.38059          17.033         5.50859 
        1.38675         16.9311         5.45055 
        1.39288         16.8026         5.39358 
        1.39901         16.7082         5.33745 
        1.40515         16.6399         5.28199 
         1.4113         16.5365         5.22734 
        1.41742          16.456         5.17368 
        1.42355         16.3227         5.12068 
         1.4297         16.2321         5.06826 
        1.43585         16.1495          5.0166 
        1.44198         16.1042         4.96585 
        1.44809          15.992         4.91591 
        1.45423         15.8921         4.86647 
        1.46036         15.7951          4.8178 
        1.46649          15.704         4.76978 
        1.47263         15.6299         4.72238 
        1.47877         15.5406         4.67565 
        1.48491         15.4667         4.62948 
        1.49104         15.3695         4.58403 
        1.49718         15.3038         4.53916 
        1.50333         15.2338         4.49482 
        1.50947           15.15         4.45116 
         1.5156         15.0637         4.40815 
        1.52172         14.9596         4.36572 
        1.52787         14.9312         4.32376 
          1.534         14.8382          4.2824 
        1.54013         14.7708         4.24163 
        1.54627         14.6479         4.20131 
        1.55241         14.5563         4.16152 
        1.55855         14.5037          4.1223 
        1.56467         14.4714         4.08369 
         1.5708         14.3877         4.04547 
        1.57695         14.3088         4.00769 
        1.58308          14.207         3.97047 
        1.58922         14.1485          3.9337 
        1.59535         14.0846         3.89742 
         1.6015         13.9657         3.86154 
        1.60764         13.9246         3.82613 
        1.61376         13.8842         3.79127 
        1.61989         13.7657         3.75681 
        1.62604         13.7366          3.7227 
        1.63218         13.6714         3.68904 
        1.63831         13.5683         3.65588 
        1.64444         13.5012         3.62311 
        1.65059         13.4431         3.59067 
        1.65673         13.4001         3.55866 
        1.66285          13.295         3.52713 
        1.66898         13.2815         3.49597 
        1.67512         13.2353         3.46513 
        1.68127         13.1342         3.43463 
         1.6874         13.1012         3.40457 
        1.69353         12.9694         3.37489 
        1.69967          12.937         3.34549 
        1.70581         12.8916         3.31645 
        1.71193         12.8061         3.28787 
        1.71806          12.765         3.25957 
        1.72421         12.7039         3.23154 
        1.73035         12.6455         3.20388 
        1.73649         12.6051         3.17655 
        1.74262         12.5014         3.14955 
        1.74876         12.4751         3.12286 
        1.75489         12.4294         3.09653 
        1.76101         12.3294         3.07051 
        1.76715         12.3154         3.04476 
        1.77329         12.2347         3.01927 
        1.77943          12.173         2.99406 
        1.78557         12.1556         2.96917 
        1.79171          12.068         2.94457 
        1.79785         12.0267         2.92024 
        1.80399         11.9567         2.89619 
        1.81012         11.9205         2.87245 
        1.81625          11.857         2.84898 
        1.82239         11.7987         2.82574 
        1.82853         11.7449         2.80277 
        1.83466         11.6729         2.78008 
        1.84078         11.6461         2.75767 
        1.84692         11.6373         2.73546 
        1.85306         11.5685         2.71348 
         1.8592         11.5163         2.69177 
        1.86533         11.4349         2.67031 
        1.87147         11.3946         2.64906 
        1.87761         11.3549         2.62804 
        1.88375         11.3212         2.60726 
        1.88988         11.2347         2.58674 
        1.89601         11.2188         2.56642 
        1.90215         11.1444         2.54631 
        1.90829         11.0888         2.52642 
        1.91442         11.0414         2.50675 
        1.92056         11.0391          2.4873 
         1.9267         10.9821         2.46803 
        1.93284         10.9621         2.44897 
        1.93897         10.8748         2.43013 
        1.94509         10.8343         2.41154 
        1.95123         10.7903          2.3931 
        1.95737          10.758         2.37483 
        1.96349         10.6828          2.3568 
        1.96964         10.6598         2.33891 
        1.97578          10.627         2.32119 
        1.98192          10.587          2.3037 
        1.98805         10.5203         2.28638 
        1.99419           10.49         2.26924 
        2.00033         10.4471         2.25227 
        2.00647         10.3932         2.23548 
         2.0126         10.3665         2.21889 
        2.01874         10.3064         2.20244 
        2.02488         10.2579         2.18614 
        2.03101         10.2516         2.17004 
        2.03714          10.189         2.15411 
        2.04328         10.1371         2.13833 
        2.04941         10.0934         2.12272 
        2.05554         10.0772         2.10728 
        2.06167         10.0453         2.09197 
        2.06781         9.99999         2.07681 
        2.07396         9.97344         2.06177 
        2.08009         9.88708         2.04692 
        2.08622          9.8912         2.03222 
        2.09237         9.85481         2.01765 
        2.09851         9.78855         2.00321 
        2.10464         9.77606         1.98894 
        2.11077         9.70551         1.97482 
        2.11691         9.69345         1.96081 
        2.12305         9.64474         1.94694 
        2.12918         9.58615         1.93323 
        2.13531         9.57242         1.91966 
        2.14145         9.52503         1.90618 
         2.1476         9.49852         1.89282 
        2.15372         9.47181         1.87965 
        2.15985         9.42456          1.8666 
        2.16599         9.39541         1.85363 
        2.17213         9.38419          1.8408 
        2.17827         9.32456          1.8281 
         2.1844         9.29721         1.81552 
        2.19054         9.26581         1.80306 
        2.19666         9.23435         1.79074 
         2.2028         9.20126         1.77852 
        2.20893         9.15083          1.7664 
        2.21508         9.13014         1.75439 
        2.22122         9.07092         1.74248 
        2.22736         9.05023         1.73071 
        2.23349         9.01482         1.71906 
        2.23962         8.99423          1.7075 
        2.24577         8.97388         1.69604 
         2.2519         8.94009          1.6847 
        2.25802          8.8659         1.67348 
        2.26417         8.87028         1.66233 
        2.27031         8.84055         1.65128 
        2.27644         8.81516         1.64036 
        2.28257         8.74202         1.62953 
        2.28872         8.73162         1.61879 
        2.29486          8.7059         1.60814 
        2.30099         8.67781         1.59761 
        2.30712         8.61894         1.58717 
        2.31326         8.59342         1.57681 
         2.3194         8.56617         1.56654 
        2.32553         8.54281         1.55639 
        2.33166         8.50125         1.54632 
         2.3378         8.48371         1.53634 
        2.34394         8.44508         1.52644 
        2.35007         8.42678         1.51664 
        2.35619         8.39054         1.50694 
        2.36233         8.34687          1.4973 
        2.36848         8.32479         1.48772 
        2.37462         8.29588         1.47825 
        2.38075         8.26968         1.46887 
        2.38689         8.25397         1.45956 
        2.39303         8.20749         1.45034 
        2.39916         8.19551          1.4412 
        2.40529         8.16797         1.43215 
        2.41143         8.12706         1.42317 
        2.41757         8.09049         1.41426 
         2.4237         8.07895         1.40544 
        2.42983         8.05169          1.3967 
        2.43598         8.01885           1.388 
        2.44211          7.9889          1.3794 
        2.44823         7.96143         1.37089 
        2.45437         7.93366         1.36243 
        2.46052          7.9288         1.35403 
        2.46665         7.89291         1.34572 
        2.47279         7.85659         1.33748 
        2.47892         7.82214         1.32931 
        2.48507         7.80176         1.32119 
         2.4912         7.78489         1.31316 
