# k  (h/Mpc)    P(k)  (Mpc/h)^3    P_linear(k)  (Mpc/h)^3
     0.00783031         108.788         109.758 
       0.013688         131.673         132.547 
       0.019231         131.654         131.878 
      0.0249154         119.952         119.949 
      0.0312784         102.123         101.994 
      0.0375637         85.4267         85.2889 
      0.0433917         73.3264         73.0801 
      0.0492413          64.473         64.3334 
      0.0555754         58.2367         58.0223 
      0.0619321         53.6136         53.6507 
       0.067871         50.2155         50.1605 
      0.0738098         46.5084         46.4662 
      0.0800417          42.143         42.0671 
      0.0862327         37.4018         37.3534 
      0.0921407         33.0192         32.9664 
      0.0982031         29.1173         29.0162 
       0.104506         25.8228         25.7863 
       0.110769         23.5416         23.5029 
       0.116806         22.0899         22.0184 
       0.122832         20.9989         20.9768 
       0.129052         20.1088         20.0665 
       0.135211         19.1384         19.0894 
       0.141259         17.9595         17.9385 
       0.147318         16.6046         16.6064 
       0.153489         15.2005         15.1741 
       0.159709         13.8406         13.8014 
       0.165845         12.6385         12.6372 
       0.171974         11.7726         11.7216 
       0.178125         11.0842         11.0444 
       0.184229         10.5766         10.5563 
        0.19034         10.2131         10.1699 
       0.196428         9.83479         9.80627 
       0.202534         9.40001         9.40404 
       0.208729         8.95432         8.93279 
       0.214876         8.45153         8.41369 
       0.220989         7.89355         7.88182 
       0.227147         7.41437         7.37268 
        0.23329         6.96965         6.92493 
       0.239377         6.60251          6.5568 
       0.245482         6.30547         6.26081 
       0.251667         6.04571         6.01852 
       0.257832         5.85068         5.81027 
       0.263955         5.64085         5.61255 
       0.270079          5.4331         5.40652 
        0.27624         5.20103          5.1844 
       0.282372          4.9701         4.95137 
        0.28843         4.75305         4.71897 
       0.294538         4.52585          4.4943 
       0.300721         4.30767         4.28653 
        0.30691         4.13853         4.10379 
       0.313033         3.97841         3.94725 
       0.319153         3.85631          3.8107 
       0.325316         3.70842         3.68598 
        0.33145         3.58937         3.56781 
       0.337538         3.47649         3.45097 
       0.343633         3.36308         3.33229 
       0.349808         3.23622          3.2105 
       0.355968         3.11412         3.08996 
       0.362074         3.00449          2.9747 
       0.368217         2.89438         2.86566 
       0.374374         2.80182         2.76525 
       0.380519         2.70184         2.67375 
       0.386598         2.61506         2.59088 
       0.392688         2.53491         2.51354 
        0.39888         2.46324          2.4385 
       0.405048         2.39169         2.36586 
       0.411186          2.3187         2.29457 
       0.417313         2.24952         2.22424 
       0.423458         2.17521         2.15518 
       0.429607         2.11454         2.08822 
       0.435692         2.05211         2.02487 
       0.441815         1.98931         1.96465 
       0.447964         1.92696         1.90773 
       0.454126         1.87866         1.85398 
       0.460267         1.83134         1.80328 
       0.466387         1.78076         1.75492 
        0.47254         1.73509         1.70786 
       0.478662          1.6873         1.66231 
       0.484765         1.64457         1.61806 
       0.490885         1.59817         1.57481 
       0.497035          1.5524         1.53264 
       0.503198         1.51535         1.49192 
       0.509342         1.47299         1.45302 
       0.515458         1.43894         1.41595 
       0.521598         1.40348          1.3803 
       0.527764         1.37235         1.34601 
       0.533884         1.33358         1.31328 
           0.54         1.30343         1.28167 
       0.546137         1.27009         1.25087 
       0.552299         1.24143         1.22082 
       0.558452         1.21263          1.1917 
       0.564573         1.18466         1.16361 
       0.570708         1.15726         1.13632 
       0.576825         1.13124            1.11 
       0.582926         1.10351         1.08464 
       0.589034         1.08223         1.06015 
       0.595184         1.05942         1.03634 
       0.601379         1.03381         1.01316 
       0.607522         1.01047        0.990886 
       0.613639        0.986863        0.969348 
       0.619772        0.968542         0.94837 
       0.625918        0.947775        0.927952 
       0.632068        0.927883         0.90811 
       0.638161        0.908169        0.889018 
         0.6443        0.889099        0.870337 
       0.650464        0.871418        0.852133 
       0.656582        0.854826        0.834593 
       0.662703        0.836836         0.81756 
       0.668861        0.817715         0.80093 
       0.675024        0.802652        0.784766 
       0.681124        0.790949        0.769222 
       0.687237        0.773124        0.754069 
       0.693381        0.755957        0.739249 
       0.699536        0.744523        0.724793 
       0.705665        0.730156         0.71078 
       0.711789         0.71395        0.697149 
       0.717957        0.701587        0.683784 
        0.72409        0.688018        0.670849 
       0.730186        0.677355        0.658336 
       0.736317        0.663011        0.646083 
       0.742472        0.652304        0.634103 
       0.748622        0.640811        0.622443 
        0.75476        0.628059        0.611105 
       0.760888        0.618549        0.600068 
       0.767043        0.603368         0.58926 
       0.773185         0.59494         0.57874 
       0.779291        0.586506        0.568538 
       0.785407        0.575325        0.558568 
       0.791564        0.565037        0.548777 
       0.797719        0.555413        0.539227 
       0.803834        0.545721        0.529968 
       0.809972        0.537076        0.520896 
       0.816124        0.527578         0.51202 
       0.822261        0.519505        0.503377 
       0.828378        0.510262        0.494961 
       0.834502        0.502068        0.486733 
       0.840667        0.494625        0.478641 
       0.846816        0.486462        0.470756 
       0.852925        0.477548          0.4631 
       0.859047        0.470331        0.455599 
       0.865192         0.46315         0.44824 
       0.871341        0.456556         0.44104 
       0.877463        0.448047        0.434032 
       0.883569        0.441475        0.427194 
       0.889708        0.435104         0.42047 
       0.895864        0.428541        0.413874 
       0.902008        0.421319        0.407434 
       0.908149        0.415567        0.401136 
       0.914301        0.410146        0.394962 
       0.920448        0.403755        0.388924 
       0.926574        0.398475        0.383035 
       0.932687        0.392412         0.37728 
       0.938823        0.385473        0.371624 
       0.944975        0.380354        0.366072 
       0.951105        0.374064        0.360654 
       0.957225        0.368602        0.355355 
       0.963368        0.364128        0.350146 
       0.969511         0.35952        0.345041 
       0.975621        0.353312        0.340067 
       0.981748        0.347682        0.335178 
       0.987916        0.343222        0.330356 
        0.99406        0.339083        0.325647 
        1.00019        0.333939         0.32104 
        1.00632        0.330368        0.316526 
        1.01246        0.325656        0.312094 
        1.01859        0.321041        0.307754 
        1.02471        0.316088        0.303503 
        1.03085         0.31147        0.299318 
        1.03698        0.308079        0.295221 
        1.04314        0.303888        0.291184 
        1.04929        0.300573        0.287233 
        1.05541        0.295428        0.283371 
        1.06154        0.292118        0.279571 
        1.06769        0.288593        0.275836 
        1.07382        0.284822        0.272181 
        1.07993        0.281308        0.268602 
        1.08607        0.277302        0.265072 
        1.09222        0.273803        0.261603 
        1.09836         0.27038          0.2582 
        1.10449        0.266684        0.254862 
        1.11063        0.263403        0.251579 
        1.11677        0.260663        0.248356 
         1.1229        0.256642        0.245195 
        1.12903        0.253955        0.242086 
        1.13518        0.250615        0.239029 
        1.14131        0.247789        0.236027 
        1.14745        0.245585        0.233078 
        1.15359         0.24192        0.230179 
        1.15973         0.23942        0.227329 
        1.16584        0.236141         0.22454 
        1.17197        0.233034        0.221794 
        1.17811        0.230281        0.219085 
        1.18424         0.22759         0.21643 
        1.19038        0.224536        0.213811 
        1.19652         0.22281        0.211237 
        1.20267        0.220101        0.208705 
        1.20881        0.216704        0.206216 
        1.21495        0.214576        0.203771 
        1.22108        0.212377        0.201366 
         1.2272        0.209547        0.199006 
        1.23334        0.207254        0.196679 
        1.23949        0.205371        0.194384 
        1.24562        0.202863        0.192131 
        1.25174        0.200702        0.189918 
        1.25789        0.197764        0.187734 
        1.26402        0.196281        0.185588 
        1.27014        0.193468         0.18348 
        1.27628        0.191839          0.1814 
        1.28244        0.189755        0.179347 
        1.28858        0.187256         0.17733 
        1.29471        0.185464        0.175348 
        1.30084        0.183357        0.173398 
        1.30697        0.181804        0.171476 
        1.31312        0.179816        0.169579 
        1.31925        0.177774        0.167718 
        1.32537        0.175898        0.165887 
        1.33151        0.174052        0.164076 
        1.33765        0.172015        0.162293 
        1.34378        0.170052        0.160541 
        1.34992        0.168898        0.158814 
        1.35606        0.166819        0.157108 
         1.3622        0.165157         0.15543 
        1.36833        0.163739        0.153781 
        1.37445         0.16208        0.152157 
        1.38059        0.160242        0.150551 
        1.38675        0.158393        0.148964 
        1.39288        0.156551        0.147407 
        1.39901        0.155562        0.145873 
        1.40515        0.153791        0.144358 
         1.4113        0.152511        0.142864 
        1.41742        0.151023        0.141398 
        1.42355        0.148915        0.139949 
         1.4297        0.148053        0.138516 
        1.43585        0.146303        0.137104 
        1.44198         0.14503        0.135718 
        1.44809        0.143506        0.134353 
        1.45423        0.142136        0.133001 
        1.46036        0.140756        0.131671 
        1.46649        0.139342        0.130359 
        1.47263        0.137679        0.129064 
        1.47877        0.137123        0.127786 
        1.48491        0.135179        0.126524 
        1.49104        0.134516        0.125282 
        1.49718        0.132967        0.124056 
        1.50333        0.131794        0.122844 
        1.50947        0.130617        0.121651 
         1.5156         0.12932        0.120476 
        1.52172        0.128192        0.119316 
        1.52787        0.126693        0.118169 
          1.534        0.125849        0.117039 
        1.54013        0.124504        0.115924 
        1.54627        0.123606        0.114823 
        1.55241        0.122362        0.113735 
        1.55855        0.121324        0.112663 
        1.56467        0.120298        0.111608 
         1.5708        0.119142        0.110564 
        1.57695        0.118068        0.109531 
        1.58308        0.116681        0.108514 
        1.58922        0.115976        0.107509 
        1.59535        0.114787        0.106517 
         1.6015         0.11397        0.105537 
        1.60764        0.112758        0.104569 
        1.61376        0.111889        0.103616 
        1.61989        0.110826        0.102674 
        1.62604        0.109981        0.101742 
        1.63218        0.109024        0.100822 
        1.63831        0.108029       0.0999159 
        1.64444        0.107124       0.0990203 
        1.65059        0.105984       0.0981337 
        1.65673        0.105263       0.0972588 
        1.66285        0.104505       0.0963971 
        1.66898        0.103362       0.0955456 
        1.67512        0.102555       0.0947027 
        1.68127        0.101693       0.0938692 
         1.6874        0.100948       0.0930476 
        1.69353        0.100106       0.0922364 
        1.69967       0.0990033       0.0914329 
        1.70581       0.0985597       0.0906394 
        1.71193       0.0977364       0.0898582 
        1.71806       0.0967873       0.0890847 
        1.72421       0.0959127       0.0883187 
        1.73035       0.0952261       0.0875627 
        1.73649       0.0944618       0.0868157 
        1.74262       0.0936725        0.086078 
        1.74876       0.0930666       0.0853484 
        1.75489       0.0921478       0.0846288 
        1.76101       0.0914908       0.0839177 
        1.76715       0.0908018       0.0832138 
        1.77329       0.0899349       0.0825172 
        1.77943       0.0892177       0.0818282 
        1.78557       0.0887202       0.0811482 
        1.79171       0.0879871       0.0804758 
        1.79785       0.0871357       0.0798108 
        1.80399       0.0864134       0.0791536 
        1.81012       0.0858809       0.0785047 
        1.81625        0.085234       0.0778633 
        1.82239       0.0846775       0.0772281 
        1.82853       0.0838512       0.0766004 
        1.83466        0.083247       0.0759803 
        1.84078       0.0826102       0.0753677 
        1.84692       0.0820083       0.0747608 
        1.85306       0.0813989         0.07416 
         1.8592       0.0808227       0.0735667 
        1.86533       0.0802251       0.0729802 
        1.87147       0.0795581       0.0723995 
        1.87761       0.0788835       0.0718248 
        1.88375       0.0781852       0.0712571 
        1.88988       0.0777731       0.0706961 
        1.89601       0.0770999       0.0701409 
        1.90215       0.0765038       0.0695912 
        1.90829       0.0758621       0.0690477 
        1.91442       0.0754734       0.0685099 
        1.92056       0.0749206       0.0679784 
         1.9267        0.074333        0.067452 
        1.93284        0.073677       0.0669308 
        1.93897       0.0731596       0.0664161 
        1.94509       0.0726692        0.065908 
        1.95123       0.0721626       0.0654038 
        1.95737        0.071718       0.0649046 
        1.96349       0.0712393       0.0644119 
        1.96964       0.0706123       0.0639229 
        1.97578       0.0701852       0.0634388 
        1.98192       0.0696556       0.0629607 
        1.98805       0.0692231       0.0624874 
        1.99419        0.068757        0.062019 
        2.00033       0.0681434       0.0615552 
        2.00647       0.0677085       0.0610962 
         2.0126       0.0673671       0.0606427 
        2.01874        0.066762       0.0601931 
        2.02488       0.0662947       0.0597477 
        2.03101       0.0658381       0.0593077 
        2.03714       0.0656327       0.0588725 
        2.04328       0.0648599       0.0584411 
        2.04941       0.0645702       0.0580145 
        2.05554       0.0641664       0.0575924 
        2.06167       0.0636384        0.057174 
        2.06781        0.063145       0.0567596 
        2.07396       0.0627243       0.0563488 
        2.08009        0.062359       0.0559428 
        2.08622       0.0619923       0.0555412 
        2.09237       0.0615125       0.0551428 
        2.09851       0.0611068       0.0547482 
        2.10464       0.0607103       0.0543582 
        2.11077       0.0602656       0.0539724 
        2.11691       0.0599772       0.0535895 
        2.12305       0.0593823       0.0532103 
        2.12918       0.0590446       0.0528358 
        2.13531        0.058693       0.0524647 
        2.14145       0.0582929       0.0520964 
         2.1476       0.0579792       0.0517313 
        2.15372       0.0575739       0.0513714 
        2.15985       0.0571798       0.0510146 
        2.16599       0.0567039       0.0506602 
        2.17213       0.0564975       0.0503096 
        2.17827       0.0561062       0.0499623 
         2.1844       0.0557107       0.0496187 
        2.19054       0.0554053       0.0492781 
        2.19666       0.0550262       0.0489413 
         2.2028       0.0545473       0.0486073 
        2.20893       0.0543447       0.0482763 
        2.21508        0.053921       0.0479479 
        2.22122       0.0535516       0.0476226 
        2.22736       0.0532765       0.0473009 
        2.23349       0.0529306       0.0469823 
        2.23962       0.0526546       0.0466664 
        2.24577       0.0523202       0.0463532 
         2.2519       0.0519444       0.0460433 
        2.25802       0.0516798       0.0457367 
        2.26417        0.051369        0.045432 
        2.27031       0.0510019       0.0451299 
        2.27644       0.0507957       0.0448314 
        2.28257       0.0503978       0.0445356 
        2.28872         0.05008       0.0442419 
        2.29486       0.0498278       0.0439509 
        2.30099       0.0494656       0.0436631 
        2.30712       0.0492857       0.0433778 
        2.31326       0.0488145       0.0430946 
         2.3194       0.0486027       0.0428141 
        2.32553       0.0483387       0.0425365 
        2.33166       0.0479695       0.0422615 
         2.3378        0.047702       0.0419886 
        2.34394       0.0474474        0.041718 
        2.35007       0.0471784       0.0414501 
        2.35619       0.0470391        0.041185 
        2.36233       0.0465909       0.0409215 
        2.36848       0.0463505       0.0406598 
        2.37462       0.0461348        0.040401 
        2.38075       0.0458417       0.0401446 
        2.38689       0.0455949       0.0398903 
        2.39303       0.0453633       0.0396382 
        2.39916       0.0449729       0.0393885 
        2.40529       0.0447379       0.0391411 
        2.41143       0.0444446       0.0388955 
        2.41757       0.0442475        0.038652 
         2.4237       0.0439802        0.038411 
        2.42983       0.0437373       0.0381721 
        2.43598       0.0434663       0.0379346 
        2.44211       0.0431822       0.0376995 
        2.44823        0.043009       0.0374669 
        2.45437       0.0427418       0.0372356 
        2.46052       0.0425183       0.0370061 
        2.46665        0.042257        0.036779 
        2.47279       0.0420731       0.0365538 
        2.47892       0.0418778       0.0363304 
        2.48507       0.0415687       0.0361086 
         2.4912       0.0413702       0.0358891 
