# k  (h/Mpc)    P(k)  (Mpc/h)^3    P_linear(k)  (Mpc/h)^3
     0.00783031         12513.9         12585.4 
       0.013688         14810.9         15162.7 
       0.019231         14869.7         15069.6 
      0.0249154         13734.4         13697.5 
      0.0312784         11552.3         11641.9 
      0.0375637         9596.25         9732.29 
      0.0433917         8313.57         8337.59 
      0.0492413         7267.45         7338.67 
      0.0555754         6611.05         6618.01 
      0.0619321         5935.55         6118.87 
       0.067871         5630.96         5720.45 
      0.0738098         5252.09         5298.88 
      0.0800417         4772.25         4797.01 
      0.0862327         4223.54         4259.33 
      0.0921407         3763.27         3758.98 
      0.0982031         3372.21         3308.47 
       0.104506          2967.4         2940.13 
       0.110769         2730.64         2679.73 
       0.116806         2603.08         2510.44 
       0.122832         2451.44         2391.65 
       0.129052         2336.91         2287.84 
       0.135211         2264.24         2176.41 
       0.141259         2099.23         2045.18 
       0.147318         1933.68         1893.29 
       0.153489          1798.9         1729.97 
       0.159709         1696.78         1573.47 
       0.165845         1535.74         1440.73 
       0.171974          1485.5         1336.33 
       0.178125         1421.46         1259.13 
       0.184229         1317.98         1203.47 
        0.19034         1295.95         1159.41 
       0.196428          1257.6         1117.96 
       0.202534          1177.2          1072.1 
       0.208729         1154.54         1018.37 
       0.214876         1099.42         959.187 
       0.220989         1031.08          898.55 
       0.227147         999.674         840.503 
        0.23329         955.697         789.456 
       0.239377         941.899         747.488 
       0.245482         892.088         713.743 
       0.251667         858.915         686.121 
       0.257832         846.863         662.378 
       0.263955         804.213         639.837 
       0.270079         777.673         616.348 
        0.27624         745.545         591.026 
       0.282372         731.175         564.459 
        0.28843         722.054         537.964 
       0.294538         684.478         512.352 
       0.300721         666.121         488.666 
        0.30691         652.442         467.832 
       0.313033         623.344         449.986 
       0.319153         614.412          434.42 
       0.325316         604.629         420.201 
        0.33145         590.377         406.729 
       0.337538         569.057         393.409 
       0.343633         553.748         379.879 
       0.349808         540.226         365.995 
       0.355968         530.175         352.254 
       0.362074          511.42         339.114 
       0.368217         508.923         326.683 
       0.374374         499.642         315.236 
       0.380519         479.522         304.805 
       0.386598         474.807         295.358 
       0.392688         463.184          286.54 
        0.39888         451.417         277.986 
       0.405048          442.46         269.705 
       0.411186         441.223         261.578 
       0.417313         435.791          253.56 
       0.423458          423.11         245.687 
       0.429607         411.165         238.054 
       0.435692         405.506         230.832 
       0.441815         398.063         223.967 
       0.447964         390.087         217.478 
       0.454126         385.573         211.351 
       0.460267         379.209          205.57 
       0.466387          372.02         200.057 
        0.47254         366.935         194.693 
       0.478662         359.083           189.5 
       0.484765          354.67         184.456 
       0.490885          350.77         179.525 
       0.497035         343.722         174.718 
       0.503198         343.195         170.076 
       0.509342         335.035         165.642 
       0.515458         329.295         161.415 
       0.521598         324.394         157.352 
       0.527764         319.604         153.443 
       0.533884         317.508         149.711 
           0.54         313.068         146.108 
       0.546137         306.431         142.596 
       0.552299         305.264         139.171 
       0.558452         300.109         135.852 
       0.564573         297.966         132.648 
       0.570708          292.97         129.538 
       0.576825         287.963         126.537 
       0.582926         286.069         123.647 
       0.589034         281.377         120.855 
       0.595184          279.52         118.141 
       0.601379         275.135         115.498 
       0.607522         269.389         112.959 
       0.613639          268.48         110.503 
       0.619772         267.176         108.112 
       0.625918          262.73         105.784 
       0.632068         259.349         103.522 
       0.638161         257.853         101.346 
         0.6443         254.586         99.2163 
       0.650464         250.987         97.1411 
       0.656582         248.712         95.1415 
       0.662703         247.275         93.1999 
       0.668861         242.492          91.304 
       0.675024         241.701         89.4614 
       0.681124         238.529         87.6893 
       0.687237         236.796          85.962 
       0.693381         233.342         84.2725 
       0.699536         231.978         82.6246 
       0.705665         229.605         81.0271 
       0.711789         227.257         79.4732 
       0.717957         225.063         77.9495 
        0.72409         222.089          76.475 
       0.730186         223.483         75.0486 
       0.736317         219.662         73.6517 
       0.742472         217.167         72.2861 
       0.748622         214.629         70.9569 
        0.75476         214.705         69.6643 
       0.760888         211.924         68.4061 
       0.767043         209.082          67.174 
       0.773185         207.686         65.9748 
       0.779291         205.181         64.8118 
       0.785407         204.337         63.6753 
       0.791564         202.453         62.5591 
       0.797719         199.141         61.4704 
       0.803834         200.442         60.4149 
       0.809972         197.924         59.3807 
       0.816124         194.814         58.3688 
       0.822261         193.607         57.3835 
       0.828378         193.162         56.4242 
       0.834502          190.67         55.4862 
       0.840667          190.66         54.5637 
       0.846816         187.133         53.6649 
       0.852925         186.757         52.7921 
       0.859047         184.984          51.937 
       0.865192         184.568         51.0981 
       0.871341         182.261         50.2773 
       0.877463         180.637         49.4784 
       0.883569         180.426         48.6989 
       0.889708         178.663         47.9324 
       0.895864         176.952         47.1805 
       0.902008         175.376         46.4464 
       0.908149         173.868         45.7284 
       0.914301         172.835         45.0245 
       0.920448         172.541         44.3362 
       0.926574         170.384         43.6648 
       0.932687         170.035         43.0088 
       0.938823          168.58         42.3641 
       0.944975         167.744         41.7311 
       0.951105         165.973         41.1135 
       0.957225         164.961         40.5094 
       0.963368         164.228         39.9156 
       0.969511         162.128         39.3337 
       0.975621         160.672         38.7666 
       0.981748         160.154         38.2093 
       0.987916         159.325         37.6595 
        0.99406         158.175         37.1227 
        1.00019         157.222         36.5976 
        1.00632         156.159         36.0831 
        1.01246         155.158         35.5778 
        1.01859         153.918         35.0831 
        1.02471         152.802         34.5984 
        1.03085         151.824         34.1213 
        1.03698         150.885         33.6543 
        1.04314         150.496         33.1941 
        1.04929         149.644         32.7436 
        1.05541         148.758         32.3034 
        1.06154         147.217         31.8703 
        1.06769         146.527         31.4444 
        1.07382         145.788         31.0278 
        1.07993          144.53         30.6198 
        1.08607         144.002         30.2174 
        1.09222         142.737         29.8219 
        1.09836         142.082          29.434 
        1.10449         141.059         29.0534 
        1.11063         140.114         28.6792 
        1.11677         139.503         28.3118 
         1.1229         138.373         27.9514 
        1.12903         137.498          27.597 
        1.13518         136.633         27.2486 
        1.14131         136.139         26.9063 
        1.14745         135.152         26.5702 
        1.15359         133.969         26.2397 
        1.15973         133.594         25.9148 
        1.16584         132.719         25.5968 
        1.17197         132.106         25.2838 
        1.17811         130.948          24.975 
        1.18424         130.435         24.6723 
        1.19038         129.663         24.3738 
        1.19652         128.888         24.0803 
        1.20267         127.997         23.7917 
        1.20881         127.086         23.5079 
        1.21495         126.817         23.2292 
        1.22108         125.876         22.9551 
         1.2272         125.084         22.6861 
        1.23334           124.6         22.4208 
        1.23949         124.019         22.1591 
        1.24562         123.092         21.9024 
        1.25174         122.702         21.6501 
        1.25789         121.596          21.401 
        1.26402         121.324         21.1564 
        1.27014          120.49         20.9162 
        1.27628           119.6          20.679 
        1.28244         119.235          20.445 
        1.28858         118.347          20.215 
        1.29471         117.592         19.9891 
        1.30084         116.848         19.7669 
        1.30697         116.219         19.5477 
        1.31312         115.587         19.3315 
        1.31925         114.771         19.1193 
        1.32537         114.353         18.9105 
        1.33151         114.074         18.7041 
        1.33765         113.061         18.5009 
        1.34378         112.842         18.3012 
        1.34992         112.168         18.1042 
        1.35606          111.56         17.9098 
         1.3622         111.185         17.7185 
        1.36833         110.068         17.5305 
        1.37445         109.956         17.3453 
        1.38059         109.225         17.1623 
        1.38675         108.521         16.9815 
        1.39288         107.826         16.8039 
        1.39901         107.306         16.6291 
        1.40515         106.907         16.4563 
         1.4113         106.226          16.286 
        1.41742         105.744         16.1189 
        1.42355           105.4         15.9537 
         1.4297         104.573         15.7904 
        1.43585         104.115         15.6294 
        1.44198           103.2         15.4713 
        1.44809         102.784         15.3157 
        1.45423          102.67         15.1617 
        1.46036         101.627         15.0101 
        1.46649         101.179         14.8605 
        1.47263         100.617         14.7128 
        1.47877         100.123         14.5672 
        1.48491         99.7773         14.4234 
        1.49104         98.8001         14.2818 
        1.49718         98.5224          14.142 
        1.50333         98.1689         14.0038 
        1.50947         97.6703         13.8678 
         1.5156         97.2232         13.7338 
        1.52172         96.4338         13.6016 
        1.52787         96.1614         13.4709 
          1.534         95.6222          13.342 
        1.54013         95.1546          13.215 
        1.54627         94.4412         13.0894 
        1.55241         94.3266         12.9654 
        1.55855         93.5274         12.8432 
        1.56467         92.9991         12.7229 
         1.5708         92.3246         12.6039 
        1.57695         92.2375         12.4861 
        1.58308          91.611         12.3702 
        1.58922         91.4856         12.2556 
        1.59535         91.1909         12.1426 
         1.6015         90.3372         12.0308 
        1.60764         89.8343         11.9205 
        1.61376         89.5692         11.8119 
        1.61989         89.0459         11.7045 
        1.62604         88.5658         11.5983 
        1.63218         88.1723         11.4934 
        1.63831         87.7298         11.3901 
        1.64444         87.1176          11.288 
        1.65059         86.7348         11.1869 
        1.65673         86.5826         11.0872 
        1.66285         85.9976         10.9889 
        1.66898         85.3741         10.8919 
        1.67512         84.9374         10.7958 
        1.68127         84.7269         10.7008 
         1.6874         84.0606         10.6071 
        1.69353          83.682         10.5146 
        1.69967         83.2615          10.423 
        1.70581         83.0333         10.3326 
        1.71193         82.5002         10.2435 
        1.71806         82.1791         10.1553 
        1.72421         81.6616          10.068 
        1.73035         81.3051         9.98183 
        1.73649          80.805         9.89667 
        1.74262         80.4854         9.81258 
        1.74876          79.996         9.72941 
        1.75489         79.6909         9.64737 
        1.76101         79.3228         9.56631 
        1.76715         78.8639         9.48607 
        1.77329         78.4325         9.40666 
        1.77943         78.2257         9.32812 
        1.78557         77.8414          9.2506 
        1.79171          77.294         9.17394 
        1.79785         76.8168         9.09815 
        1.80399         76.7807         9.02322 
        1.81012         76.1342         8.94925 
        1.81625         75.7591         8.87613 
        1.82239         75.4113         8.80373 
        1.82853         75.0142         8.73217 
        1.83466         74.5599         8.66147 
        1.84078          74.393         8.59164 
        1.84692         74.1818         8.52246 
        1.85306         73.8183         8.45396 
         1.8592         73.3846         8.38633 
        1.86533         72.9191         8.31947 
        1.87147         72.6176         8.25327 
        1.87761          71.972         8.18776 
        1.88375         71.9266         8.12304 
        1.88988         71.3182          8.0591 
        1.89601         71.3273          7.9958 
        1.90215         70.7295         7.93314 
        1.90829         70.3725         7.87118 
        1.91442          70.032         7.80988 
        1.92056         69.8683         7.74928 
         1.9267         69.4057         7.68927 
        1.93284         69.2115         7.62986 
        1.93897         68.7433         7.57119 
        1.94509         68.4311         7.51326 
        1.95123         68.1493         7.45579 
        1.95737         67.8592         7.39889 
        1.96349         67.5776         7.34272 
        1.96964         67.2051         7.28697 
        1.97578         66.8289         7.23178 
        1.98192         66.3849         7.17728 
        1.98805         65.9284         7.12333 
        1.99419          66.003         7.06993 
        2.00033         65.4009         7.01705 
        2.00647         65.1376         6.96474 
         2.0126         64.8801         6.91304 
        2.01874          64.761         6.86179 
        2.02488         64.4283         6.81101 
        2.03101         63.9459         6.76085 
        2.03714         63.7047         6.71124 
        2.04328         63.4576         6.66207 
        2.04941         63.0235         6.61343 
        2.05554         62.7684         6.56531 
        2.06167         62.4038         6.51761 
        2.06781         62.1481         6.47038 
        2.07396         61.8836         6.42355 
        2.08009         61.5757         6.37726 
        2.08622         61.3184         6.33148 
        2.09237         61.0472         6.28607 
        2.09851         60.5302         6.24109 
        2.10464         60.3688         6.19662 
        2.11077         60.2244         6.15264 
        2.11691          59.878           6.109 
        2.12305          59.499         6.06577 
        2.12918         59.2348         6.02307 
        2.13531         59.0073         5.98078 
        2.14145         58.6377         5.93879 
         2.1476         58.5686         5.89716 
        2.15372         58.1102         5.85614 
        2.15985         57.8503         5.81547 
        2.16599         57.6182         5.77507 
        2.17213         57.2735         5.73509 
        2.17827         56.9675         5.69551 
         2.1844          56.685         5.65633 
        2.19054         56.5966         5.61751 
        2.19666         56.3695         5.57912 
         2.2028         55.9313         5.54104 
        2.20893         55.6573          5.5033 
        2.21508         55.3269         5.46588 
        2.22122         55.1022         5.42878 
        2.22736         54.8724         5.39211 
        2.23349         54.6193         5.35579 
        2.23962         54.4451         5.31978 
        2.24577         54.1256         5.28408 
         2.2519         53.8226         5.24875 
        2.25802         53.6252          5.2138 
        2.26417         53.3254         5.17907 
        2.27031         53.1555         5.14463 
        2.27644         52.8921          5.1106 
        2.28257         52.6095         5.07688 
        2.28872         52.3773          5.0434 
        2.29486           52.19         5.01023 
        2.30099         51.7702         4.97742 
        2.30712         51.6567          4.9449 
        2.31326         51.4724         4.91261 
         2.3194          51.199         4.88063 
        2.32553         50.9188         4.84899 
        2.33166         50.6938         4.81764 
         2.3378         50.4323         4.78653 
        2.34394         50.2049         4.75568 
        2.35007         49.9803         4.72515 
        2.35619         49.7872         4.69492 
        2.36233          49.573         4.66489 
        2.36848         49.2829         4.63505 
        2.37462         49.0013         4.60555 
        2.38075         48.8246         4.57632 
        2.38689         48.5438         4.54733 
        2.39303         48.4351         4.51859 
        2.39916         48.1212         4.49013 
        2.40529         47.9881         4.46192 
        2.41143         47.7625         4.43393 
        2.41757         47.5127         4.40617 
         2.4237         47.3595          4.3787 
        2.42983         47.1123         4.35146 
        2.43598         46.9291         4.32438 
        2.44211         46.5698         4.29758 
        2.44823         46.5172         4.27107 
        2.45437         46.1782         4.24471 
        2.46052         45.9056         4.21854 
        2.46665         45.7393         4.19265 
        2.47279         45.5577         4.16698 
        2.47892          45.382         4.14151 
        2.48507         45.1942         4.11623 
         2.4912         44.8952         4.09121 
