# k  (h/Mpc)    P(k)  (Mpc/h)^3    P_linear(k)  (Mpc/h)^3
     0.00783031         3136.42         3170.19 
       0.013688         3400.51         3451.43 
       0.019231         3090.99         3111.02 
      0.0249154          2558.7         2547.91 
      0.0312784         1944.97         1939.89 
      0.0375637         1494.91         1495.34 
      0.0433917         1242.29         1235.91 
      0.0492413         1089.06         1087.91 
      0.0555754         1004.94         999.384 
      0.0619321         922.799         931.392 
       0.067871         853.453         854.059 
      0.0738098         756.139         754.737 
      0.0800417         642.953         638.298 
      0.0862327         533.706         530.428 
      0.0921407         453.339         449.359 
      0.0982031         400.011         393.441 
       0.104506         362.606         360.842 
       0.110769         346.959         344.845 
       0.116806         338.316         334.395 
       0.122832         321.583         320.306 
       0.129052          300.29         297.596 
       0.135211          272.88         268.024 
       0.141259         240.694         236.829 
       0.147318         211.751          208.64 
       0.153489         190.809         186.571 
       0.159709         177.307         171.977 
       0.165845          166.25           163.7 
       0.171974         163.834         158.832 
       0.178125         158.512         154.426 
       0.184229         151.036         148.343 
        0.19034         143.742         139.732 
       0.196428         133.688         129.241 
       0.202534         121.083         118.245 
       0.208729          113.15         108.151 
       0.214876         105.903         100.182 
       0.220989         98.6584         94.5015 
       0.227147         95.8638         90.6135 
        0.23329         92.7228         87.7569 
       0.239377         90.3019         85.0725 
       0.245482         86.4776         81.9057 
       0.251667          81.947         77.9881 
       0.257832         78.9496         73.5417 
       0.263955         73.4756         69.0166 
       0.270079          69.252         64.8274 
        0.27624         65.5527         61.2523 
       0.282372         62.8912         58.4239 
        0.28843          61.488         56.2207 
       0.294538         59.0874         54.3677 
       0.300721          56.712         52.5998 
        0.30691         55.3806         50.7425 
       0.313033         53.0082         48.7332 
       0.319153         51.5006         46.5956 
       0.325316         48.8594          44.424 
        0.33145         46.6918         42.3797 
       0.337538         44.8732         40.5547 
       0.343633         43.4804         38.9749 
       0.349808          41.899         37.5911 
       0.355968         40.5556         36.3669 
       0.362074         39.7296         35.2244 
       0.368217         38.4261         34.0823 
       0.374374         37.3784         32.9171 
       0.380519         35.7853         31.7305 
       0.386598         34.5654         30.5674 
       0.392688         33.3043         29.4472 
        0.39888         32.5614         28.3825 
       0.405048         31.6483         27.4167 
       0.411186         30.6649         26.5403 
       0.417313         29.7515          25.732 
       0.423458         28.8062         24.9673 
       0.429607         28.2673         24.2252 
       0.435692         27.7237          23.499 
       0.441815         26.6113         22.7781 
       0.447964         25.6951         22.0682 
       0.454126         25.1933         21.3788 
       0.460267          24.802         20.7242 
       0.466387          24.019         20.1111 
        0.47254          23.595         19.5313 
       0.478662         22.7948         18.9858 
       0.484765         22.2533         18.4681 
       0.490885         21.5553         17.9687 
       0.497035         21.1473         17.4808 
       0.503198         20.7168         17.0026 
       0.509342         20.0585         16.5384 
       0.515458         19.7109         16.0915 
       0.521598         19.2318         15.6599 
       0.527764         18.8891         15.2442 
       0.533884         18.4053         14.8491 
           0.54         18.0303         14.4715 
       0.546137         17.4673         14.1084 
       0.552299         17.1197         13.7572 
       0.558452          16.703         13.4176 
       0.564573         16.4865          13.089 
       0.570708         16.0767         12.7689 
       0.576825         15.8066         12.4596 
       0.582926         15.4765         12.1614 
       0.589034         15.1383         11.8733 
       0.595184         14.9361         11.5934 
       0.601379         14.5196         11.3211 
       0.607522         14.2128         11.0602 
       0.613639         13.9695         10.8087 
       0.619772         13.6919         10.5646 
       0.625918         13.4199         10.3276 
       0.632068         13.2508         10.0976 
       0.638161         12.9629         9.87655 
         0.6443         12.7318         9.66026 
       0.650464         12.3977         9.44952 
       0.656582         12.2954         9.24651 
       0.662703         12.0927         9.04944 
       0.668861         11.7746         8.85714 
       0.675024         11.5747         8.67046 
       0.681124         11.5337         8.49121 
       0.687237          11.271         8.31679 
       0.693381         10.9929         8.14652 
       0.699536         10.9162         7.98074 
       0.705665         10.6757         7.82026 
       0.711789          10.489         7.66428 
       0.717957          10.255         7.51145 
        0.72409          10.144         7.36361 
       0.730186         10.0767         7.22064 
       0.736317         9.83515         7.08069 
       0.742472         9.71925         6.94395 
       0.748622         9.54489         6.81097 
        0.75476         9.29401         6.68179 
       0.760888         9.24874         6.55618 
       0.767043         9.05618         6.43332 
       0.773185         8.93149         6.31388 
       0.779291         8.84648         6.19816 
       0.785407         8.69148         6.08519 
       0.791564         8.58673         5.97433 
       0.797719         8.39019          5.8663 
       0.803834         8.34728         5.76163 
       0.809972         8.16755         5.65914 
       0.816124         8.07443         5.55894 
       0.822261         7.96724         5.46143 
       0.828378         7.86551         5.36656 
       0.834502         7.76444         5.27387 
       0.840667         7.66484         5.18277 
       0.846816         7.49078         5.09409 
       0.852925         7.45808         5.00804 
       0.859047         7.33462          4.9238 
       0.865192         7.22939         4.84123 
       0.871341         7.13622          4.7605 
       0.877463          7.0315         4.68198 
       0.883569         6.97321         4.60544 
       0.889708         6.85059         4.53022 
       0.895864         6.75914          4.4565 
       0.902008         6.67704         4.38457 
       0.908149         6.57012         4.31427 
       0.914301         6.50616         4.24541 
       0.920448          6.4302         4.17812 
       0.926574         6.38024         4.11253 
       0.932687          6.2646         4.04848 
       0.938823         6.16829         3.98558 
       0.944975         6.13756         3.92387 
       0.951105         6.03797         3.86369 
       0.957225         5.99515         3.80487 
       0.963368         5.89624         3.74708 
       0.969511          5.8265         3.69049 
       0.975621         5.76314         3.63538 
       0.981748         5.68153         3.58125 
       0.987916         5.62908         3.52789 
        0.99406         5.56318         3.47581 
        1.00019         5.51043         3.42489 
        1.00632         5.46549         3.37503 
        1.01246         5.37923          3.3261 
        1.01859         5.32468         3.27821 
        1.02471         5.24846         3.23132 
        1.03085         5.21401         3.18519 
        1.03698         5.15641         3.14006 
        1.04314         5.08965         3.09561 
        1.04929         5.02318         3.05213 
        1.05541         4.97408         3.00965 
        1.06154         4.92556         2.96788 
        1.06769         4.89438         2.92684 
        1.07382         4.81067         2.88671 
        1.07993         4.76493         2.84743 
        1.08607         4.72963         2.80871 
        1.09222         4.66799         2.77068 
        1.09836         4.64121          2.7334 
        1.10449         4.56673         2.69684 
        1.11063         4.54292         2.66092 
        1.11677          4.5001         2.62566 
         1.1229         4.45223          2.5911 
        1.12903         4.40952         2.55713 
        1.13518         4.35169         2.52375 
        1.14131         4.31279         2.49098 
        1.14745         4.25173         2.45881 
        1.15359         4.20582          2.4272 
        1.15973         4.17232         2.39614 
        1.16584         4.13831         2.36576 
        1.17197         4.08746         2.33586 
        1.17811         4.05276         2.30639 
        1.18424         4.01928         2.27751 
        1.19038         3.99278         2.24905 
        1.19652         3.94906         2.22108 
        1.20267         3.91905         2.19358 
        1.20881         3.86687         2.16656 
        1.21495         3.83842         2.14004 
        1.22108         3.79757         2.11396 
         1.2272         3.75989         2.08838 
        1.23334         3.74394         2.06316 
        1.23949         3.69629          2.0383 
        1.24562         3.66925         2.01392 
        1.25174         3.64654         1.98997 
        1.25789         3.58988         1.96634 
        1.26402         3.56871         1.94313 
        1.27014          3.5455         1.92035 
        1.27628         3.50206         1.89787 
        1.28244          3.4839         1.87571 
        1.28858          3.4519         1.85393 
        1.29471         3.40931         1.83254 
        1.30084         3.38052         1.81151 
        1.30697         3.36577         1.79078 
        1.31312          3.3299         1.77034 
        1.31925         3.30154         1.75028 
        1.32537          3.2765         1.73056 
        1.33151         3.24308         1.71107 
        1.33765         3.21668         1.69188 
        1.34378         3.20686         1.67304 
        1.34992          3.1751         1.65446 
        1.35606         3.14689         1.63613 
         1.3622         3.11665         1.61811 
        1.36833         3.09393          1.6004 
        1.37445         3.06159         1.58297 
        1.38059         3.03215         1.56574 
        1.38675          3.0126         1.54872 
        1.39288          2.9994         1.53203 
        1.39901         2.96298         1.51559 
        1.40515         2.94609         1.49936 
         1.4113         2.92105         1.48337 
        1.41742         2.90435         1.46767 
        1.42355          2.8744         1.45217 
         1.4297          2.8499         1.43685 
        1.43585         2.83765         1.42175 
        1.44198          2.8111         1.40693 
        1.44809         2.78993         1.39235 
        1.45423         2.76796         1.37792 
        1.46036         2.75134         1.36372 
        1.46649         2.72977         1.34971 
        1.47263         2.71076         1.33589 
        1.47877         2.68905         1.32227 
        1.48491         2.67245         1.30881 
        1.49104         2.65284         1.29557 
        1.49718         2.63561         1.28251 
        1.50333         2.60905          1.2696 
        1.50947         2.59061          1.2569 
         1.5156         2.57595         1.24438 
        1.52172         2.55356         1.23204 
        1.52787         2.54148         1.21985 
          1.534          2.5192         1.20783 
        1.54013         2.50872         1.19598 
        1.54627         2.48044         1.18427 
        1.55241         2.46417         1.17272 
        1.55855          2.4526         1.16134 
        1.56467         2.44162         1.15014 
         1.5708         2.41239         1.13905 
        1.57695         2.39262         1.12809 
        1.58308         2.37616         1.11731 
        1.58922         2.37165         1.10665 
        1.59535         2.35372         1.09614 
         1.6015         2.32861         1.08575 
        1.60764         2.32048          1.0755 
        1.61376         2.30013         1.06541 
        1.61989          2.2819         1.05545 
        1.62604         2.27088         1.04558 
        1.63218         2.25668         1.03585 
        1.63831         2.24312         1.02627 
        1.64444         2.22504          1.0168 
        1.65059         2.21569         1.00743 
        1.65673         2.19722        0.998182 
        1.66285         2.18281         0.98908 
        1.66898         2.16964        0.980089 
        1.67512         2.15551        0.971191 
        1.68127         2.13818        0.962396 
         1.6874         2.12645        0.953728 
        1.69353         2.11095        0.945173 
        1.69967         2.09665        0.936701 
        1.70581         2.08517        0.928337 
        1.71193          2.0684        0.920106 
        1.71806         2.06002        0.911957 
        1.72421         2.04812         0.90389 
        1.73035         2.03231         0.89593 
        1.73649         2.02194        0.888068 
        1.74262         2.00888        0.880305 
        1.74876         1.99851         0.87263 
        1.75489         1.98278        0.865062 
        1.76101          1.9683        0.857586 
        1.76715         1.96561        0.850188 
        1.77329         1.94841        0.842868 
        1.77943          1.9326        0.835631 
        1.78557         1.92624        0.828489 
        1.79171         1.91162        0.821429 
        1.79785         1.90574         0.81445 
        1.80399         1.88978        0.807553 
        1.81012          1.8811        0.800745 
        1.81625         1.86569        0.794019 
        1.82239          1.8593        0.787359 
        1.82853         1.84706        0.780779 
        1.83466         1.83065         0.77428 
        1.84078         1.81999        0.767861 
        1.84692         1.80962        0.761505 
        1.85306         1.80061        0.755213 
         1.8592         1.79132        0.749002 
        1.86533         1.78337        0.742864 
        1.87147         1.77533        0.736787 
        1.87761         1.76401        0.730776 
        1.88375         1.75105        0.724838 
        1.88988         1.74193        0.718973 
        1.89601         1.72868        0.713169 
        1.90215         1.72049        0.707425 
        1.90829         1.71502        0.701746 
        1.91442         1.70324        0.696129 
        1.92056         1.69646        0.690579 
         1.9267         1.68514        0.685083 
        1.93284         1.67699        0.679643 
        1.93897         1.66521        0.674272 
        1.94509          1.6497        0.668971 
        1.95123         1.64933        0.663713 
        1.95737         1.64058        0.658508 
        1.96349         1.63002        0.653372 
        1.96964         1.62133        0.648275 
        1.97578         1.61219        0.643231 
        1.98192         1.59978         0.63825 
        1.98805          1.5939        0.633321 
        1.99419         1.58445        0.628444 
        2.00033         1.57366        0.623615 
        2.00647         1.57046        0.618839 
         2.0126         1.56221         0.61412 
        2.01874         1.55121        0.609443 
        2.02488         1.54802        0.604811 
        2.03101         1.53458        0.600236 
        2.03714         1.52833        0.595711 
        2.04328         1.52063        0.591228 
        2.04941         1.51148        0.586795 
        2.05554         1.50427        0.582411 
        2.06167         1.49915        0.578065 
        2.06781         1.48943        0.573762 
        2.07396         1.48192        0.569498 
        2.08009         1.47647        0.565283 
        2.08622         1.46947        0.561116 
        2.09237         1.46263        0.556983 
        2.09851         1.45183        0.552891 
        2.10464          1.4442        0.548846 
        2.11077         1.43938        0.544847 
        2.11691            1.43        0.540878 
        2.12305         1.42345        0.536948 
        2.12918          1.4162        0.533067 
        2.13531         1.41151        0.529224 
        2.14145         1.40286         0.52541 
         2.1476         1.39194        0.521629 
        2.15372         1.38585        0.517904 
        2.15985          1.3817        0.514211 
        2.16599          1.3753        0.510544 
        2.17213         1.37003        0.506916 
        2.17827         1.35942        0.503325 
         2.1844         1.35529        0.499771 
        2.19054          1.3475         0.49625 
        2.19666          1.3436        0.492768 
         2.2028         1.33267        0.489317 
        2.20893         1.33215        0.485896 
        2.21508         1.32187        0.482504 
        2.22122         1.31451        0.479144 
        2.22736         1.30908        0.475822 
        2.23349         1.30308        0.472533 
        2.23962         1.29862        0.469272 
        2.24577         1.29148         0.46604 
         2.2519         1.28835        0.462842 
        2.25802         1.27756         0.45968 
        2.26417         1.27351        0.456537 
        2.27031         1.26762        0.453422 
        2.27644         1.26077        0.450344 
        2.28257           1.256        0.447295 
        2.28872         1.24955        0.444268 
        2.29486         1.24308         0.44127 
        2.30099          1.2378        0.438306 
        2.30712         1.23332        0.435367 
        2.31326         1.22955        0.432451 
         2.3194         1.22166        0.429562 
        2.32553          1.2165        0.426705 
        2.33166         1.21073        0.423875 
         2.3378         1.20743        0.421066 
        2.34394         1.19875        0.418282 
        2.35007          1.1938        0.415528 
        2.35619          1.1906        0.412801 
        2.36233         1.18497        0.410092 
        2.36848         1.17891        0.407402 
        2.37462         1.17444        0.404741 
        2.38075         1.16982        0.402107 
        2.38689         1.16399        0.399494 
        2.39303          1.1591        0.396904 
        2.39916         1.15559         0.39434 
        2.40529          1.1482        0.391799 
        2.41143         1.14425        0.389278 
        2.41757         1.14027        0.386778 
         2.4237         1.13364        0.384305 
        2.42983         1.12957        0.381853 
        2.43598         1.12491        0.379416 
        2.44211         1.11897        0.377005 
        2.44823         1.11502         0.37462 
        2.45437         1.10985        0.372248 
        2.46052         1.10592        0.369896 
        2.46665         1.10065        0.367567 
        2.47279         1.09638         0.36526 
        2.47892         1.09376         0.36297 
        2.48507         1.08649        0.360698 
         2.4912         1.08399         0.35845 
