# k  (h/Mpc)    P(k)  (Mpc/h)^3    P_linear(k)  (Mpc/h)^3
     0.00783031         3803.06         3854.78 
       0.013688         4621.27         4615.91 
       0.019231         4544.64         4540.77 
      0.0249154         4048.72         4086.29 
      0.0312784          3454.8         3461.92 
      0.0375637         2935.83         2925.43 
      0.0433917         2549.25         2560.48 
      0.0492413         2309.58         2309.93 
      0.0555754         2097.74          2120.2 
      0.0619321          1969.1         1958.26 
       0.067871         1783.67         1797.46 
      0.0738098         1606.18         1618.43 
      0.0800417         1407.54         1423.54 
      0.0862327         1240.89         1245.07 
      0.0921407         1109.92         1105.47 
      0.0982031         998.464         999.433 
       0.104506         936.939         924.098 
       0.110769         880.667         871.744 
       0.116806         830.451         828.629 
       0.122832         788.826         782.321 
       0.129052          726.09         726.555 
       0.135211         667.665         665.408 
       0.141259         616.012         605.602 
       0.147318         566.884          552.14 
       0.153489         519.574         508.252 
       0.159709         489.006         475.337 
       0.165845         469.664         451.555 
       0.171974         444.964          432.46 
       0.178125         426.768         414.045 
       0.184229         407.946         393.952 
        0.19034         378.894         371.412 
       0.196428         362.158         347.626 
       0.202534          343.94         324.367 
       0.208729         321.456          303.23 
       0.214876         301.997         285.722 
       0.220989         291.488         271.724 
       0.227147         276.308         260.241 
        0.23329         265.967         250.183 
       0.239377         258.206         240.475 
       0.245482         242.839         230.322 
       0.251667         236.629          219.49 
       0.257832         226.458         208.488 
       0.263955         216.177         197.941 
       0.270079          206.83         188.276 
        0.27624         201.331         179.724 
       0.282372         193.519         172.364 
        0.28843         186.018         165.965 
       0.294538          178.66         160.049 
       0.300721         175.386         154.267 
        0.30691         167.364         148.487 
       0.313033         162.189         142.724 
       0.319153         154.552         137.022 
       0.325316         151.192         131.484 
        0.33145         145.251          126.33 
       0.337538         142.024         121.632 
       0.343633         136.971         117.352 
       0.349808         132.801         113.368 
       0.355968         129.708         109.644 
       0.362074         125.734         106.101 
       0.368217          122.03         102.616 
       0.374374         118.291         99.1901 
       0.380519         115.438         95.8496 
       0.386598         112.173         92.6639 
       0.392688         109.915         89.6309 
        0.39888         106.771         86.7242 
       0.405048         104.127         84.0121 
       0.411186         101.719         81.4723 
       0.417313         98.8301         79.0615 
       0.423458          96.459         76.7413 
       0.429607         93.9769         74.4963 
       0.435692         90.8641         72.3363 
       0.441815           89.84         70.2287 
       0.447964         88.2464         68.1878 
       0.454126         84.3467         66.2248 
       0.460267         83.2103         64.3547 
       0.466387         81.3377         62.5791 
        0.47254         79.8617         60.8749 
       0.478662         78.6837         59.2491 
       0.484765         76.3858         57.6882 
       0.490885         74.8566         56.1768 
       0.497035         73.8678         54.7073 
       0.503198         71.7912         53.2812 
       0.509342         70.0847         51.9063 
       0.515458         68.8766         50.5862 
       0.521598         67.8463         49.3106 
       0.527764         66.5982          48.078 
       0.533884         65.4835         46.8994 
           0.54         64.0878         45.7636 
       0.546137          63.296         44.6629 
       0.552299         62.3257         43.5943 
       0.558452         60.5829         42.5618 
       0.564573         59.5197         41.5661 
       0.570708         58.7245         40.5989 
       0.576825         57.5933         39.6651 
       0.582926         56.4043         38.7638 
       0.589034         55.1492          37.891 
       0.595184         54.4774         37.0407 
       0.601379         53.6535         36.2117 
       0.607522         52.3932         35.4151 
       0.613639         52.1605         34.6459 
       0.619772         50.8742         33.8975 
       0.625918         50.4927         33.1697 
       0.632068         49.7697          32.463 
       0.638161          48.926         31.7834 
         0.6443         48.0892         31.1188 
       0.650464         47.3501          30.471 
       0.656582         46.9283         29.8465 
       0.662703         45.9677         29.2396 
       0.668861         45.3215         28.6464 
       0.675024         44.6504         28.0694 
       0.681124         43.9059         27.5142 
       0.687237         43.1397         26.9731 
       0.693381         42.8079         26.4442 
       0.699536         41.8996         25.9287 
       0.705665         42.0069         25.4293 
       0.711789         40.8986         24.9437 
       0.717957         40.4568         24.4675 
        0.72409         39.9174         24.0066 
       0.730186         39.2897         23.5604 
       0.736317         39.0268         23.1233 
       0.742472         38.3576         22.6957 
       0.748622         38.0244         22.2794 
        0.75476           37.48         21.8746 
       0.760888         36.8964         21.4805 
       0.767043         36.4913         21.0946 
       0.773185         35.9547         20.7191 
       0.779291         35.7828         20.3549 
       0.785407         35.4163          19.999 
       0.791564         34.8019         19.6495 
       0.797719         34.1092         19.3086 
       0.803834          34.058         18.9781 
       0.809972         33.6186         18.6541 
       0.816124         32.9944         18.3371 
       0.822261         32.7573         18.0284 
       0.828378          32.516         17.7277 
       0.834502          32.129         17.4338 
       0.840667         31.7729         17.1447 
       0.846816         31.2668          16.863 
       0.852925         31.0065         16.5894 
       0.859047         30.6251         16.3214 
       0.865192         30.3465         16.0585 
       0.871341         30.1952         15.8013 
       0.877463          29.598         15.5509 
       0.883569         29.3266         15.3066 
       0.889708         29.0443         15.0664 
       0.895864         28.7772         14.8308 
       0.902008           28.54         14.6007 
       0.908149         28.2432         14.3757 
       0.914301         28.1426         14.1551 
       0.920448         27.6297         13.9394 
       0.926574           27.42          13.729 
       0.932687         27.1338         13.5234 
       0.938823         26.7664         13.3213 
       0.944975         26.6076         13.1229 
       0.951105         26.3559         12.9292 
       0.957225         26.0433         12.7399 
       0.963368          25.951         12.5537 
       0.969511          25.695         12.3712 
       0.975621         25.4875         12.1934 
       0.981748         25.1205         12.0187 
       0.987916         24.9875         11.8463 
        0.99406         24.7415         11.6779 
        1.00019         24.4425         11.5132 
        1.00632          24.312         11.3518 
        1.01246         24.1559         11.1933 
        1.01859         23.7823         11.0381 
        1.02471         23.7429          10.886 
        1.03085         23.5222         10.7363 
        1.03698         23.1508         10.5898 
        1.04314         23.0085         10.4454 
        1.04929         22.7985          10.304 
        1.05541         22.5596         10.1658 
        1.06154          22.469         10.0298 
        1.06769         22.3133         9.89619 
        1.07382         22.0814         9.76542 
        1.07993         21.9761         9.63733 
        1.08607         21.6829         9.51102 
        1.09222         21.5969         9.38687 
        1.09836         21.3378          9.2651 
        1.10449         21.2173         9.14564 
        1.11063         20.9556         9.02817 
        1.11677         20.8947         8.91282 
         1.1229         20.7876          8.7997 
        1.12903         20.5138         8.68846 
        1.13518         20.3364         8.57906 
        1.14131         20.2867         8.47162 
        1.14745         20.0987         8.36609 
        1.15359         20.0064         8.26235 
        1.15973         19.7849         8.16034 
        1.16584         19.5564         8.06052 
        1.17197         19.5737         7.96223 
        1.17811         19.3149         7.86529 
        1.18424         19.1633         7.77025 
        1.19038         19.1046         7.67651 
        1.19652         18.9679         7.58437 
        1.20267         18.8141         7.49374 
        1.20881         18.6898         7.40462 
        1.21495         18.5658          7.3171 
        1.22108         18.4132         7.23101 
         1.2272         18.2328         7.14651 
        1.23334         18.1553         7.06318 
        1.23949         17.9886         6.98099 
        1.24562         17.9228         6.90034 
        1.25174         17.8204         6.82109 
        1.25789         17.6686         6.74285 
        1.26402         17.6063         6.66598 
        1.27014         17.4072          6.5905 
        1.27628         17.2565         6.51597 
        1.28244         17.2047         6.44246 
        1.28858         17.1436         6.37018 
        1.29471         16.9856         6.29918 
        1.30084         16.8528         6.22933 
        1.30697         16.7462         6.16044 
        1.31312         16.5898          6.0925 
        1.31925         16.4959          6.0258 
        1.32537           16.45         5.96017 
        1.33151         16.3016         5.89529 
        1.33765         16.2332         5.83142 
        1.34378         16.1419         5.76862 
        1.34992         15.9492         5.70672 
        1.35606         15.9279         5.64559 
         1.3622         15.8268         5.58547 
        1.36833         15.6934         5.52637 
        1.37445         15.6621         5.46817 
        1.38059         15.5349         5.41062 
        1.38675         15.3686         5.35378 
        1.39288         15.3436         5.29797 
        1.39901         15.2221           5.243 
        1.40515         15.1592         5.18868 
         1.4113         15.0458         5.13516 
        1.41742         14.9286          5.0826 
        1.42355         14.8757         5.03068 
         1.4297         14.8126         4.97933 
        1.43585         14.7549         4.92872 
        1.44198         14.6099         4.87902 
        1.44809         14.5438         4.83009 
        1.45423         14.4617         4.78165 
        1.46036         14.3928         4.73397 
        1.46649         14.3178         4.68693 
        1.47263         14.1961         4.64048 
        1.47877         14.1298         4.59469 
        1.48491         14.0724         4.54945 
        1.49104         14.0184         4.50491 
        1.49718         13.9013         4.46094 
        1.50333         13.8465         4.41748 
        1.50947         13.7764          4.3747 
         1.5156         13.6573         4.33254 
        1.52172         13.5965         4.29095 
        1.52787         13.5435         4.24982 
          1.534         13.4418         4.20928 
        1.54013          13.343         4.16932 
        1.54627          13.288          4.1298 
        1.55241         13.2244         4.09079 
        1.55855         13.1494         4.05234 
        1.56467         13.0823         4.01449 
         1.5708         13.0646         3.97703 
        1.57695         12.9411         3.93998 
        1.58308         12.9078          3.9035 
        1.58922         12.8333         3.86745 
        1.59535         12.7642         3.83187 
         1.6015         12.6783          3.7967 
        1.60764         12.6276         3.76198 
        1.61376         12.5787          3.7278 
        1.61989         12.4709         3.69401 
        1.62604         12.4631         3.66057 
        1.63218         12.3767         3.62756 
        1.63831         12.3373         3.59504 
        1.64444         12.2266         3.56291 
        1.65059          12.174          3.5311 
        1.65673          12.154         3.49971 
        1.66285         12.0386         3.46879 
        1.66898         12.0257         3.43823 
        1.67512         11.9643         3.40799 
        1.68127         11.8958         3.37808 
         1.6874          11.829          3.3486 
        1.69353         11.7694         3.31948 
        1.69967         11.7163         3.29065 
        1.70581         11.6638         3.26217 
        1.71193         11.5905         3.23414 
        1.71806         11.5568         3.20637 
        1.72421         11.4832         3.17888 
        1.73035         11.4423         3.15175 
        1.73649         11.3908         3.12493 
        1.74262         11.3595         3.09846 
        1.74876         11.2985         3.07227 
        1.75489         11.2436         3.04643 
        1.76101         11.1604         3.02091 
        1.76715         11.1635         2.99564 
        1.77329         11.0645         2.97063 
        1.77943          11.017          2.9459 
        1.78557         10.9907         2.92149 
        1.79171         10.9556         2.89735 
        1.79785         10.8583         2.87347 
        1.80399         10.8266         2.84988 
        1.81012         10.7958         2.82658 
        1.81625         10.7278         2.80355 
        1.82239         10.6885         2.78074 
        1.82853         10.6115          2.7582 
        1.83466         10.5715         2.73593 
        1.84078         10.5086         2.71394 
        1.84692         10.4976         2.69215 
        1.85306         10.4376         2.67057 
         1.8592         10.3916         2.64926 
        1.86533         10.3608          2.6282 
        1.87147         10.3097         2.60734 
        1.87761         10.2779         2.58671 
        1.88375          10.188         2.56632 
        1.88988           10.19         2.54617 
        1.89601         10.1371         2.52623 
        1.90215         10.0786         2.50649 
        1.90829         10.0425         2.48696 
        1.91442         10.0014         2.46765 
        1.92056         9.96329         2.44856 
         1.9267          9.9205         2.42965 
        1.93284         9.86173         2.41093 
        1.93897         9.81339         2.39244 
        1.94509         9.78018         2.37419 
        1.95123         9.75025         2.35608 
        1.95737         9.70966         2.33814 
        1.96349         9.66672         2.32045 
        1.96964         9.61542         2.30288 
        1.97578          9.5822         2.28549 
        1.98192         9.52954         2.26831 
        1.98805         9.51059         2.25131 
        1.99419         9.45977         2.23448 
        2.00033         9.43047         2.21781 
        2.00647         9.39512         2.20132 
         2.0126         9.33648         2.18503 
        2.01874         9.30332         2.16888 
        2.02488         9.24841         2.15287 
        2.03101         9.24279         2.13706 
        2.03714         9.19644         2.12142 
        2.04328         9.16158         2.10592 
        2.04941         9.10087         2.09059 
        2.05554         9.09652         2.07542 
        2.06167         9.03961         2.06039 
        2.06781         9.02476          2.0455 
        2.07396         8.99428         2.03073 
        2.08009         8.95469         2.01614 
        2.08622          8.8835         2.00171 
        2.09237         8.88588         1.98739 
        2.09851         8.85018         1.97321 
        2.10464         8.80177         1.95919 
        2.11077         8.75912         1.94532 
        2.11691         8.72701         1.93156 
        2.12305         8.70248         1.91793 
        2.12918         8.66919         1.90447 
        2.13531         8.63721         1.89113 
        2.14145         8.60128         1.87789 
         2.1476         8.57579         1.86477 
        2.15372         8.53903         1.85183 
        2.15985         8.50722         1.83901 
        2.16599         8.47883         1.82627 
        2.17213         8.44972         1.81366 
        2.17827         8.41838         1.80118 
         2.1844         8.38488         1.78882 
        2.19054          8.3328         1.77658 
        2.19666         8.32321         1.76447 
         2.2028         8.28598         1.75246 
        2.20893         8.26936         1.74056 
        2.21508         8.21676         1.72875 
        2.22122         8.18241         1.71705 
        2.22736         8.16305         1.70549 
        2.23349         8.11592         1.69403 
        2.23962         8.10895         1.68267 
        2.24577         8.06431         1.67141 
         2.2519         8.04743         1.66027 
        2.25802         8.00992         1.64924 
        2.26417         7.98382         1.63829 
        2.27031         7.94662         1.62742 
        2.27644         7.92085         1.61669 
        2.28257         7.89724         1.60605 
        2.28872         7.86332         1.59549 
        2.29486         7.84106         1.58502 
        2.30099         7.83144         1.57467 
        2.30712         7.79151         1.56441 
        2.31326         7.75466         1.55423 
         2.3194         7.72123         1.54414 
        2.32553         7.70411         1.53415 
        2.33166         7.66448         1.52426 
         2.3378         7.64637         1.51445 
        2.34394          7.6212         1.50471 
        2.35007         7.58403         1.49508 
        2.35619         7.55401         1.48554 
        2.36233         7.52483         1.47606 
        2.36848         7.51809         1.46665 
        2.37462          7.4877         1.45734 
        2.38075         7.44529         1.44812 
        2.38689         7.42596         1.43897 
        2.39303         7.39923          1.4299 
        2.39916         7.38384         1.42092 
        2.40529         7.35955         1.41202 
        2.41143         7.32629         1.40318 
        2.41757         7.31525         1.39442 
         2.4237         7.28364         1.38575 
        2.42983          7.2526         1.37716 
        2.43598         7.24704         1.36861 
        2.44211         7.20534         1.36015 
        2.44823         7.18558         1.35179 
        2.45437         7.16968         1.34347 
        2.46052         7.12583         1.33521 
        2.46665         7.10704         1.32703 
        2.47279         7.07971         1.31893 
        2.47892         7.05209         1.31089 
        2.48507         7.03131         1.30291 
         2.4912         7.00937         1.29502 
