#  k  (h/Mpc)          P(k)  (Mpc/h)^3     P_linear(k) (Mpc/h)^3
     0.00783031         7240.04         7330.36 
       0.013688         8586.41         8543.73 
       0.019231         8295.61          8275.9 
      0.0249154         7274.55         7361.63 
      0.0312784         6133.74         6155.09 
      0.0375637         5136.78         5115.75 
      0.0433917         4369.16         4397.16 
      0.0492413         3899.16            3899 
      0.0555754         3482.94         3534.06 
      0.0619321         3278.67         3253.51 
       0.067871         2966.49         2999.49 
      0.0738098          2693.3         2721.68 
      0.0800417         2371.36         2408.61 
      0.0862327         2094.54         2104.05 
      0.0921407          1863.1         1848.96 
      0.0982031         1646.47         1641.73 
       0.104506         1525.22         1487.33 
       0.110769         1414.24          1383.3 
       0.116806         1329.23         1310.55 
       0.122832         1269.48         1245.78 
       0.129052          1178.2         1172.73 
       0.135211         1099.48         1088.71 
       0.141259         1026.02         998.232 
       0.147318         945.262         908.025 
       0.153489         857.276         825.499 
       0.159709         798.634         757.745 
       0.165845         758.093           707.2 
       0.171974         713.141         670.006 
       0.178125          682.85         640.828 
       0.184229         655.908         614.456 
        0.19034         613.138         586.517 
       0.196428         594.748         555.413 
       0.202534         569.092         521.587 
       0.208729         533.048         486.859 
       0.214876         499.684         454.639 
       0.220989         478.649         426.737 
       0.227147           452.2         403.534 
        0.23329         432.985         384.791 
       0.239377         421.635          369.26 
       0.245482         394.594         355.175 
       0.251667          388.85         341.086 
       0.257832         374.269         326.464 
       0.263955         359.212         311.335 
       0.270079         343.738          296.06 
        0.27624         336.132         281.259 
       0.282372          322.15         267.718 
        0.28843         310.147         255.824 
       0.294538         295.914         245.341 
       0.300721         292.034         235.977 
        0.30691         278.382         227.435 
       0.313033         271.517         219.372 
       0.319153         260.452         211.423 
       0.325316         253.909         203.407 
        0.33145         244.707         195.487 
       0.337538         240.354         187.828 
       0.343633         231.704         180.549 
       0.349808         223.964         173.687 
       0.355968         219.932         167.408 
       0.362074         213.936          161.69 
       0.368217         207.822         156.347 
       0.374374         200.668         151.281 
       0.380519         197.148         146.404 
       0.386598         191.826           141.7 
       0.392688          188.77         137.091 
        0.39888         183.641         132.532 
       0.405048         178.953         128.165 
       0.411186         174.893         124.025 
       0.417313         170.926         120.119 
       0.423458          167.17         116.431 
       0.429607          163.18         112.943 
       0.435692          157.97         109.659 
       0.441815          156.61         106.491 
       0.447964         153.674          103.42 
       0.454126             147         100.436 
       0.460267         145.287         97.5557 
       0.466387         143.115         94.7832 
        0.47254         139.907         92.0988 
       0.478662         138.654          89.538 
       0.484765           134.3         87.0974 
       0.490885         132.106         84.7564 
       0.497035         130.324         82.5003 
       0.503198         126.683          80.328 
       0.509342         124.525         78.2409 
       0.515458         122.651         76.2332 
       0.521598         120.668          74.281 
       0.527764         118.876         72.3836 
       0.533884         116.998         70.5638 
           0.54         114.752         68.8091 
       0.546137         113.698         67.1107 
       0.552299         111.715          65.466 
       0.558452         109.452         63.8825 
       0.564573         107.533         62.3623 
       0.570708         105.786           60.89 
       0.576825          104.41         59.4696 
       0.582926         102.295         58.0971 
       0.589034         100.704         56.7646 
       0.595184         99.3959         55.4641 
       0.601379          98.085         54.1955 
       0.607522         95.8114         52.9774 
       0.613639         95.4275         51.8027 
       0.619772         93.3405         50.6616 
       0.625918         92.2316         49.5533 
       0.632068         91.1854         48.4782 
       0.638161          90.119         47.4448 
         0.6443         88.8832         46.4344 
       0.650464         87.8314         45.4499 
       0.656582         86.4959         44.5011 
       0.662703          84.997          43.579 
       0.668861         83.8991         42.6778 
       0.675024         82.9502         41.8015 
       0.681124         82.0096         40.9586 
       0.687237         80.4652         40.1376 
       0.693381         79.5439         39.3354 
       0.699536         78.6286         38.5541 
       0.705665         78.8014         37.7976 
       0.711789         76.7039         37.0624 
       0.717957          76.215         36.3418 
        0.72409          75.081         35.6445 
       0.730186         73.8513         34.9698 
       0.736317         73.6144         34.3089 
       0.742472         72.7707         33.6628 
       0.748622         71.9621         33.0339 
        0.75476         71.1928         32.4226 
       0.760888          70.151         31.8278 
       0.767043         69.5116         31.2456 
       0.773185         68.6703         30.6793 
       0.779291         68.0523         30.1303 
       0.785407         67.4609         29.5941 
       0.791564         66.7151         29.0676 
       0.797719          65.599         28.5543 
       0.803834         65.3336         28.0567 
       0.809972         64.2225         27.5693 
       0.816124         63.7908         27.0924 
       0.822261         63.2577         26.6282 
       0.828378          62.767         26.1762 
       0.834502         62.0797         25.7345 
       0.840667         61.4384         25.3001 
       0.846816          60.616          24.877 
       0.852925         60.1486         24.4663 
       0.859047         59.3437          24.064 
       0.865192         58.9912         23.6695 
       0.871341         58.6525         23.2836 
       0.877463         57.6224         22.9081 
       0.883569         57.2622         22.5419 
       0.889708          56.903         22.1818 
       0.895864         56.4017         21.8287 
       0.902008          55.852          21.484 
       0.908149         55.4405          21.147 
       0.914301         54.9397         20.8168 
       0.920448         54.4744         20.4939 
       0.926574         53.9008          20.179 
       0.932687         53.6654         19.8714 
       0.938823         52.7979         19.5692 
       0.944975         52.5383         19.2726 
       0.951105         52.0473         18.9832 
       0.957225         51.4118         18.7003 
       0.963368         51.3581         18.4222 
       0.969511         50.9445         18.1498 
       0.975621         50.5663         17.8844 
       0.981748          49.981         17.6236 
       0.987916         49.6114         17.3665 
        0.99406          49.304         17.1154 
        1.00019         48.7605         16.8698 
        1.00632         48.5111         16.6293 
        1.01246         48.1329         16.3931 
        1.01859         47.4516         16.1619 
        1.02471         47.4983         15.9355 
        1.03085          47.013         15.7127 
        1.03698         46.5749         15.4946 
        1.04314         46.1695         15.2797 
        1.04929         45.8797         15.0694 
        1.05541         45.4037         14.8639 
        1.06154         45.3772         14.6618 
        1.06769         44.9214         14.4631 
        1.07382         44.6787         14.2687 
        1.07993         44.4158         14.0784 
        1.08607         43.9833         13.8908 
        1.09222         43.7617         13.7064 
        1.09836         43.4246         13.5256 
        1.10449         43.0946         13.3482 
        1.11063         42.6494         13.1739 
        1.11677          42.411         13.0027 
         1.1229         42.1659         12.8349 
        1.12903         41.5866         12.6699 
        1.13518         41.7413         12.5076 
        1.14131           41.45         12.3483 
        1.14745         40.8865         12.1919 
        1.15359          40.858         12.0381 
        1.15973         40.3714          11.887 
        1.16584         40.1514         11.7391 
        1.17197         39.9479         11.5935 
        1.17811         39.7179           11.45 
        1.18424         39.3182         11.3093 
        1.19038         39.1536         11.1706 
        1.19652          39.028         11.0342 
        1.20267          38.693         10.9002 
        1.20881         38.4326         10.7684 
        1.21495         38.1198          10.639 
        1.22108         37.9342         10.5117 
         1.2272         37.5285         10.3869 
        1.23334         37.4114         10.2637 
        1.23949         37.3562         10.1423 
        1.24562          36.953         10.0232 
        1.25174         36.8436         9.90622 
        1.25789          36.607         9.79073 
        1.26402         36.2967         9.67729 
        1.27014         35.9755         9.56592 
        1.27628         35.8557         9.45598 
        1.28244         35.6264         9.34756 
        1.28858         35.4838         9.24098 
        1.29471         35.3322          9.1363 
        1.30084         35.1274         9.03334 
        1.30697         34.8486         8.93181 
        1.31312         34.5616          8.8317 
        1.31925         34.4678         8.73343 
        1.32537         34.2913         8.63676 
        1.33151         34.0021         8.54121 
        1.33765         33.9448         8.44715 
        1.34378         33.7039         8.35471 
        1.34992         33.4057         8.26358 
        1.35606         33.2301         8.17362 
         1.3622         33.0642         8.08515 
        1.36833         32.8533         7.99821 
        1.37445         32.8144          7.9126 
        1.38059         32.5798         7.82797 
        1.38675         32.2791         7.74438 
        1.39288         32.2433         7.66234 
        1.39901         31.9634         7.58153 
        1.40515         31.8248         7.50171 
         1.4113         31.7045         7.42306 
        1.41742          31.439         7.34585 
        1.42355         31.3113         7.26958 
         1.4297         31.1425         7.19417 
        1.43585         31.0637         7.11987 
        1.44198         30.7721         7.04689 
        1.44809          30.668         6.97508 
        1.45423         30.5222           6.904 
        1.46036          30.427         6.83405 
        1.46649         30.1866         6.76503 
        1.47263         30.0266         6.69692 
        1.47877         29.9475         6.62978 
        1.48491         29.8505         6.56345 
        1.49104         29.6112         6.49817 
        1.49718         29.3283         6.43373 
        1.50333         29.3183         6.37006 
        1.50947         29.1961         6.30738 
         1.5156         28.9998         6.24564 
        1.52172         28.8392         6.18472 
        1.52787         28.7994          6.1245 
          1.534         28.5851         6.06515 
        1.54013         28.3789         6.00665 
        1.54627         28.3139         5.94881 
        1.55241         28.0957         5.89173 
        1.55855         28.0009         5.83548 
        1.56467         27.7756         5.78011 
         1.5708         27.8073         5.72531 
        1.57695         27.5169         5.67114 
        1.58308         27.4889         5.61779 
        1.58922         27.3806         5.56509 
        1.59535         27.1965         5.51309 
         1.6015          27.028         5.46168 
        1.60764          26.933         5.41094 
        1.61376         26.7537         5.36099 
        1.61989         26.5928         5.31163 
        1.62604         26.5712         5.26278 
        1.63218         26.4268         5.21458 
        1.63831         26.2958         5.16709 
        1.64444         26.1793         5.12017 
        1.65059         26.0038         5.07372 
        1.65673         25.8562          5.0279 
        1.66285          25.796         4.98277 
        1.66898         25.6529         4.93819 
        1.67512         25.5718         4.89406 
        1.68127         25.3894         4.85043 
         1.6874         25.2959         4.80743 
        1.69353         25.1923         4.76497 
        1.69967         25.0442         4.72293 
        1.70581         24.9502         4.68141 
        1.71193           24.87         4.64055 
        1.71806         24.6941         4.60009 
        1.72421         24.5657         4.56003 
        1.73035         24.4513          4.5205 
        1.73649         24.3989         4.48144 
        1.74262         24.2499         4.44287 
        1.74876          24.231         4.40473 
        1.75489         24.0637         4.36712 
        1.76101         23.9348         4.32996 
        1.76715         23.8525         4.29318 
        1.77329         23.7789         4.25678 
        1.77943         23.6324         4.22078 
        1.78557         23.5139         4.18526 
        1.79171         23.4307         4.15014 
        1.79785         23.2995         4.11542 
        1.80399         23.2173          4.0811 
        1.81012         23.1446         4.04721 
        1.81625         23.0345         4.01373 
        1.82239          22.973         3.98057 
        1.82853         22.7928         3.94781 
        1.83466         22.7027         3.91544 
        1.84078         22.5542         3.88348 
        1.84692         22.5034         3.85181 
        1.85306         22.4114         3.82046 
         1.8592         22.2844         3.78951 
        1.86533         22.1875         3.75892 
        1.87147          22.104         3.72863 
        1.87761         22.0683         3.69866 
        1.88375         21.9836         3.66905 
        1.88988         21.8663          3.6398 
        1.89601         21.7159         3.61085 
        1.90215         21.6766         3.58219 
        1.90829         21.6271         3.55386 
        1.91442         21.4781         3.52583 
        1.92056         21.4153         3.49813 
         1.9267         21.2863         3.47069 
        1.93284         21.1714         3.44354 
        1.93897         21.1375         3.41673 
        1.94509         21.0339         3.39025 
        1.95123         20.9387           3.364 
        1.95737         20.8487           3.338 
        1.96349         20.7685         3.31234 
        1.96964         20.6662         3.28688 
        1.97578         20.6062         3.26167 
        1.98192         20.4825         3.23678 
        1.98805         20.4454         3.21215 
        1.99419         20.3417         3.18777 
        2.00033         20.1968         3.16363 
        2.00647         20.1493         3.13975 
         2.0126         20.0663         3.11615 
        2.01874         19.9841         3.09276 
        2.02488          19.967         3.06959 
        2.03101         19.8231          3.0467 
        2.03714          19.754         3.02406 
        2.04328         19.6571         3.00163 
        2.04941         19.5881         2.97944 
        2.05554         19.5288          2.9575 
        2.06167         19.4584         2.93574 
        2.06781           19.37          2.9142 
        2.07396          19.315         2.89285 
        2.08009         19.2511         2.87174 
        2.08622         19.0974         2.85087 
        2.09237          19.048         2.83017 
        2.09851         18.9848         2.80967 
        2.10464         18.9268          2.7894 
        2.11077         18.7931         2.76936 
        2.11691         18.7511         2.74947 
        2.12305         18.6904         2.72978 
        2.12918         18.6396         2.71033 
        2.13531         18.5292         2.69106 
        2.14145          18.491         2.67193 
         2.1476         18.3918         2.65297 
        2.15372          18.317         2.63429 
        2.15985         18.2004         2.61577 
        2.16599         18.1803         2.59737 
        2.17213         18.1272         2.57917 
        2.17827         18.0012         2.56115 
         2.1844         17.9168         2.54332 
        2.19054         17.8747         2.52565 
        2.19666           17.83         2.50817 
         2.2028         17.7634         2.49084 
        2.20893          17.681         2.47367 
        2.21508         17.5869         2.45664 
        2.22122         17.4833         2.43976 
        2.22736         17.4883         2.42308 
        2.23349         17.3817         2.40656 
        2.23962         17.3129         2.39018 
        2.24577         17.2292         2.37394 
         2.2519         17.2086         2.35787 
        2.25802         17.1284         2.34198 
        2.26417         17.0892         2.32619 
        2.27031         16.9968         2.31053 
        2.27644         16.9429         2.29506 
        2.28257          16.856         2.27973 
        2.28872         16.7721         2.26451 
        2.29486         16.7275         2.24944 
        2.30099         16.6541         2.23453 
        2.30712         16.6303         2.21975 
        2.31326         16.5526         2.20508 
         2.3194         16.5018         2.19055 
        2.32553         16.4164         2.17617 
        2.33166         16.3319         2.16193 
         2.3378         16.2744          2.1478 
        2.34394         16.2414         2.13379 
        2.35007         16.1622         2.11992 
        2.35619         16.0649          2.1062 
        2.36233         16.0487         2.09256 
        2.36848         15.9761         2.07901 
        2.37462         15.9219         2.06562 
        2.38075         15.8528         2.05235 
        2.38689         15.8304         2.03919 
        2.39303          15.732         2.02614 
        2.39916         15.6826         2.01323 
        2.40529          15.615         2.00043 
        2.41143         15.5704         1.98772 
        2.41757         15.5217         1.97513 
         2.4237         15.4465         1.96266 
        2.42983         15.3892         1.95031 
        2.43598         15.3496         1.93803 
        2.44211         15.2836         1.92587 
        2.44823         15.2104         1.91384 
        2.45437         15.1628         1.90189 
        2.46052         15.1131         1.89002 
        2.46665         15.0719         1.87828 
        2.47279         14.9787         1.86664 
        2.47892         14.9614          1.8551 
        2.48507         14.8974         1.84364 
         2.4912         14.8551         1.83229 
