#  k  (h/Mpc)          P(k)  (Mpc/h)^3     P_linear(k) (Mpc/h)^3
     0.00783031         15655.6           15886 
       0.013688         18825.4         18659.4 
       0.019231         17851.5         17788.9 
      0.0249154         15029.4         15301.7 
      0.0312784         12123.4         12195.8 
      0.0375637         9782.47         9713.84 
      0.0433917         8102.64         8168.19 
      0.0492413         7247.27         7241.26 
      0.0555754         6531.24         6676.38 
      0.0619321         6314.84          6267.8 
       0.067871         5714.31         5825.17 
      0.0738098         5158.65         5246.95 
      0.0800417          4443.2            4538 
      0.0862327         3837.15          3844.4 
      0.0921407         3372.56         3292.23 
      0.0982031         2948.66         2887.01 
       0.104506         2769.48         2633.49 
       0.110769         2607.33         2503.05 
       0.116806         2502.64         2428.37 
       0.122832         2410.34         2345.15 
       0.129052         2228.22         2211.52 
       0.135211         2064.14         2026.34 
       0.141259         1915.87         1816.84 
       0.147318         1749.26            1614 
       0.153489         1572.73         1443.73 
       0.159709         1474.13          1322.8 
       0.165845         1417.78         1250.13 
       0.171974         1356.16         1209.01 
       0.178125         1305.24         1179.39 
       0.184229         1255.62         1143.56 
        0.19034         1176.51         1090.85 
       0.196428         1138.72         1021.23 
       0.202534         1082.97         942.138 
       0.208729         1014.08         863.929 
       0.214876         957.886         797.986 
       0.220989         919.057         748.574 
       0.227147         880.233         714.439 
        0.23329          847.12         691.386 
       0.239377         831.862         673.004 
       0.245482         777.579         653.059 
       0.251667         770.844         627.631 
       0.257832         737.783         596.646 
       0.263955          709.42         562.554 
       0.270079         678.606         528.757 
        0.27624         667.532         498.387 
       0.282372         640.548         473.607 
        0.28843         626.698         454.655 
       0.294538         594.526         439.742 
       0.300721         591.112         426.909 
        0.30691         565.334         414.149 
       0.313033         553.454         400.277 
       0.319153         537.119         384.703 
       0.325316         521.066          367.93 
        0.33145         504.945         351.182 
       0.337538         495.808         335.685 
       0.343633         480.761         321.978 
       0.349808         462.952          310.22 
       0.355968         458.856         300.249 
       0.362074         451.693         291.479 
       0.368217         438.413         283.082 
       0.374374         419.126         274.484 
       0.380519         417.353         265.547 
       0.386598         405.625          256.39 
       0.392688         402.288           247.2 
        0.39888         390.763         238.251 
       0.405048          382.23         229.989 
       0.411186         375.923         222.561 
       0.417313         368.265         215.921 
       0.423458          360.08         209.809 
       0.429607         354.631         204.021 
       0.435692         345.211         198.435 
       0.441815         341.712         192.805 
       0.447964           334.3          187.11 
       0.454126         326.275          181.47 
       0.460267         320.175         176.011 
       0.466387         316.154         170.816 
        0.47254         310.069         165.914 
       0.478662         309.009         161.387 
       0.484765         297.661         157.157 
       0.490885         294.572         153.117 
       0.497035         289.253         149.192 
       0.503198         284.703         145.359 
       0.509342         282.552         141.603 
       0.515458         278.709         137.918 
       0.521598         271.675         134.304 
       0.527764         268.164         130.804 
       0.533884         265.352          127.49 
           0.54         261.389         124.338 
       0.546137         259.911         121.314 
       0.552299         254.448         118.401 
       0.558452         253.026         115.599 
       0.564573         249.273         112.901 
       0.570708         243.973         110.271 
       0.576825         239.973         107.711 
       0.582926         237.522         105.216 
       0.589034         235.103         102.786 
       0.595184         232.896         100.418 
       0.601379          229.22         98.1222 
       0.607522         225.953         95.9345 
       0.613639          224.31         93.8358 
       0.619772         219.684         91.8005 
       0.625918         218.542         89.8208 
       0.632068         214.881          87.892 
       0.638161         213.795         86.0303 
         0.6443         210.388         84.2054 
       0.650464         208.251         82.4254 
       0.656582         205.744         80.7109 
       0.662703         205.303         79.0478 
       0.668861         201.738         77.4254 
       0.675024         198.977         75.8496 
       0.681124         197.711         74.3349 
       0.687237         195.324         72.8589 
       0.693381         192.216         71.4157 
       0.699536         190.705         70.0083 
       0.705665         188.908         68.6443 
       0.711789         187.135         67.3177 
       0.717957         186.403         66.0173 
        0.72409         184.078          64.759 
       0.730186         181.679         63.5418 
       0.736317         179.709         62.3502 
       0.742472         178.432         61.1856 
       0.748622         176.871         60.0524 
        0.75476         175.195         58.9508 
       0.760888         173.226         57.8788 
       0.767043         172.805         56.8292 
       0.773185          171.12         55.8079 
       0.779291         167.805         54.8174 
       0.785407         167.396         53.8494 
       0.791564         165.871         52.8987 
       0.797719          163.21         51.9716 
       0.803834         162.379         51.0727 
       0.809972         161.553          50.192 
       0.816124         160.604         49.3304 
       0.822261         159.201         48.4916 
       0.828378         157.548         47.6751 
       0.834502         156.931          46.877 
       0.840667          154.78         46.0922 
       0.846816         153.349         45.3279 
       0.852925         152.704         44.5858 
       0.859047         151.305         43.8591 
       0.865192         149.519         43.1463 
       0.871341         148.337          42.449 
       0.877463         147.192         41.7704 
       0.883569         146.893         41.1084 
       0.889708         145.172         40.4576 
       0.895864         143.679         39.8193 
       0.902008         142.777         39.1962 
       0.908149         142.307         38.5869 
       0.914301         140.472         37.9897 
       0.920448         139.574         37.4058 
       0.926574         138.526         36.8363 
       0.932687         138.485         36.2799 
       0.938823         136.486         35.7331 
       0.944975         135.542         35.1964 
       0.951105         134.767         34.6727 
       0.957225         133.696         34.1607 
       0.963368         131.808         33.6573 
       0.969511         131.567         33.1641 
       0.975621         130.466         32.6835 
       0.981748         130.291         32.2113 
       0.987916         128.884         31.7454 
        0.99406         127.805         31.2906 
        1.00019         127.631         30.8457 
        1.00632         126.223         30.4098 
        1.01246         125.554         29.9818 
        1.01859         125.029         29.5628 
        1.02471         123.423         29.1523 
        1.03085         122.387         28.7483 
        1.03698         122.021         28.3528 
        1.04314         120.671         27.9632 
        1.04929         120.299         27.5818 
        1.05541         119.585         27.2092 
        1.06154         118.777         26.8425 
        1.06769         118.498         26.4822 
        1.07382         117.277         26.1296 
        1.07993         116.518         25.7843 
        1.08607         115.762         25.4439 
        1.09222         115.411         25.1093 
        1.09836         114.427         24.7812 
        1.10449         113.259         24.4594 
        1.11063         112.597          24.143 
        1.11677         112.067         23.8323 
         1.1229          111.25         23.5277 
        1.12903         110.782         23.2281 
        1.13518         110.339         22.9336 
        1.14131         109.236         22.6443 
        1.14745         108.915         22.3603 
        1.15359         108.101          22.081 
        1.15973         107.559         21.8065 
        1.16584         106.498         21.5379 
        1.17197         105.962         21.2734 
        1.17811         105.473         21.0126 
        1.18424         104.984          20.757 
        1.19038         104.661         20.5049 
        1.19652         103.802         20.2571 
        1.20267         103.014         20.0134 
        1.20881         102.482         19.7738 
        1.21495         101.665         19.5385 
        1.22108         101.293         19.3071 
         1.2272         100.353           19.08 
        1.23334         99.9619          18.856 
        1.23949          99.423         18.6352 
        1.24562         98.7657         18.4184 
        1.25174         98.3188         18.2055 
        1.25789          97.759         17.9953 
        1.26402         96.6384         17.7889 
        1.27014          96.393         17.5861 
        1.27628         96.0664          17.386 
        1.28244         95.6254         17.1886 
        1.28858         95.1831         16.9945 
        1.29471         94.2859         16.8039 
        1.30084         94.1247         16.6164 
        1.30697         93.1797         16.4315 
        1.31312         92.7765         16.2492 
        1.31925         92.1384         16.0702 
        1.32537          91.758         15.8941 
        1.33151         91.0126           15.72 
        1.33765         90.6194         15.5487 
        1.34378         90.2383         15.3803 
        1.34992         89.8827         15.2142 
        1.35606         89.3188         15.0503 
         1.3622         88.5666          14.889 
        1.36833         88.2568         14.7306 
        1.37445         87.7772         14.5745 
        1.38059          87.061         14.4202 
        1.38675         86.5704         14.2678 
        1.39288         86.4863         14.1183 
        1.39901         85.8969         13.9709 
        1.40515         85.2477         13.8253 
         1.4113         84.8995         13.6819 
        1.41742         84.4728          13.541 
        1.42355         83.9949         13.4019 
         1.4297         83.7044         13.2643 
        1.43585         83.0284         13.1287 
        1.44198         82.5572         12.9956 
        1.44809         82.2685         12.8645 
        1.45423         81.9535         12.7348 
        1.46036         81.4683          12.607 
        1.46649         80.8653          12.481 
        1.47263         80.3361         12.3567 
        1.47877         80.1686         12.2341 
        1.48491         79.4949         12.1129 
        1.49104         79.3594         11.9937 
        1.49718         78.8891          11.876 
        1.50333         78.5285         11.7597 
        1.50947         78.0198         11.6452 
         1.5156         77.6849         11.5323 
        1.52172         77.2168          11.421 
        1.52787         76.8332          11.311 
          1.534         76.3217         11.2025 
        1.54013          75.956         11.0956 
        1.54627         75.7208         10.9899 
        1.55241         75.1647         10.8855 
        1.55855         74.8615         10.7827 
        1.56467         74.6074         10.6814 
         1.5708         74.0858         10.5812 
        1.57695         74.0138         10.4822 
        1.58308         73.3906         10.3846 
        1.58922          73.121         10.2882 
        1.59535         72.8253         10.1931 
         1.6015         72.2622         10.0991 
        1.60764         71.9849         10.0062 
        1.61376         71.7116         9.91486 
        1.61989         71.2832         9.82454 
        1.62604          70.966         9.73516 
        1.63218         70.7397         9.64694 
        1.63831         69.9337         9.56002 
        1.64444          69.757         9.47414 
        1.65059         69.5122         9.38912 
        1.65673         68.9661         9.30523 
        1.66285         68.7531         9.22261 
        1.66898         68.5202         9.14096 
        1.67512         67.9239         9.06015 
        1.68127         67.8039         8.98024 
         1.6874         67.3065         8.90148 
        1.69353         66.9948         8.82371 
        1.69967         66.7338         8.74669 
        1.70581         66.4683         8.67063 
        1.71193          66.155         8.59576 
        1.71806         65.7619         8.52162 
        1.72421         65.4266         8.44821 
        1.73035         65.1225         8.37575 
        1.73649         64.8773         8.30416 
        1.74262         64.4521         8.23346 
        1.74876         64.2226         8.16355 
        1.75489         63.8189         8.09459 
        1.76101         63.6244         8.02645 
        1.76715         63.1153         7.95901 
        1.77329         62.9137         7.89226 
        1.77943         62.5534         7.82624 
        1.78557         62.4003         7.76109 
        1.79171         61.9258         7.69666 
        1.79785         61.5621         7.63296 
        1.80399         61.4441            7.57 
        1.81012         61.1782         7.50783 
        1.81625         60.8036         7.44639 
        1.82239         60.5189         7.38554 
        1.82853         60.2565         7.32541 
        1.83466         59.9945         7.26601 
        1.84078         59.5761         7.20733 
        1.84692         59.3631         7.14921 
        1.85306          59.057         7.09166 
         1.8592         58.8536         7.03483 
        1.86533         58.4979         6.97866 
        1.87147         58.0742         6.92305 
        1.87761         57.9827         6.86801 
        1.88375         57.6797         6.81364 
        1.88988         57.2957         6.75992 
        1.89601         57.1048         6.70674 
        1.90215         56.6966          6.6541 
        1.90829         56.4917         6.60205 
        1.91442         56.2965         6.55055 
        1.92056         55.9832         6.49965 
         1.9267         55.7391         6.44924 
        1.93284         55.3881         6.39934 
        1.93897         55.2025         6.35006 
        1.94509         54.9976          6.3014 
        1.95123         54.6695         6.25314 
        1.95737         54.3725         6.20534 
        1.96349          54.098         6.15817 
        1.96964         53.8637         6.11136 
        1.97578         53.5877         6.06501 
        1.98192         53.5307         6.01924 
        1.98805         53.1138         5.97393 
        1.99419          52.842         5.92909 
        2.00033         52.6755          5.8847 
        2.00647          52.447         5.84076 
         2.0126         52.0418         5.79736 
        2.01874         51.8241         5.75433 
        2.02488         51.6696         5.71169 
        2.03101         51.4078         5.66957 
        2.03714         51.1212         5.62792 
        2.04328         50.9018         5.58664 
        2.04941         50.6619          5.5458 
        2.05554         50.5015         5.50541 
        2.06167         50.2799         5.46536 
        2.06781         49.9162         5.42571 
        2.07396          49.736         5.38639 
        2.08009          49.574         5.34753 
        2.08622         49.2085          5.3091 
        2.09237         49.0504         5.27098 
        2.09851          48.925         5.23322 
        2.10464         48.5781          5.1959 
        2.11077         48.3477         5.15898 
        2.11691          48.072         5.12235 
        2.12305         47.9401         5.08607 
        2.12918         47.7797         5.05023 
        2.13531         47.4041         5.01473 
        2.14145          47.192         4.97949 
         2.1476         46.9771         4.94455 
        2.15372         46.7872         4.91012 
        2.15985         46.6217         4.87599 
        2.16599         46.3599         4.84208 
        2.17213         46.2228         4.80854 
        2.17827         45.9478         4.77532 
         2.1844         45.6842         4.74244 
        2.19054         45.4763         4.70986 
        2.19666         45.2531         4.67764 
         2.2028         45.1851         4.64568 
        2.20893         44.9029         4.61402 
        2.21508         44.7135         4.58261 
        2.22122         44.5481         4.55148 
        2.22736         44.2819         4.52071 
        2.23349         44.1015         4.49023 
        2.23962         43.8214         4.46002 
        2.24577         43.6019         4.43006 
         2.2519         43.4313         4.40041 
        2.25802         43.3238         4.37109 
        2.26417         43.0454         4.34195 
        2.27031         42.8874         4.31305 
        2.27644         42.6882          4.2845 
        2.28257         42.4354         4.25621 
        2.28872         42.1896         4.22812 
        2.29486         42.0934         4.20029 
        2.30099         41.9472         4.17277 
        2.30712         41.7091         4.14549 
        2.31326         41.4893          4.1184 
         2.3194         41.2557         4.09157 
        2.32553         41.0899         4.06503 
        2.33166         40.8612         4.03873 
         2.3378         40.7317         4.01263 
        2.34394          40.567         3.98675 
        2.35007         40.3808         3.96114 
        2.35619         40.1361         3.93579 
        2.36233         39.9667         3.91059 
        2.36848         39.8699         3.88557 
        2.37462         39.6026         3.86082 
        2.38075         39.5056          3.8363 
        2.38689         39.3255         3.81198 
        2.39303         39.0576         3.78788 
        2.39916         38.8742         3.76401 
        2.40529         38.7878         3.74034 
        2.41143         38.6144         3.71687 
        2.41757          38.412         3.69358 
         2.4237         38.2364         3.67054 
        2.42983         38.0651          3.6477 
        2.43598         37.9145         3.62499 
        2.44211         37.7519         3.60251 
        2.44823         37.5788         3.58027 
        2.45437         37.3583         3.55816 
        2.46052         37.2013         3.53622 
        2.46665         37.0481         3.51451 
        2.47279         36.8226         3.49298 
        2.47892         36.7324         3.47162 
        2.48507         36.5663         3.45042 
         2.4912         36.4361         3.42944 
