# k  (h/Mpc)    P(k)  (Mpc/h)^3    P_linear(k)  (Mpc/h)^3
     0.00783031         13893.9         14042.2 
       0.013688         16014.9         16449.8 
       0.019231         15696.5         15939.3 
      0.0249154         14177.3         14139.3 
      0.0312784         11661.1         11748.5 
      0.0375637         9556.44          9686.5 
      0.0433917         8251.55         8267.99 
      0.0492413         7236.78         7299.99 
      0.0555754         6615.44          6615.9 
      0.0619321         5937.35         6115.65 
       0.067871            5590         5670.62 
      0.0738098         5142.47         5172.81 
      0.0800417          4591.2         4591.25 
      0.0862327         4000.55         4006.09 
      0.0921407          3539.9         3503.13 
      0.0982031         3176.83         3087.59 
       0.104506         2820.62         2776.97 
       0.110769         2631.69         2573.06 
       0.116806          2530.5         2440.33 
       0.122832         2387.92         2331.61 
       0.129052         2260.14         2211.29 
       0.135211         2163.77          2067.1 
       0.141259         1976.51         1903.05 
       0.147318         1800.22         1731.16 
       0.153489          1664.7          1567.4 
       0.159709         1573.26         1429.02 
       0.165845         1434.24         1324.79 
       0.171974         1399.23         1249.91 
       0.178125         1348.07         1195.26 
       0.184229         1253.39         1150.17 
        0.19034          1229.3         1104.34 
       0.196428         1186.45         1052.15 
       0.202534         1101.56         992.402 
       0.208729         1074.13         927.619 
       0.214876         1017.17         864.606 
       0.220989         953.585         808.145 
       0.227147         925.764         760.471 
        0.23329         887.288         722.439 
       0.239377         877.673          692.34 
       0.245482         832.303         666.781 
       0.251667         801.607         642.474 
       0.257832          788.88         617.462 
       0.263955          747.08         590.914 
       0.270079         719.916         563.007 
        0.27624         689.059         534.814 
       0.282372         674.904         508.156 
        0.28843         665.768         484.298 
       0.294538         631.386         463.288 
       0.300721         614.979         444.929 
        0.30691         602.127         428.802 
       0.313033          575.24         414.146 
       0.319153         566.987         399.989 
       0.325316         557.421         385.682 
        0.33145         543.438         371.276 
       0.337538         523.223         356.973 
       0.343633         508.907         343.031 
       0.349808         496.083         329.648 
       0.355968         486.756         317.325 
       0.362074         468.994         306.173 
       0.368217         466.448         295.936 
       0.374374         458.016         286.433 
       0.380519         439.293         277.439 
       0.386598         434.732         268.832 
       0.392688         423.651         260.362 
        0.39888         412.999          251.89 
       0.405048         404.207         243.654 
       0.411186         403.154         235.741 
       0.417313         397.718         228.218 
       0.423458         386.322          221.11 
       0.429607         375.016         214.418 
       0.435692         369.847         208.183 
       0.441815           362.9         202.229 
       0.447964         355.342         196.492 
       0.454126         351.263         190.932 
       0.460267         345.361         185.554 
       0.466387         338.225         180.341 
        0.47254         333.827         175.258 
       0.478662         326.543         170.383 
       0.484765         322.112         165.724 
       0.490885         318.624         161.254 
       0.497035         312.055         156.958 
       0.503198         311.368         152.843 
       0.509342         304.062         148.905 
       0.515458         298.611         145.125 
       0.521598         294.053          141.45 
       0.527764         289.857         137.875 
       0.533884         287.617         134.438 
           0.54         283.558         131.113 
       0.546137         277.367         127.885 
       0.552299         276.016         124.755 
       0.558452         271.281         121.745 
       0.564573         269.626          118.86 
       0.570708         264.588         116.069 
       0.576825         260.149          113.38 
       0.582926         258.416         110.783 
       0.589034         253.961         108.262 
       0.595184          252.26         105.801 
       0.601379         248.293         103.399 
       0.607522          242.79         101.089 
       0.613639         242.012         98.8579 
       0.619772         240.765         96.6895 
       0.625918          236.67         94.5834 
       0.632068         233.537         92.5414 
       0.638161         232.297         90.5807 
         0.6443          229.03         88.6645 
       0.650464         225.876         86.7978 
       0.656582         223.696         84.9982 
       0.662703         222.528         83.2483 
       0.668861         217.976         81.5371 
       0.675024           217.3         79.8723 
       0.681124         214.273         78.2709 
       0.687237         212.844         76.7108 
       0.693381         209.414         75.1867 
       0.699536         208.413         73.7024 
       0.705665         206.167         72.2652 
       0.711789         203.729         70.8682 
       0.717957         202.018          69.499 
        0.72409         199.163         68.1737 
       0.730186         200.304         66.8911 
       0.736317         197.058         65.6345 
       0.742472         194.684         64.4058 
       0.748622         192.402         63.2098 
        0.75476         192.373         62.0471 
       0.760888         189.831         60.9156 
       0.767043         187.104         59.8082 
       0.773185         185.666          58.731 
       0.779291         183.749         57.6867 
       0.785407         182.805         56.6666 
       0.791564         181.188         55.6649 
       0.797719         178.134         54.6882 
       0.803834         179.141         53.7412 
       0.809972         176.905         52.8135 
       0.816124         173.958         51.9057 
       0.822261         173.043         51.0218 
       0.828378          172.43         50.1613 
       0.834502         170.421         49.3201 
       0.840667         170.286         48.4928 
       0.846816         167.081         47.6869 
       0.852925          166.71         46.9046 
       0.859047         165.087         46.1383 
       0.865192         164.602         45.3867 
       0.871341         162.673         44.6514 
       0.877463         161.138         43.9359 
       0.883569         161.002         43.2379 
       0.889708         159.447         42.5517 
       0.895864         157.735         41.8786 
       0.902008         156.339         41.2216 
       0.908149         154.943         40.5792 
       0.914301          153.96         39.9495 
       0.920448         153.776         39.3338 
       0.926574         151.673         38.7333 
       0.932687         151.501         38.1467 
       0.938823         150.142         37.5703 
       0.944975          149.43         37.0044 
       0.951105         147.815         36.4524 
       0.957225         146.855         35.9126 
       0.963368         146.186          35.382 
       0.969511         144.466         34.8621 
       0.975621         142.864         34.3556 
       0.981748         142.534         33.8579 
       0.987916         141.734         33.3669 
        0.99406         140.733         32.8876 
        1.00019         139.904         32.4188 
        1.00632         138.793         31.9596 
        1.01246         137.954         31.5086 
        1.01859         136.849         31.0671 
        1.02471         135.891         30.6347 
        1.03085         134.946          30.209 
        1.03698         134.101         29.7924 
        1.04314         133.701          29.382 
        1.04929         132.935         28.9802 
        1.05541         132.207         28.5876 
        1.06154         130.779         28.2014 
        1.06769         130.131         27.8217 
        1.07382         129.412         27.4504 
        1.07993          128.39         27.0866 
        1.08607         128.026          26.728 
        1.09222         126.749         26.3756 
        1.09836         126.106         26.0299 
        1.10449         125.335         25.6909 
        1.11063         124.348         25.3576 
        1.11677         123.843         25.0302 
         1.1229         122.777         24.7093 
        1.12903         121.916         24.3937 
        1.13518         121.191         24.0834 
        1.14131         120.821         23.7787 
        1.14745         119.891         23.4794 
        1.15359         118.931         23.1853 
        1.15973         118.505         22.8961 
        1.16584         117.667         22.6131 
        1.17197         117.174         22.3346 
        1.17811         116.187         22.0599 
        1.18424         115.604         21.7906 
        1.19038         114.954         21.5251 
        1.19652         114.301         21.2641 
        1.20267         113.462         21.0075 
        1.20881         112.646         20.7552 
        1.21495         112.437         20.5074 
        1.22108         111.557         20.2637 
         1.2272         110.979         20.0246 
        1.23334         110.419         19.7888 
        1.23949          109.86         19.5563 
        1.24562         109.007         19.3281 
        1.25174         108.834          19.104 
        1.25789         107.767         18.8828 
        1.26402          107.44         18.6654 
        1.27014         106.597          18.452 
        1.27628         106.071         18.2414 
        1.28244          105.66         18.0336 
        1.28858         104.883         17.8294 
        1.29471         104.183         17.6287 
        1.30084         103.484         17.4314 
        1.30697         102.934         17.2368 
        1.31312         102.425         17.0449 
        1.31925         101.648         16.8565 
        1.32537         101.201         16.6712 
        1.33151          101.06          16.488 
        1.33765         100.171         16.3077 
        1.34378         99.9236         16.1305 
        1.34992         99.2798         15.9557 
        1.35606         98.8237         15.7832 
         1.3622         98.4471         15.6135 
        1.36833         97.5182         15.4468 
        1.37445         97.3378         15.2825 
        1.38059         96.6858         15.1202 
        1.38675         96.0837         14.9598 
        1.39288         95.4743         14.8024 
        1.39901         95.0373         14.6474 
        1.40515         94.6004         14.4942 
         1.4113         94.0169         14.3432 
        1.41742         93.6952          14.195 
        1.42355          93.268         14.0487 
         1.4297         92.5845         13.9039 
        1.43585         92.2148         13.7613 
        1.44198         91.3963         13.6212 
        1.44809          91.021         13.4833 
        1.45423         90.9419         13.3468 
        1.46036         90.0192         13.2125 
        1.46649         89.5917           13.08 
        1.47263         89.0102         12.9492 
        1.47877         88.7175         12.8202 
        1.48491         88.2959         12.6928 
        1.49104         87.5597         12.5674 
        1.49718         87.2198         12.4436 
        1.50333         86.8674         12.3213 
        1.50947         86.5251         12.2009 
         1.5156         86.0806         12.0823 
        1.52172         85.3229         11.9653 
        1.52787         85.1502         11.8495 
          1.534         84.6736         11.7355 
        1.54013         84.2434         11.6231 
        1.54627         83.6272         11.5119 
        1.55241         83.5455         11.4022 
        1.55855         82.7357         11.2941 
        1.56467         82.3307         11.1877 
         1.5708         81.7359         11.0824 
        1.57695         81.6296         10.9782 
        1.58308          81.132         10.8757 
        1.58922         80.9102         10.7743 
        1.59535          80.715         10.6743 
         1.6015         79.9598         10.5755 
        1.60764         79.5512         10.4779 
        1.61376         79.3607         10.3818 
        1.61989         78.7821         10.2869 
        1.62604         78.4473         10.1929 
        1.63218          78.015         10.1002 
        1.63831         77.6871         10.0088 
        1.64444         77.1708         9.91858 
        1.65059          76.796         9.82922 
        1.65673         76.6617         9.74106 
        1.66285         76.1333         9.65423 
        1.66898         75.5584         9.56843 
        1.67512           75.16         9.48351 
        1.68127          75.005         9.39955 
         1.6874         74.4735         9.31679 
        1.69353          74.121         9.23508 
        1.69967         73.7192         9.15415 
        1.70581         73.4768         9.07424 
        1.71193         73.0228         8.99558 
        1.71806         72.7834         8.91768 
        1.72421         72.3211         8.84056 
        1.73035         71.9441         8.76444 
        1.73649         71.5845         8.68924 
        1.74262         71.2574         8.61497 
        1.74876          70.837         8.54153 
        1.75489         70.5745          8.4691 
        1.76101         70.3023         8.39753 
        1.76715         69.8493         8.32669 
        1.77329         69.4583         8.25659 
        1.77943          69.302         8.18726 
        1.78557         68.9612         8.11883 
        1.79171         68.4157         8.05117 
        1.79785         68.0816         7.98427 
        1.80399         67.9949         7.91815 
        1.81012         67.4283         7.85287 
        1.81625         67.1373         7.78835 
        1.82239         66.7395         7.72446 
        1.82853         66.5106         7.66131 
        1.83466         66.0733         7.59894 
        1.84078         65.8535         7.53732 
        1.84692         65.6932         7.47629 
        1.85306          65.423         7.41586 
         1.8592         65.0154         7.35619 
        1.86533         64.5945         7.29721 
        1.87147         64.3087         7.23881 
        1.87761         63.7572         7.18103 
        1.88375         63.7592         7.12394 
        1.88988         63.2617         7.06754 
        1.89601         63.2082         7.01172 
        1.90215         62.7209         6.95645 
        1.90829         62.3727         6.90181 
        1.91442         62.0286         6.84776 
        1.92056         61.9005         6.79433 
         1.9267         61.5311         6.74141 
        1.93284          61.355         6.68903 
        1.93897         60.8995         6.63731 
        1.94509         60.6631         6.58624 
        1.95123         60.3783         6.53559 
        1.95737         60.1673         6.48543 
        1.96349         59.8955         6.43592 
        1.96964         59.5518         6.38679 
        1.97578         59.2323         6.33815 
        1.98192         58.8188         6.29012 
        1.98805         58.4543         6.24258 
        1.99419         58.5334         6.19553 
        2.00033         58.0142         6.14894 
        2.00647         57.7397         6.10285 
         2.0126         57.5631          6.0573 
        2.01874         57.4369         6.01215 
        2.02488         57.1314         5.96743 
        2.03101          56.716         5.92324 
        2.03714         56.4719         5.87954 
        2.04328         56.2735         5.83623 
        2.04941          55.882         5.79339 
        2.05554         55.6261         5.75102 
        2.06167         55.3363         5.70901 
        2.06781         55.1634         5.66742 
        2.07396         54.8616         5.62618 
        2.08009         54.6617         5.58542 
        2.08622         54.3626         5.54512 
        2.09237         54.1421         5.50513 
        2.09851         53.7206         5.46553 
        2.10464         53.5096         5.42639 
        2.11077          53.388         5.38768 
        2.11691          53.107         5.34925 
        2.12305         52.8068          5.3112 
        2.12918         52.5203         5.27362 
        2.13531         52.3532         5.23639 
        2.14145         52.0089         5.19944 
         2.1476         51.9965          5.1628 
        2.15372         51.5666         5.12669 
        2.15985         51.3384          5.0909 
        2.16599         51.1509         5.05535 
        2.17213         50.8651         5.02017 
        2.17827         50.5731         4.98534 
         2.1844         50.2863         4.95087 
        2.19054         50.2568         4.91671 
        2.19666         50.0279         4.88292 
         2.2028         49.6834         4.84942 
        2.20893         49.3902         4.81622 
        2.21508         49.1474          4.7833 
        2.22122         48.8919         4.75067 
        2.22736         48.7061         4.71841 
        2.23349         48.5104         4.68646 
        2.23962          48.356         4.65479 
        2.24577         48.0794         4.62338 
         2.2519         47.8109         4.59231 
        2.25802         47.6161         4.56158 
        2.26417         47.3848         4.53104 
        2.27031         47.2213         4.50075 
        2.27644         46.9135         4.47082 
        2.28257         46.7442         4.44117 
        2.28872         46.5279         4.41173 
        2.29486         46.3197         4.38257 
        2.30099         46.0047         4.35373 
        2.30712         45.8601         4.32513 
        2.31326         45.7052         4.29675 
         2.3194         45.4805         4.26863 
        2.32553           45.22         4.24082 
        2.33166         45.0597         4.21326 
         2.3378         44.8044         4.18591 
        2.34394           44.61          4.1588 
        2.35007          44.442         4.13196 
        2.35619         44.2349         4.10539 
        2.36233         44.0525           4.079 
        2.36848         43.7868         4.05278 
        2.37462         43.5513         4.02685 
        2.38075         43.3818         4.00117 
        2.38689         43.1642         3.97569 
        2.39303         43.0541         3.95044 
        2.39916          42.791         3.92544 
        2.40529         42.6639         3.90065 
        2.41143         42.4729         3.87606 
        2.41757         42.2554         3.85167 
         2.4237         42.0743         3.82754 
        2.42983         41.9062         3.80361 
        2.43598          41.686         3.77983 
        2.44211         41.4238         3.75628 
        2.44823         41.3565           3.733 
        2.45437          41.067         3.70984 
        2.46052         40.8313         3.68686 
        2.46665         40.6732         3.66412 
        2.47279         40.5181         3.64158 
        2.47892         40.3455         3.61921 
        2.48507         40.1822           3.597 
         2.4912         39.9138         3.57503 
