# k  (h/Mpc)    Pcb(k)  (Mpc/h)^3    Pcb_linear(k)  (Mpc/h)^3
     0.00783031         1466.15          1475.6 
       0.013688         1843.67         1864.77 
       0.019231         1922.56         1932.42 
      0.0249154         1829.11         1828.41 
      0.0312784         1616.66          1619.4 
      0.0375637         1396.26          1401.2 
      0.0433917         1231.06         1229.22 
      0.0492413         1096.25         1098.13 
      0.0555754         1000.76         998.041 
      0.0619321         917.687         926.274 
       0.067871         867.428         869.766 
      0.0738098         810.944         812.097 
      0.0800417         745.411         744.687 
      0.0862327         670.717         671.843 
      0.0921407          601.39         602.213 
      0.0982031         539.262         537.083 
       0.104506         480.011         481.219 
       0.110769          439.24         439.476 
       0.116806         414.014         410.864 
       0.122832         390.621         390.318 
       0.129052         374.694         373.157 
       0.135211         359.169         356.236 
       0.141259          338.27         337.253 
       0.147318         314.452         315.345 
       0.153489         292.025         291.202 
       0.159709         269.935         267.137 
       0.165845         245.898         245.751 
       0.171974         232.373         228.084 
       0.178125         218.711         214.412 
       0.184229         206.845         204.309 
        0.19034          200.68         196.504 
       0.196428          193.53         189.681 
       0.202534         183.901          182.63 
       0.208729         177.844         174.553 
       0.214876          169.97         165.516 
       0.220989         158.129         155.934 
       0.227147         151.342         146.376 
        0.23329         143.193         137.616 
       0.239377         136.504         130.151 
       0.245482         129.696          124.02 
       0.251667         123.914         119.035 
       0.257832         121.319         114.917 
       0.263955         116.033         111.222 
       0.270079         112.179         107.524 
        0.27624         107.487         103.554 
       0.282372         103.592         99.3039 
        0.28843         100.923         94.9199 
       0.294538         96.1273         90.5248 
       0.300721         91.3513         86.3293 
        0.30691         88.7607         82.5542 
       0.313033         85.0594         79.3092 
       0.319153         83.2663         76.5173 
       0.325316         79.6184         74.0548 
        0.33145         77.1571         71.8031 
       0.337538         75.0379         69.6312 
       0.343633         72.9794         67.4273 
       0.349808         70.4941         65.1272 
       0.355968         68.1196         62.7903 
       0.362074         66.5148          60.489 
       0.368217         64.2907          58.266 
       0.374374         62.7115         56.1868 
       0.380519         60.0103         54.2957 
       0.386598         58.2268         52.6039 
       0.392688         56.5154         51.0573 
        0.39888         55.4142         49.5947 
       0.405048         54.0864         48.1973 
       0.411186         52.6347         46.8281 
       0.417313         51.1585         45.4672 
       0.423458         49.6232         44.1034 
       0.429607         48.6991         42.7567 
       0.435692         47.7203         41.4648 
       0.441815         45.8909         40.2226 
       0.447964         44.4723         39.0484 
       0.454126         43.6735         37.9509 
       0.460267         43.1518         36.9266 
       0.466387         41.9006         35.9616 
        0.47254         41.2339         35.0339 
       0.478662          39.967         34.1385 
       0.484765         39.1071         33.2623 
       0.490885         37.9841         32.3981 
       0.497035         37.2833         31.5479 
       0.503198         36.4586         30.7181 
       0.509342         35.4486         29.9182 
       0.515458         34.9613         29.1552 
       0.521598          34.129         28.4259 
       0.527764         33.6352         27.7283 
       0.533884         32.7789         27.0655 
           0.54         32.1496         26.4289 
       0.546137         31.1857         25.8115 
       0.552299         30.6559         25.2092 
       0.558452          30.012          24.622 
       0.564573         29.6663         24.0508 
       0.570708         28.9072         23.4932 
       0.576825          28.469         22.9539 
       0.582926         27.9327         22.4343 
       0.589034         27.3845         21.9321 
       0.595184         27.0229         21.4442 
       0.601379         26.2905         20.9701 
       0.607522         25.8672         20.5163 
       0.613639         25.3912         20.0791 
       0.619772         24.9838         19.6537 
       0.625918         24.4658         19.2388 
       0.632068         24.2346         18.8338 
       0.638161         23.7327         18.4425 
         0.6443         23.3267         18.0588 
       0.650464         22.7505         17.6847 
       0.656582         22.5974         17.3246 
       0.662703         22.3096         16.9753 
       0.668861          21.707         16.6345 
       0.675024         21.4078         16.3033 
       0.681124         21.3077         15.9846 
       0.687237         20.8577         15.6738 
       0.693381         20.3775         15.3697 
       0.699536         20.2808         15.0731 
       0.705665         19.8947         14.7855 
       0.711789         19.5208         14.5056 
       0.717957         19.1213          14.231 
        0.72409         18.9561         13.9651 
       0.730186         18.8408         13.7075 
       0.736317         18.4332         13.4551 
       0.742472         18.2011         13.2082 
       0.748622         17.9131         12.9678 
        0.75476         17.4605         12.7341 
       0.760888         17.3778         12.5065 
       0.767043         17.0663         12.2837 
       0.773185         16.8707         12.0669 
       0.779291         16.7367         11.8565 
       0.785407         16.4246          11.651 
       0.791564         16.2756          11.449 
       0.797719         15.9339         11.2519 
       0.803834         15.8461         11.0608 
       0.809972         15.5414         10.8734 
       0.816124         15.3651         10.6899 
       0.822261         15.1875         10.5112 
       0.828378         14.9968         10.3371 
       0.834502         14.8371         10.1669 
       0.840667         14.6799          9.9994 
       0.846816         14.3631         9.83618 
       0.852925         14.2838         9.67766 
       0.859047          14.102         9.52233 
       0.865192         13.9049         9.36992 
       0.871341         13.7151         9.22076 
       0.877463         13.5616         9.07556 
       0.883569         13.4627         8.93387 
       0.889708         13.2408          8.7945 
       0.895864         13.0781         8.65776 
       0.902008         12.9169         8.52424 
       0.908149         12.7426         8.39363 
       0.914301         12.6637         8.26557 
       0.920448         12.4778         8.14031 
       0.926574          12.405          8.0181 
       0.932687         12.2095         7.89868 
       0.938823         12.0457         7.78127 
       0.944975         11.9563         7.66599 
       0.951105         11.7949         7.55348 
       0.957225         11.7248         7.44342 
       0.963368         11.5573          7.3352 
       0.969511         11.4318         7.22914 
       0.975621         11.3122         7.12575 
       0.981748         11.1503         7.02413 
       0.987916          11.064         6.92387 
        0.99406         10.9692         6.82595 
        1.00019         10.8694         6.73012 
        1.00632         10.7665         6.63623 
        1.01246         10.6383           6.544 
        1.01859         10.5167         6.45368 
        1.02471         10.3803         6.36518 
        1.03085          10.344         6.27804 
        1.03698         10.2356         6.19273 
        1.04314         10.1185         6.10865 
        1.04929          9.9767         6.02633 
        1.05541         9.91935         5.94586 
        1.06154         9.82768         5.86668 
        1.06769         9.77408         5.78882 
        1.07382         9.60539         5.71264 
        1.07993         9.51718           5.638 
        1.08607         9.47067          5.5644 
        1.09222         9.34454         5.49204 
        1.09836         9.32094         5.42105 
        1.10449         9.14947         5.35141 
        1.11063         9.12337         5.28292 
        1.11677         9.05029         5.21566 
         1.1229         8.96465         5.14969 
        1.12903         8.89605         5.08481 
        1.13518         8.76162         5.02099 
        1.14131         8.69966         4.95832 
        1.14745         8.58916         4.89675 
        1.15359          8.5257         4.83622 
        1.15973         8.44726         4.77669 
        1.16584         8.38462         4.71843 
        1.17197         8.30646         4.66107 
        1.17811         8.23071         4.60449 
        1.18424         8.16926         4.54901 
        1.19038         8.11314         4.49429 
        1.19652         8.05059          4.4405 
        1.20267         7.98106         4.38759 
        1.20881         7.89513         4.33555 
        1.21495         7.83292         4.28445 
        1.22108         7.78036         4.23418 
         1.2272         7.70108         4.18483 
        1.23334         7.68333         4.13617 
        1.23949         7.58663         4.08816 
        1.24562         7.53149         4.04105 
        1.25174          7.4849         3.99475 
        1.25789         7.37717         3.94904 
        1.26402         7.35271         3.90413 
        1.27014         7.30615         3.86003 
        1.27628         7.21566         3.81648 
        1.28244         7.19612         3.77352 
        1.28858         7.14673         3.73128 
        1.29471         7.04651         3.68978 
        1.30084         6.99172         3.64896 
        1.30697         6.97636         3.60869 
        1.31312         6.90361         3.56897 
        1.31925         6.85317         3.52998 
        1.32537         6.81137         3.49161 
        1.33151         6.75116         3.45367 
        1.33765         6.69829         3.41632 
        1.34378         6.68342          3.3796 
        1.34992         6.61329         3.34339 
        1.35606         6.56736         3.30764 
         1.3622         6.51425         3.27247 
        1.36833         6.46553          3.2379 
        1.37445         6.41197         3.20385 
        1.38059          6.3698         3.17018 
        1.38675         6.32331         3.13692 
        1.39288         6.28216         3.10427 
        1.39901          6.2237          3.0721 
        1.40515         6.19177         3.04032 
         1.4113         6.14149           3.009 
        1.41742          6.1079         2.97824 
        1.42355         6.05571         2.94785 
         1.4297         6.02461          2.9178 
        1.43585         5.98811         2.88817 
        1.44198         5.93899         2.85908 
        1.44809          5.9092         2.83044 
        1.45423         5.85987         2.80209 
        1.46036         5.82831         2.77417 
        1.46649         5.78151         2.74663 
        1.47263         5.75614         2.71944 
        1.47877         5.71428         2.69264 
        1.48491         5.68199         2.66615 
        1.49104         5.63464         2.64007 
        1.49718         5.61198         2.61433 
        1.50333         5.56813         2.58889 
        1.50947         5.51606         2.56383 
         1.5156         5.50378         2.53915 
        1.52172         5.46866         2.51479 
        1.52787         5.43319         2.49071 
          1.534         5.39657         2.46697 
        1.54013         5.36826         2.44356 
        1.54627         5.32906         2.42041 
        1.55241         5.28551         2.39756 
        1.55855         5.27217         2.37504 
        1.56467         5.23476         2.35287 
         1.5708         5.20165         2.33092 
        1.57695         5.15415         2.30922 
        1.58308         5.12283         2.28784 
        1.58922         5.10742         2.26672 
        1.59535         5.07492         2.24587 
         1.6015         5.03323         2.22526 
        1.60764         5.01445         2.20492 
        1.61376         4.98404         2.18489 
        1.61989         4.93885         2.16509 
        1.62604         4.91714         2.14549 
        1.63218         4.89609         2.12615 
        1.63831         4.87603         2.10709 
        1.64444         4.83366         2.08825 
        1.65059         4.81388         2.06961 
        1.65673         4.78346         2.05121 
        1.66285         4.75806         2.03308 
        1.66898           4.727         2.01517 
        1.67512          4.6958         1.99745 
        1.68127         4.66786         1.97991 
         1.6874         4.65271         1.96263 
        1.69353         4.61028         1.94557 
        1.69967         4.59512         1.92866 
        1.70581         4.56463         1.91197 
        1.71193         4.54044         1.89554 
        1.71806         4.51835         1.87926 
        1.72421         4.49148         1.86315 
        1.73035         4.46631         1.84724 
        1.73649         4.44069         1.83152 
        1.74262         4.41848           1.816 
        1.74876         4.40274         1.80064 
        1.75489         4.37214          1.7855 
        1.76101         4.34226         1.77053 
        1.76715         4.33389         1.75572 
        1.77329         4.30644         1.74105 
        1.77943         4.27485         1.72655 
        1.78557         4.26095         1.71224 
        1.79171         4.24161         1.69808 
        1.79785         4.21855         1.68408 
        1.80399         4.18362         1.67024 
        1.81012         4.17047         1.65658 
        1.81625         4.14632         1.64307 
        1.82239         4.13033          1.6297 
        1.82853         4.10517         1.61648 
        1.83466         4.07242         1.60342 
        1.84078         4.05509         1.59051 
        1.84692         4.03811         1.57773 
        1.85306          4.0171         1.56508 
         1.8592         4.00413         1.55258 
        1.86533         3.98202         1.54023 
        1.87147         3.96255         1.52799 
        1.87761         3.94871         1.51589 
        1.88375         3.92241         1.50393 
        1.88988         3.90402         1.49211 
        1.89601         3.87884         1.48041 
        1.90215         3.85462         1.46883 
        1.90829         3.85188         1.45738 
        1.91442         3.82154         1.44605 
        1.92056         3.81502         1.43485 
         1.9267         3.78869         1.42375 
        1.93284         3.78083         1.41277 
        1.93897         3.74795         1.40192 
        1.94509         3.73141         1.39121 
        1.95123         3.71716         1.38059 
        1.95737         3.70294         1.37007 
        1.96349         3.67612         1.35969 
        1.96964         3.66247         1.34938 
        1.97578          3.6477         1.33918 
        1.98192         3.62364          1.3291 
        1.98805         3.61507         1.31912 
        1.99419         3.59726         1.30925 
        2.00033         3.56762         1.29947 
        2.00647         3.56568          1.2898 
         2.0126         3.54654         1.28024 
        2.01874         3.53556         1.27076 
        2.02488         3.51434         1.26137 
        2.03101         3.49198         1.25209 
        2.03714         3.48428         1.24292 
        2.04328         3.46712         1.23382 
        2.04941         3.45038         1.22483 
        2.05554         3.43975         1.21593 
        2.06167         3.41688          1.2071 
        2.06781         3.40684         1.19837 
        2.07396         3.38756          1.1897 
        2.08009         3.37991         1.18114 
        2.08622         3.36402         1.17267 
        2.09237         3.35655         1.16427 
        2.09851         3.32768         1.15595 
        2.10464         3.31849         1.14772 
        2.11077         3.31151         1.13959 
        2.11691         3.29019         1.13151 
        2.12305         3.27255         1.12351 
        2.12918         3.26174         1.11561 
        2.13531         3.24583         1.10779 
        2.14145          3.2369         1.10002 
         2.1476          3.2136         1.09231 
        2.15372         3.20428         1.08472 
        2.15985         3.19208          1.0772 
        2.16599         3.18193         1.06972 
        2.17213         3.16975         1.06232 
        2.17827         3.14851           1.055 
         2.1844         3.13526         1.04775 
        2.19054         3.12592         1.04056 
        2.19666         3.11393         1.03345 
         2.2028         3.09147         1.02641 
        2.20893         3.08957         1.01942 
        2.21508         3.07705         1.01249 
        2.22122         3.05565         1.00563 
        2.22736          3.0474        0.998838 
        2.23349         3.03211        0.992114 
        2.23962         3.02705        0.985449 
        2.24577          3.0066        0.978839 
         2.2519         2.99739        0.972298 
        2.25802         2.98445        0.965828 
        2.26417         2.97299        0.959399 
        2.27031         2.95989        0.953022 
        2.27644          2.9497        0.946722 
        2.28257         2.93661        0.940479 
        2.28872         2.92722         0.93428 
        2.29486         2.91077        0.928139 
        2.30099         2.89963        0.922065 
        2.30712         2.89245        0.916043 
        2.31326         2.88021        0.910065 
         2.3194         2.86752        0.904143 
        2.32553         2.85963        0.898284 
        2.33166         2.85157        0.892479 
         2.3378         2.83852        0.886718 
        2.34394         2.82322        0.881006 
        2.35007         2.80855        0.875352 
        2.35619         2.80395        0.869754 
        2.36233         2.79179        0.864192 
        2.36848         2.78342        0.858667 
        2.37462         2.77331        0.853202 
        2.38075         2.76413         0.84779 
        2.38689         2.75285         0.84242 
        2.39303          2.7426        0.837098 
        2.39916         2.72946        0.831827 
        2.40529         2.71927        0.826602 
        2.41143         2.71356        0.821418 
        2.41757         2.70538        0.816276 
         2.4237         2.68928        0.811187 
        2.42983         2.68585        0.806143 
        2.43598         2.67543        0.801127 
        2.44211         2.65984        0.796163 
        2.44823         2.65264        0.791252 
        2.45437         2.64002        0.786369 
        2.46052         2.63231        0.781523 
        2.46665         2.62509        0.776726 
        2.47279         2.60864        0.771971 
        2.47892         2.60498        0.767253 
        2.48507         2.59378         0.76257 
         2.4912         2.58941        0.757935 
