# k  (h/Mpc)    Pcb(k)  (Mpc/h)^3    Pcb_linear(k)  (Mpc/h)^3
     0.00783031         13865.6         14059.8 
       0.013688           18342         18186.2 
       0.019231         19279.9           19284 
      0.0249154         18244.8         18686.7 
      0.0312784         16695.8         16968.2 
      0.0375637         14865.6         14971.7 
      0.0433917         12928.5         13282.9 
      0.0492413           11728           11918 
      0.0555754         10381.2         10825.6 
      0.0619321         9941.25         10034.3 
       0.067871         9059.47         9443.58 
      0.0738098         8507.58         8884.99 
      0.0800417         7780.07         8256.89 
      0.0862327         7215.37          7569.5 
      0.0921407         6670.47         6882.03 
      0.0982031         5987.26         6197.61 
       0.104506         5571.22         5565.34 
       0.110769         5086.43         5054.07 
       0.116806         4721.24          4679.3 
       0.122832         4468.51         4404.56 
       0.129052         4157.96         4192.53 
       0.135211         3985.12         4015.57 
       0.141259         3862.74         3840.95 
       0.147318         3689.38         3644.99 
       0.153489         3416.96         3419.04 
       0.159709         3247.37         3174.37 
       0.165845         3121.46         2934.47 
       0.171974         2924.17         2714.95 
       0.178125         2766.33         2527.93 
       0.184229         2634.19         2380.07 
        0.19034         2492.45         2266.46 
       0.196428         2450.76         2178.45 
       0.202534         2365.49         2103.57 
       0.208729         2277.18         2029.62 
       0.214876         2196.67         1949.96 
       0.220989         2132.29         1861.29 
       0.227147         2043.12         1764.24 
        0.23329         1963.75         1664.97 
       0.239377         1935.34         1570.54 
       0.245482         1815.94         1485.17 
       0.251667         1805.64         1411.44 
       0.257832         1735.47         1351.04 
       0.263955         1680.62         1301.86 
       0.270079         1628.01         1259.82 
        0.27624         1612.47         1220.59 
       0.282372          1546.6         1181.18 
        0.28843         1544.25         1139.86 
       0.294538         1471.76         1095.43 
       0.300721         1463.76          1048.8 
        0.30691         1408.52         1002.37 
       0.313033         1380.82         958.855 
       0.319153         1362.68         919.319 
       0.325316         1316.76          884.32 
        0.33145         1289.83         854.036 
       0.337538         1268.97         827.641 
       0.343633         1242.52         803.519 
       0.349808         1204.29         780.128 
       0.355968         1196.36         756.751 
       0.362074         1185.36         733.023 
       0.368217         1148.86         708.603 
       0.374374         1109.23         683.984 
       0.380519          1111.2         659.993 
       0.386598         1082.19         637.423 
       0.392688          1077.7         616.478 
        0.39888         1047.75         597.062 
       0.405048         1036.88         579.457 
       0.411186         1021.86         563.371 
       0.417313          1000.7         548.238 
       0.423458         985.352          533.55 
       0.429607         971.837         519.053 
       0.435692         954.355          504.72 
       0.441815         947.768          490.32 
       0.447964         927.223         476.073 
       0.454126         919.844          462.19 
       0.460267         899.165         448.944 
       0.466387         887.486         436.499 
        0.47254          882.89         424.774 
       0.478662         873.589         413.814 
       0.484765         851.772         403.496 
       0.490885         846.846         393.613 
       0.497035         827.979         383.983 
       0.503198         824.161         374.519 
       0.509342         814.159         365.248 
       0.515458         810.659         356.181 
       0.521598         792.246         347.262 
       0.527764         776.393         338.556 
       0.533884         776.339         330.239 
           0.54         768.537         322.294 
       0.546137         761.262         314.676 
       0.552299         751.894          307.36 
       0.558452          746.07          300.36 
       0.564573         735.773         293.652 
       0.570708         729.019         287.131 
       0.576825         709.056         280.786 
       0.582926         713.084         274.588 
       0.589034          705.99         268.524 
       0.595184         699.206         262.577 
       0.601379         690.083         256.759 
       0.607522         680.545         251.168 
       0.613639         681.674         245.782 
       0.619772         666.209         240.566 
       0.625918         661.758         235.526 
       0.632068         654.286         230.656 
       0.638161         652.062         225.981 
         0.6443          639.75           221.4 
       0.650464         638.471         216.913 
       0.656582         634.434         212.566 
       0.662703         630.572         208.322 
       0.668861         619.672         204.163 
       0.675024          614.76         200.114 
       0.681124         611.485          196.22 
       0.687237         606.306         192.427 
       0.693381          599.04         188.722 
       0.699536         588.636         185.113 
       0.705665         589.456         181.619 
       0.711789         584.768         178.222 
       0.717957         579.477         174.892 
        0.72409          576.21         171.666 
       0.730186          568.08         168.542 
       0.736317         564.883         165.476 
       0.742472          561.97         162.472 
       0.748622         555.876         159.543 
        0.75476         547.431         156.691 
       0.760888         542.926         153.912 
       0.767043          542.28          151.19 
       0.773185         536.941         148.541 
       0.779291         532.222         145.973 
       0.785407         527.219         143.465 
       0.791564         521.817         141.002 
       0.797719         519.423           138.6 
       0.803834         514.779          136.27 
       0.809972         511.812         133.985 
       0.816124          510.91         131.748 
       0.822261         502.953         129.567 
       0.828378         500.522         127.441 
       0.834502         495.195         125.361 
       0.840667          491.29         123.314 
       0.846816         488.777         121.318 
       0.852925         484.421         119.379 
       0.859047         483.816         117.479 
       0.865192         477.669         115.614 
       0.871341         473.514         113.789 
       0.877463           472.8         112.012 
       0.883569         467.633         110.279 
       0.889708         465.318         108.573 
       0.895864         462.424           106.9 
       0.902008         458.825         105.265 
       0.908149         453.823         103.666 
       0.914301         451.132         102.098 
       0.920448         448.439         100.563 
       0.926574         441.466         99.0662 
       0.932687          441.28         97.6027 
       0.938823         436.636         96.1637 
       0.944975         436.979         94.7506 
       0.951105         430.958         93.3711 
       0.957225         428.013         92.0215 
       0.963368         424.168         90.6942 
       0.969511          422.51         89.3931 
       0.975621         419.612         88.1247 
       0.981748         417.322         86.8778 
       0.987916         414.469         85.6473 
        0.99406         407.527         84.4454 
        1.00019          406.62         83.2691 
        1.00632         404.524         82.1164 
        1.01246         401.171         80.9839 
        1.01859         401.026         79.8747 
        1.02471         395.491         78.7877 
        1.03085         393.677         77.7174 
        1.03698         392.082         76.6692 
        1.04314         388.272          75.636 
        1.04929         383.929         74.6244 
        1.05541         384.691         73.6354 
        1.06154         378.958          72.662 
        1.06769         376.656         71.7048 
        1.07382          374.56          70.768 
        1.07993         372.234         69.8502 
        1.08607         370.951         68.9449 
        1.09222         367.266         68.0549 
        1.09836         364.973         67.1816 
        1.10449          361.59         66.3248 
        1.11063         357.623          65.482 
        1.11677         358.281         64.6542 
         1.1229         355.846         63.8422 
        1.12903         352.672         63.0435 
        1.13518          348.99         62.2578 
        1.14131         347.857          61.486 
        1.14745         344.981         60.7278 
        1.15359         343.082         59.9823 
        1.15973         340.755          59.249 
        1.16584         338.311         58.5313 
        1.17197         337.387         57.8245 
        1.17811         333.988         57.1273 
        1.18424         331.015         56.4437 
        1.19038         329.348         55.7693 
        1.19652         327.301         55.1062 
        1.20267         325.635         54.4539 
        1.20881         324.028         53.8124 
        1.21495         321.177         53.1822 
        1.22108         319.425         52.5623 
         1.2272         316.957         51.9538 
        1.23334         314.768         51.3535 
        1.23949         312.979         50.7613 
        1.24562         311.555         50.1802 
        1.25174         308.766          49.609 
        1.25789         305.922          49.045 
        1.26402         304.175         48.4908 
        1.27014         302.169         47.9466 
        1.27628         300.395         47.4091 
        1.28244         300.096         46.8788 
        1.28858         296.606         46.3573 
        1.29471         294.596          45.845 
        1.30084          293.13         45.3409 
        1.30697         291.059         44.8437 
        1.31312         288.091         44.3532 
        1.31925         287.503         43.8716 
        1.32537         286.276         43.3976 
        1.33151         283.032          42.929 
        1.33765         281.163         42.4676 
        1.34378          280.11         42.0139 
        1.34992         278.155         41.5665 
        1.35606         276.921         41.1247 
         1.3622         274.754         40.6901 
        1.36833         272.807         40.2629 
        1.37445         271.294          39.842 
        1.38059         268.688         39.4258 
        1.38675         267.541         39.0146 
        1.39288         265.917         38.6109 
        1.39901         264.833         38.2132 
        1.40515         262.861         37.8201 
         1.4113         261.291         37.4328 
        1.41742         259.177         37.0523 
        1.42355         257.674         36.6764 
         1.4297         255.894         36.3047 
        1.43585         254.437         35.9382 
        1.44198         252.982         35.5782 
        1.44809         251.047         35.2239 
        1.45423         249.336          34.873 
        1.46036         248.271         34.5276 
        1.46649         246.062         34.1867 
        1.47263         244.709         33.8502 
        1.47877         243.114         33.5184 
        1.48491         241.246         33.1905 
        1.49104         240.398         32.8677 
        1.49718         238.351         32.5489 
        1.50333         237.164         32.2339 
        1.50947         235.697         31.9237 
         1.5156         233.593         31.6181 
        1.52172         232.975         31.3164 
        1.52787         230.977         31.0181 
          1.534         230.121         30.7241 
        1.54013         227.723         30.4342 
        1.54627         227.053         30.1475 
        1.55241         225.392         29.8644 
        1.55855         223.869         29.5854 
        1.56467         222.529         29.3107 
         1.5708         221.976         29.0387 
        1.57695         219.891         28.7698 
        1.58308         218.663         28.5049 
        1.58922         216.175         28.2432 
        1.59535         215.048         27.9848 
         1.6015         214.564         27.7293 
        1.60764         212.905         27.4772 
        1.61376         211.626         27.2288 
        1.61989         210.288         26.9833 
        1.62604         208.978         26.7404 
        1.63218         207.735         26.5005 
        1.63831         206.269         26.2642 
        1.64444         205.541         26.0306 
        1.65059         203.946         25.7994 
        1.65673         202.678         25.5712 
        1.66285         201.266         25.3464 
        1.66898         199.942         25.1242 
        1.67512         199.334         24.9043 
        1.68127         197.039         24.6868 
         1.6874         196.161         24.4724 
        1.69353         195.032         24.2607 
        1.69967         193.641         24.0509 
        1.70581         192.784         23.8438 
        1.71193          191.31         23.6398 
        1.71806          190.63         23.4379 
        1.72421         189.001         23.2379 
        1.73035         188.281         23.0404 
        1.73649         187.118         22.8453 
        1.74262         185.833         22.6526 
        1.74876         184.508          22.462 
        1.75489         183.354          22.274 
        1.76101         182.241         22.0882 
        1.76715         181.321         21.9043 
        1.77329         180.374         21.7222 
        1.77943          179.35         21.5422 
        1.78557         178.111         21.3644 
        1.79171         177.055         21.1886 
        1.79785         175.629         21.0148 
        1.80399         174.817         20.8429 
        1.81012         173.738         20.6732 
        1.81625         172.842         20.5055 
        1.82239         171.582         20.3394 
        1.82853         170.998         20.1751 
        1.83466         169.563         20.0129 
        1.84078         168.799         19.8526 
        1.84692         167.275         19.6938 
        1.85306         166.856         19.5366 
         1.8592          165.58         19.3813 
        1.86533         164.816         19.2278 
        1.87147         163.501         19.0758 
        1.87761         162.829         18.9253 
        1.88375         161.253         18.7767 
        1.88988         160.162         18.6298 
        1.89601         159.864         18.4844 
        1.90215         158.604         18.3405 
        1.90829         157.695         18.1981 
        1.91442         156.676         18.0572 
        1.92056         156.056          17.918 
         1.9267         154.728         17.7801 
        1.93284         153.844         17.6436 
        1.93897         153.199         17.5087 
        1.94509         152.262         17.3756 
        1.95123          151.46         17.2435 
        1.95737         150.568         17.1126 
        1.96349         149.577         16.9835 
        1.96964         148.533         16.8553 
        1.97578         147.705         16.7284 
        1.98192         146.914         16.6031 
        1.98805         145.837          16.479 
        1.99419         145.053         16.3562 
        2.00033         144.275         16.2346 
        2.00647         143.552         16.1142 
         2.0126         142.279         15.9953 
        2.01874         141.959         15.8774 
        2.02488         141.117         15.7606 
        2.03101         139.774         15.6451 
        2.03714         139.274          15.531 
        2.04328         138.324         15.4178 
        2.04941         137.725         15.3059 
        2.05554         136.638         15.1951 
        2.06167         136.186         15.0853 
        2.06781         135.265         14.9766 
        2.07396           134.3         14.8688 
        2.08009          133.91         14.7622 
        2.08622         132.774         14.6568 
        2.09237         132.023         14.5523 
        2.09851         131.359         14.4487 
        2.10464          130.93         14.3463 
        2.11077         129.978          14.245 
        2.11691         129.248         14.1445 
        2.12305          128.28         14.0449 
        2.12918         127.583         13.9465 
        2.13531         127.103         13.8491 
        2.14145         125.981         13.7524 
         2.1476         125.058         13.6565 
        2.15372         124.941         13.5619 
        2.15985         124.439         13.4682 
        2.16599         123.127         13.3751 
        2.17213         122.644          13.283 
        2.17827          121.92         13.1918 
         2.1844         121.113         13.1015 
        2.19054         120.558          13.012 
        2.19666         119.772         12.9235 
         2.2028          119.09         12.8357 
        2.20893         118.656         12.7487 
        2.21508         117.884         12.6624 
        2.22122         117.066         12.5768 
        2.22736         116.435         12.4923 
        2.23349         115.831         12.4085 
        2.23962         115.114         12.3255 
        2.24577         114.498         12.2431 
         2.2519         114.015         12.1616 
        2.25802         113.224          12.081 
        2.26417         112.605         12.0009 
        2.27031         111.739         11.9215 
        2.27644         111.271          11.843 
        2.28257         110.615         11.7652 
        2.28872         110.162         11.6879 
        2.29486         109.341         11.6114 
        2.30099          108.79         11.5357 
        2.30712         108.217         11.4606 
        2.31326         107.543         11.3861 
         2.3194         107.008         11.3123 
        2.32553         106.384         11.2393 
        2.33166         105.991         11.1669 
         2.3378         105.399         11.0951 
        2.34394         104.796         11.0239 
        2.35007         104.023         10.9534 
        2.35619         103.512         10.8836 
        2.36233         103.003         10.8143 
        2.36848         102.418         10.7454 
        2.37462          102.05         10.6773 
        2.38075         101.238         10.6098 
        2.38689         100.749         10.5428 
        2.39303         100.175         10.4765 
        2.39916          99.768         10.4107 
        2.40529         99.2738         10.3456 
        2.41143         98.7128         10.2809 
        2.41757         98.0367         10.2168 
         2.4237         97.4015         10.1534 
        2.42983         96.7917         10.0905 
        2.43598         96.4029         10.0279 
        2.44211         96.0279         9.96599 
        2.44823         95.4962         9.90473 
        2.45437         94.9744         9.84382 
        2.46052         94.2953         9.78338 
        2.46665         93.7918         9.72354 
        2.47279         93.4594         9.66423 
        2.47892         92.8605         9.60537 
        2.48507         92.3448         9.54695 
         2.4912         91.8793         9.48912 
