# k  (h/Mpc)    Pcb(k)  (Mpc/h)^3    Pcb_linear(k)  (Mpc/h)^3
     0.00783031         3531.38         3567.83 
       0.013688         4628.65         4616.98 
       0.019231         4898.64         4895.91 
      0.0249154         4693.38         4743.85 
      0.0312784         4286.17         4307.04 
      0.0375637         3801.88         3799.94 
      0.0433917         3343.48         3371.12 
      0.0492413         3016.76         3024.61 
      0.0555754         2710.17          2747.3 
      0.0619321         2555.63         2546.42 
       0.067871         2368.31         2396.48 
      0.0738098         2224.78          2254.7 
      0.0800417            2053         2095.28 
      0.0862327         1893.66         1920.83 
      0.0921407         1732.42         1746.37 
      0.0982031         1553.73         1572.68 
       0.104506         1419.94         1412.24 
       0.110769         1290.84          1282.5 
       0.116806         1187.84         1187.39 
       0.122832         1126.13         1117.67 
       0.129052         1058.96         1063.86 
       0.135211         1013.87         1018.96 
       0.141259         977.086         974.644 
       0.147318         931.583         924.917 
       0.153489         867.602         867.581 
       0.159709         813.278         805.496 
       0.165845         765.789         744.621 
       0.171974         706.127         688.917 
       0.178125         663.051          641.46 
       0.184229         629.853          603.94 
        0.19034         589.271         575.112 
       0.196428          576.78         552.779 
       0.202534         562.138         533.777 
       0.208729         538.411         515.012 
       0.214876         512.739         494.798 
       0.220989         498.401         472.298 
       0.227147         468.234         447.672 
        0.23329         446.176         422.482 
       0.239377         429.619         398.521 
       0.245482         400.757         376.859 
       0.251667         391.701         358.151 
       0.257832         377.182         342.824 
       0.263955         364.044         330.344 
       0.270079         352.551         319.677 
        0.27624         347.191         309.723 
       0.282372         334.513          299.72 
        0.28843         323.054         289.236 
       0.294538         310.092         277.963 
       0.300721         304.729         266.129 
        0.30691         290.107         254.347 
       0.313033         281.639         243.307 
       0.319153         269.142         233.274 
       0.325316         262.951         224.394 
        0.33145         254.227         216.709 
       0.337538         250.155         210.012 
       0.343633         242.383          203.89 
       0.349808         235.603         197.955 
       0.355968         230.948         192.023 
       0.362074         224.494         186.002 
       0.368217         218.539         179.806 
       0.374374          211.95         173.559 
       0.380519         207.056         167.471 
       0.386598         201.607         161.744 
       0.392688         198.256         156.429 
        0.39888         192.979         151.503 
       0.405048         188.912         147.035 
       0.411186          184.81         142.953 
       0.417313         180.322         139.113 
       0.423458         176.671         135.386 
       0.429607         172.292         131.708 
       0.435692          167.02         128.071 
       0.441815         165.697         124.417 
       0.447964         162.947         120.802 
       0.454126         155.989         117.279 
       0.460267         154.037         113.918 
       0.466387         151.342          110.76 
        0.47254         148.772         107.785 
       0.478662         146.794         105.004 
       0.484765         142.965         102.386 
       0.490885         140.472         99.8779 
       0.497035         138.678         97.4342 
       0.503198         135.029         95.0328 
       0.509342         132.376         92.6804 
       0.515458         130.501         90.3795 
       0.521598         128.866         88.1164 
       0.527764          126.76         85.9072 
       0.533884         124.534         83.7969 
           0.54         122.474         81.7809 
       0.546137          121.27          79.848 
       0.552299         119.494         77.9913 
       0.558452         116.589         76.2151 
       0.564573         114.511         74.5131 
       0.570708         113.331         72.8585 
       0.576825         111.384         71.2483 
       0.582926         109.462         69.6757 
       0.589034         107.233          68.137 
       0.595184         106.148         66.6279 
       0.601379         105.014         65.1517 
       0.607522         102.394          63.733 
       0.613639         102.284         62.3661 
       0.619772         99.8212         61.0428 
       0.625918         99.1295         59.7638 
       0.632068         97.8277          58.528 
       0.638161         96.5414         57.3417 
         0.6443          95.179         56.1793 
       0.650464         93.8825         55.0409 
       0.656582         92.9384         53.9377 
       0.662703         91.0972         52.8608 
       0.668861         90.2381         51.8055 
       0.675024         89.0789         50.7782 
       0.681124         87.8393         49.7901 
       0.687237         86.3941         48.8277 
       0.693381         85.6427         47.8876 
       0.699536         84.2981         46.9718 
       0.705665         84.7255         46.0852 
       0.711789         82.4554         45.2232 
       0.717957         81.9207         44.3781 
        0.72409         80.7491         43.5597 
       0.730186         79.4718         42.7668 
       0.736317         79.2657         41.9889 
       0.742472         78.0655         41.2268 
       0.748622         77.5107         40.4836 
        0.75476         76.5797         39.7598 
       0.760888          75.519         39.0547 
       0.767043         74.7772          38.364 
       0.773185         73.8579         37.6918 
       0.779291         73.4529         37.0402 
       0.785407         72.7728         36.4038 
       0.791564         71.6597         35.7789 
       0.797719         70.6759         35.1693 
       0.803834         70.4801          34.578 
       0.809972         69.3357         33.9983 
       0.816124         68.5116         33.4305 
       0.822261          68.164         32.8771 
       0.828378         67.5498         32.3378 
       0.834502         66.7859         31.8099 
       0.840667         66.2711         31.2904 
       0.846816         65.4302          30.784 
       0.852925         64.8354          30.292 
       0.859047         63.9963         29.8098 
       0.865192         63.7531         29.3366 
       0.871341         63.3625         28.8736 
       0.877463         62.1536         28.4228 
       0.883569         61.8045         27.9828 
       0.889708         61.4717           27.55 
       0.895864         60.8684         27.1254 
       0.902008         60.3799         26.7106 
       0.908149         59.8992         26.3049 
       0.914301         59.4843         25.9069 
       0.920448         58.6746         25.5176 
       0.926574         58.3713         25.1377 
       0.932687         57.8353         24.7663 
       0.938823         57.0267         24.4012 
       0.944975         56.9079         24.0426 
       0.951105         56.3488         23.6926 
       0.957225         55.6847         23.3501 
       0.963368         55.4945         23.0133 
       0.969511         55.1052         22.6832 
       0.975621         54.6508         22.3613 
       0.981748         54.0023         22.0449 
       0.987916         53.7652         21.7327 
        0.99406         53.4158         21.4277 
        1.00019         52.6888         21.1292 
        1.00632         52.5177         20.8367 
        1.01246         52.0473         20.5494 
        1.01859         51.4844         20.2679 
        1.02471         51.5379         19.9921 
        1.03085         50.9721         19.7205 
        1.03698         50.3793         19.4545 
        1.04314         49.9294         19.1924 
        1.04929         49.7606         18.9357 
        1.05541         49.2158         18.6847 
        1.06154         49.0922         18.4377 
        1.06769         48.6621         18.1948 
        1.07382         48.3284         17.9571 
        1.07993         48.1729         17.7242 
        1.08607          47.601         17.4945 
        1.09222         47.4422         17.2687 
        1.09836          46.964         17.0471 
        1.10449         46.7301         16.8297 
        1.11063         46.1147         16.6158 
        1.11677         45.9602         16.4058 
         1.1229          45.832         16.1997 
        1.12903         45.2047         15.9971 
        1.13518         45.0545         15.7977 
        1.14131         44.9677         15.6019 
        1.14745           44.47         15.4095 
        1.15359         44.3024         15.2203 
        1.15973         43.8013         15.0342 
        1.16584         43.4791         14.8521 
        1.17197          43.486         14.6728 
        1.17811         42.9884         14.4959 
        1.18424         42.6301         14.3224 
        1.19038         42.6022         14.1513 
        1.19652         42.3074          13.983 
        1.20267          42.003         13.8175 
        1.20881         41.7129         13.6547 
        1.21495          41.416         13.4948 
        1.22108         41.1568         13.3375 
         1.2272         40.7269         13.1831 
        1.23334         40.6111         13.0308 
        1.23949          40.385         12.8805 
        1.24562         40.2213          12.733 
        1.25174         39.9904         12.5881 
        1.25789         39.7454          12.445 
        1.26402         39.5215         12.3044 
        1.27014         39.1471         12.1663 
        1.27628         38.9521         12.0299 
        1.28244         38.7389         11.8953 
        1.28858         38.5855          11.763 
        1.29471         38.3387          11.633 
        1.30084         38.1108         11.5051 
        1.30697         37.8204         11.3789 
        1.31312         37.5206         11.2545 
        1.31925         37.4081         11.1323 
        1.32537         37.2528          11.012 
        1.33151         36.9726         10.8931 
        1.33765          36.901          10.776 
        1.34378         36.7263         10.6609 
        1.34992         36.1749         10.5474 
        1.35606         36.1098         10.4353 
         1.3622         35.9068          10.325 
        1.36833         35.7233         10.2166 
        1.37445         35.6871         10.1098 
        1.38059         35.4853         10.0042 
        1.38675         35.1429         9.89984 
        1.39288         35.0426          9.7974 
        1.39901         34.7408         9.69647 
        1.40515         34.5995         9.59673 
         1.4113         34.4759         9.49844 
        1.41742         34.1074          9.4019 
        1.42355         34.0926         9.30653 
         1.4297         33.8422         9.21219 
        1.43585          33.791         9.11921 
        1.44198         33.4543         9.02786 
        1.44809         33.3551         8.93794 
        1.45423         33.2216         8.84892 
        1.46036         33.0929         8.76127 
        1.46649         32.8559         8.67478 
        1.47263         32.6765         8.58939 
        1.47877         32.5292         8.50519 
        1.48491         32.3374         8.42198 
        1.49104          32.275         8.34007 
        1.49718         31.9702         8.25919 
        1.50333         31.8869         8.17926 
        1.50947         31.7393         8.10054 
         1.5156         31.5194         8.02299 
        1.52172          31.282         7.94645 
        1.52787         31.3065         7.87075 
          1.534         31.0573         7.79614 
        1.54013         30.8379         7.72257 
        1.54627         30.7938         7.64982 
        1.55241         30.5772           7.578 
        1.55855          30.441          7.5072 
        1.56467         30.3232          7.4375 
         1.5708         30.1804         7.36849 
        1.57695         29.8906         7.30025 
        1.58308         29.9596         7.23303 
        1.58922         29.7416         7.16662 
        1.59535         29.5368         7.10106 
         1.6015         29.4269         7.03623 
        1.60764         29.3623         6.97224 
        1.61376         29.1818         6.90923 
        1.61989         28.9182         6.84694 
        1.62604          28.896         6.78528 
        1.63218          28.683         6.72442 
        1.63831         28.6286         6.66445 
        1.64444         28.4455         6.60519 
        1.65059         28.2884         6.54651 
        1.65673         28.2103          6.4886 
        1.66285         28.0589         6.43156 
        1.66898         27.9313         6.37519 
        1.67512         27.8313         6.31938 
        1.68127          27.611         6.26419 
         1.6874         27.5237         6.20979 
        1.69353         27.4862         6.15606 
        1.69967         27.2463         6.10285 
        1.70581         27.1205         6.05028 
        1.71193         26.9714         5.99853 
        1.71806         26.9149         5.94728 
        1.72421         26.7807         5.89653 
        1.73035         26.6963         5.84643 
        1.73649         26.4998         5.79692 
        1.74262         26.4384         5.74803 
        1.74876         26.3037         5.69966 
        1.75489         26.1676         5.65196 
        1.76101         26.0828         5.60481 
        1.76715         25.9881         5.55814 
        1.77329         25.8891         5.51194 
        1.77943         25.7413         5.46625 
        1.78557         25.6071         5.42115 
        1.79171         25.5267         5.37654 
        1.79785         25.3882         5.33243 
        1.80399         25.2876         5.28882 
        1.81012         25.1999         5.24576 
        1.81625         25.0739          5.2032 
        1.82239         25.0093         5.16105 
        1.82853         24.8006         5.11938 
        1.83466         24.7138         5.07821 
        1.84078         24.5379         5.03754 
        1.84692         24.5365         4.99725 
        1.85306         24.3631         4.95735 
         1.8592         24.3032         4.91795 
        1.86533         24.1819           4.879 
        1.87147         24.0782         4.84042 
        1.87761         24.0469         4.80225 
        1.88375         23.8561         4.76453 
        1.88988          23.831         4.72726 
        1.89601         23.6794         4.69037 
        1.90215         23.5716         4.65384 
        1.90829         23.5179         4.61772 
        1.91442         23.3769         4.58197 
        1.92056         23.2989         4.54664 
         1.9267          23.219         4.51165 
        1.93284         23.0903           4.477 
        1.93897          23.008         4.44278 
        1.94509         22.9104           4.409 
        1.95123         22.7939         4.37548 
        1.95737         22.6864         4.34228 
        1.96349         22.6129         4.30951 
        1.96964         22.4932         4.27699 
        1.97578         22.4437         4.24479 
        1.98192         22.2877         4.21298 
        1.98805          22.247          4.1815 
        1.99419         22.1324         4.15034 
        2.00033         22.0337         4.11948 
        2.00647         21.9776         4.08894 
         2.0126         21.7907         4.05876 
        2.01874         21.7571         4.02884 
        2.02488         21.6833          3.9992 
        2.03101         21.6584         3.96991 
        2.03714         21.5034         3.94094 
        2.04328         21.3984         3.91223 
        2.04941         21.3134         3.88383 
        2.05554         21.2928         3.85573 
        2.06167         21.1882         3.82786 
        2.06781         21.0916         3.80028 
        2.07396         20.9904         3.77292 
        2.08009         20.9283         3.74588 
        2.08622         20.8404         3.71913 
        2.09237         20.7555          3.6926 
        2.09851         20.6385         3.66632 
        2.10464         20.5852         3.64033 
        2.11077         20.4754         3.61463 
        2.11691         20.4334         3.58912 
        2.12305         20.3053         3.56386 
        2.12918         20.2405          3.5389 
        2.13531         20.1726         3.51418 
        2.14145         20.0705         3.48963 
         2.1476         19.9913         3.46529 
        2.15372         19.9357         3.44131 
        2.15985         19.8052         3.41753 
        2.16599         19.7787          3.3939 
        2.17213         19.7133         3.37052 
        2.17827         19.6236         3.34737 
         2.1844         19.5388         3.32446 
        2.19054         19.4576         3.30175 
        2.19666         19.3892         3.27929 
         2.2028         19.3182         3.25702 
        2.20893         19.2088         3.23494 
        2.21508         19.1737         3.21304 
        2.22122         19.0445         3.19134 
        2.22736         18.9889         3.16989 
        2.23349         18.9126         3.14863 
        2.23962         18.8572         3.12756 
        2.24577          18.754         3.10666 
         2.2519          18.718         3.08599 
        2.25802         18.6516         3.06553 
        2.26417         18.5737          3.0452 
        2.27031         18.5084         3.02504 
        2.27644         18.4354         3.00512 
        2.28257         18.3529         2.98538 
        2.28872         18.2693         2.96578 
        2.29486         18.2417         2.94636 
        2.30099         18.1454         2.92715 
        2.30712         18.0979         2.90811 
        2.31326         18.0233          2.8892 
         2.3194         17.9028         2.87047 
        2.32553         17.8756         2.85194 
        2.33166         17.7669         2.83358 
         2.3378         17.7201         2.81535 
        2.34394         17.6332         2.79728 
        2.35007         17.5567          2.7794 
        2.35619         17.5092         2.76169 
        2.36233         17.4379          2.7441 
        2.36848           17.41         2.72662 
        2.37462         17.3583         2.70933 
        2.38075         17.2677         2.69221 
        2.38689         17.2121         2.67522 
        2.39303         17.1392         2.65838 
        2.39916         17.0576          2.6417 
        2.40529         17.0114         2.62517 
        2.41143         16.9435         2.60877 
        2.41757         16.8989          2.5925 
         2.4237          16.793         2.57639 
        2.42983         16.7555         2.56043 
        2.43598         16.6877         2.54456 
        2.44211         16.5967         2.52885 
        2.44823         16.5454         2.51331 
        2.45437         16.5171         2.49785 
        2.46052         16.4687         2.48251 
        2.46665         16.3779         2.46733 
        2.47279         16.3272         2.45228 
        2.47892         16.2567         2.43734 
        2.48507          16.212         2.42252 
         2.4912         16.1601         2.40785 
