# k  (h/Mpc)    Pcb(k)  (Mpc/h)^3    Pcb_linear(k)  (Mpc/h)^3
     0.00783031         13439.7         13628.2 
       0.013688         15125.8         14996.3 
       0.019231         13887.4         13828.9 
      0.0249154         11553.5         11722.9 
      0.0312784         9302.15         9334.76 
      0.0375637         7531.29         7475.75 
      0.0433917         6260.03         6295.47 
      0.0492413         5549.26         5537.76 
      0.0555754         4928.46         5012.08 
      0.0619321         4651.74         4599.48 
       0.067871         4148.55         4197.99 
      0.0738098         3708.17         3742.38 
      0.0800417         3194.14         3234.81 
      0.0862327         2771.74         2762.98 
      0.0921407         2448.25         2392.65 
      0.0982031         2151.23         2114.68 
       0.104506         2012.36         1925.58 
       0.110769         1875.51         1806.93 
       0.116806         1773.23         1720.91 
       0.122832          1686.3          1631.9 
       0.129052         1545.11         1519.18 
       0.135211         1425.66         1386.83 
       0.141259         1321.09         1249.83 
       0.147318         1209.28         1122.24 
       0.153489         1092.65         1014.93 
       0.159709            1024         934.623 
       0.165845          977.59         879.475 
       0.171974         926.954         839.961 
       0.178125          887.07         806.129 
       0.184229         847.677         770.424 
        0.19034         788.045         728.683 
       0.196428         760.734         681.695 
       0.202534         724.244         632.814 
       0.208729         677.242         586.098 
       0.214876         637.885          546.15 
       0.220989         610.859         514.118 
       0.227147         582.608         488.868 
        0.23329         558.229           468.5 
       0.239377         544.662         450.442 
       0.245482         506.691         432.297 
       0.251667         500.082         412.732 
       0.257832         478.812         392.043 
       0.263955         459.395         371.224 
       0.270079         438.369         351.312 
        0.27624         430.104         333.176 
       0.282372         413.048          317.49 
        0.28843         400.148         304.171 
       0.294538         379.933         292.428 
       0.300721         376.078         281.542 
        0.30691         358.398          271.02 
       0.313033         349.936         260.594 
       0.319153          337.14         250.095 
       0.325316         327.458         239.608 
        0.33145         315.975         229.556 
       0.337538         310.156         220.206 
       0.343633         299.308         211.633 
       0.349808         288.429         203.735 
       0.355968          284.46         196.537 
       0.362074         278.453         189.878 
       0.368217          270.24          183.48 
       0.374374         258.773         177.247 
       0.380519         255.936         171.146 
       0.386598         248.946         165.259 
       0.392688         245.483         159.561 
        0.39888         238.748         154.035 
       0.405048         232.454         148.852 
       0.411186          227.69         144.012 
       0.417313          222.88         139.471 
       0.423458         217.794         135.165 
       0.429607         213.483         131.047 
       0.435692         207.123         127.119 
       0.441815          204.91         123.294 
       0.447964         200.485         119.573 
       0.454126         193.429          115.97 
       0.460267         190.445         112.521 
       0.466387         187.923         109.236 
        0.47254         183.407         106.082 
       0.478662         182.721         103.088 
       0.484765         176.032         100.236 
       0.490885         173.666         97.4925 
       0.497035         170.742         94.8357 
       0.503198         166.822         92.2643 
       0.509342         164.889          89.788 
       0.515458         162.279          87.407 
       0.521598         158.674         85.0997 
       0.527764          156.73          82.866 
       0.533884         154.495         80.7324 
           0.54         151.776          78.682 
       0.546137         150.525         76.7012 
       0.552299         147.373         74.7835 
       0.558452         145.769         72.9346 
       0.564573           143.4          71.156 
       0.570708         140.206         69.4316 
       0.576825         138.431         67.7683 
       0.582926         135.915         66.1629 
       0.589034         134.425         64.6071 
       0.595184         132.774         63.0914 
       0.601379         130.677         61.6149 
       0.607522         128.364         60.1989 
       0.613639         127.236         58.8345 
       0.619772         124.684           57.51 
       0.625918         123.324         56.2241 
       0.632068         121.682         54.9764 
       0.638161         120.639         53.7773 
         0.6443         118.882         52.6049 
       0.650464         117.699         51.4631 
       0.656582         115.695         50.3634 
       0.662703         114.753         49.2959 
       0.668861         112.684         48.2537 
       0.675024          111.19         47.2412 
       0.681124         110.445         46.2682 
       0.687237         108.526         45.3209 
       0.693381         106.846         44.3957 
       0.699536         106.126         43.4947 
       0.705665         105.517         42.6225 
       0.711789         103.517         41.7751 
       0.717957         103.305          40.945 
        0.72409          101.47         40.1421 
       0.730186         100.044         39.3658 
       0.736317         99.1742         38.6059 
       0.742472         98.4051         37.8634 
       0.748622         97.3403         37.1412 
        0.75476         96.3372         36.4396 
       0.760888         95.1225         35.7571 
       0.767043         94.5983         35.0895 
       0.773185         93.5952         34.4404 
       0.779291         91.9096         33.8114 
       0.785407         91.4524         33.1972 
       0.791564         90.8119         32.5945 
       0.797719         88.9246          32.007 
       0.803834         88.5398         31.4378 
       0.809972         87.6632         30.8805 
       0.816124         87.1289         30.3354 
       0.822261         86.2981         29.8051 
       0.828378         85.5519          29.289 
       0.834502         85.0142         28.7847 
       0.840667          83.729         28.2891 
       0.846816         82.7381         27.8066 
       0.852925         82.2531         27.3384 
       0.859047         81.2235           26.88 
       0.865192         80.6283         26.4306 
       0.871341         79.9373         25.9912 
       0.877463         78.9018         25.5638 
       0.883569         78.7189         25.1471 
       0.889708         77.8767         24.7376 
       0.895864         77.1857         24.3361 
       0.902008         76.5483         23.9444 
       0.908149         76.1117         23.5616 
       0.914301         75.2744         23.1865 
       0.920448         74.6844           22.82 
       0.926574         74.0364         22.4626 
       0.932687         74.0005         22.1137 
       0.938823         72.7924          21.771 
       0.944975         72.0226         21.4347 
       0.951105         71.5691         21.1068 
       0.957225         70.9102         20.7863 
       0.963368           70.24         20.4714 
       0.969511         70.1275          20.163 
       0.975621         69.6472         19.8626 
       0.981748          69.055         19.5676 
       0.987916         68.3376         19.2767 
        0.99406           67.87         18.9929 
        1.00019         67.5066         18.7153 
        1.00632         66.8355         18.4436 
        1.01246         66.5062         18.1768 
        1.01859         65.6748         17.9158 
        1.02471         65.2641         17.6602 
        1.03085         64.7092         17.4087 
        1.03698         64.4678         17.1627 
        1.04314          63.841         16.9203 
        1.04929          63.426         16.6833 
        1.05541         62.7803         16.4517 
        1.06154         62.6987         16.2239 
        1.06769         62.2748         16.0001 
        1.07382          61.835         15.7812 
        1.07993         61.4219          15.567 
        1.08607         60.9062         15.3558 
        1.09222         60.7183         15.1483 
        1.09836         60.0953         14.9449 
        1.10449         59.8576         14.7455 
        1.11063         59.2548         14.5495 
        1.11677          58.966         14.3571 
         1.1229         58.4071         14.1686 
        1.12903         57.9159         13.9832 
        1.13518         57.9371          13.801 
        1.14131         57.5371         13.6222 
        1.14745         57.0137         13.4466 
        1.15359         56.7154         13.2741 
        1.15973         56.2929         13.1045 
        1.16584         55.8589         12.9387 
        1.17197         55.5469         12.7755 
        1.17811          55.301         12.6146 
        1.18424          54.805         12.4569 
        1.19038         54.5419         12.3015 
        1.19652         54.2621         12.1488 
        1.20267         53.6437         11.9986 
        1.20881         53.5038         11.8511 
        1.21495         53.0594         11.7063 
        1.22108         52.9969         11.5639 
         1.2272         52.2781         11.4242 
        1.23334         52.0835         11.2865 
        1.23949         51.9054         11.1507 
        1.24562          51.438         11.0176 
        1.25174         51.2301         10.8868 
        1.25789         51.0549         10.7577 
        1.26402          50.592          10.631 
        1.27014         50.2913         10.5066 
        1.27628         49.9772         10.3839 
        1.28244          49.695         10.2628 
        1.28858         49.5412         10.1439 
        1.29471          49.274         10.0271 
        1.30084         48.9534         9.91222 
        1.30697         48.6206         9.79898 
        1.31312         48.3161         9.68735 
        1.31925         48.0367          9.5778 
        1.32537         47.8528         9.47004 
        1.33151         47.4182         9.36356 
        1.33765         47.2573         9.25877 
        1.34378         46.9706         9.15578 
        1.34992         46.6894         9.05429 
        1.35606         46.4713         8.95412 
         1.3622         46.1285         8.85563 
        1.36833         45.9332         8.75886 
        1.37445         45.6489         8.66358 
        1.38059         45.3313         8.56943 
        1.38675         45.1153         8.47645 
        1.39288         44.8657         8.38521 
        1.39901         44.7011         8.29536 
        1.40515         44.3699         8.20662 
         1.4113         44.1926         8.11921 
        1.41742         44.0919         8.03341 
        1.42355         43.7015         7.94868 
         1.4297         43.5794         7.86492 
        1.43585         43.3289         7.78239 
        1.44198         42.9764         7.70137 
        1.44809         42.8459         7.62165 
        1.45423         42.6325         7.54276 
        1.46036         42.4285         7.46513 
        1.46649         42.2338         7.38856 
        1.47263         41.9448           7.313 
        1.47877         41.6734         7.23853 
        1.48491         41.6523         7.16498 
        1.49104         41.3277         7.09261 
        1.49718         40.9615         7.02118 
        1.50333         40.9641         6.95062 
        1.50947         40.7067         6.88116 
         1.5156          40.468         6.81276 
        1.52172         40.3457         6.74529 
        1.52787         40.2077         6.67859 
          1.534         39.8586         6.61287 
        1.54013         39.6643          6.5481 
        1.54627         39.5817         6.48408 
        1.55241         39.1606          6.4209 
        1.55855          39.087         6.35865 
        1.56467         38.7866          6.2974 
         1.5708          38.807         6.23678 
        1.57695         38.5874         6.17686 
        1.58308         38.3241         6.11787 
        1.58922         38.1552          6.0596 
        1.59535         38.0528         6.00211 
         1.6015         37.7343         5.94529 
        1.60764         37.5439         5.88923 
        1.61376         37.3953         5.83404 
        1.61989         37.2094         5.77952 
        1.62604         37.0076         5.72556 
        1.63218         37.0048         5.67233 
        1.63831         36.6817         5.61989 
        1.64444         36.5359          5.5681 
        1.65059         36.4404         5.51683 
        1.65673         36.1826         5.46626 
        1.66285         35.9333         5.41647 
        1.66898         35.8599         5.36728 
        1.67512         35.5837          5.3186 
        1.68127         35.4685         5.27048 
         1.6874         35.2858         5.22306 
        1.69353          35.102         5.17625 
        1.69967         34.9777          5.1299 
        1.70581         34.9017         5.08414 
        1.71193         34.7261         5.03911 
        1.71806         34.3789         4.99452 
        1.72421         34.3503         4.95039 
        1.73035          34.184         4.90684 
        1.73649         33.9124         4.86382 
        1.74262         33.7917         4.82134 
        1.74876         33.6625         4.77935 
        1.75489         33.5341         4.73794 
        1.76101         33.4011         4.69703 
        1.76715         33.2253         4.65655 
        1.77329         33.0726         4.61649 
        1.77943         32.9145         4.57689 
        1.78557         32.7353         4.53781 
        1.79171         32.6259         4.49917 
        1.79785         32.4371         4.46098 
        1.80399         32.4142         4.42324 
        1.81012         32.1326         4.38598 
        1.81625         31.9915         4.34917 
        1.82239         31.8928         4.31272 
        1.82853         31.7414         4.27671 
        1.83466         31.5114         4.24114 
        1.84078         31.3355         4.20601 
        1.84692         31.2706         4.17123 
        1.85306         31.0787         4.13679 
         1.8592         30.9266         4.10279 
        1.86533          30.827          4.0692 
        1.87147         30.7402         4.03594 
        1.87761         30.5817         4.00304 
        1.88375         30.4312         3.97054 
        1.88988         30.3409         3.93843 
        1.89601         30.1841         3.90666 
        1.90215         30.0787         3.87522 
        1.90829         29.9901         3.84413 
        1.91442         29.8044         3.81338 
        1.92056         29.5988           3.783 
         1.9267         29.5424         3.75291 
        1.93284         29.3091         3.72314 
        1.93897         29.2913         3.69374 
        1.94509         29.1138         3.66472 
        1.95123         28.9921         3.63593 
        1.95737         28.8362         3.60744 
        1.96349         28.7349         3.57932 
        1.96964         28.6482         3.55142 
        1.97578         28.4393          3.5238 
        1.98192         28.3517         3.49654 
        1.98805         28.2878         3.46955 
        1.99419         28.1379         3.44285 
        2.00033         27.9872         3.41642 
        2.00647         27.8815         3.39027 
         2.0126         27.6965         3.36444 
        2.01874          27.675         3.33883 
        2.02488         27.5447         3.31347 
        2.03101         27.4005         3.28842 
        2.03714           27.29         3.26365 
        2.04328         27.1442          3.2391 
        2.04941         27.0311         3.21483 
        2.05554         26.9135         3.19082 
        2.06167         26.8371         3.16703 
        2.06781         26.6544         3.14347 
        2.07396         26.6044         3.12012 
        2.08009         26.4787         3.09704 
        2.08622         26.3154         3.07422 
        2.09237         26.2387         3.05159 
        2.09851         26.1321         3.02918 
        2.10464         26.0136         3.00703 
        2.11077         25.9602         2.98513 
        2.11691         25.7721          2.9634 
        2.12305         25.6712         2.94189 
        2.12918         25.5554         2.92063 
        2.13531         25.5024         2.89959 
        2.14145         25.3582          2.8787 
         2.1476         25.2528           2.858 
        2.15372         25.1327          2.8376 
        2.15985         25.0703         2.81738 
        2.16599         24.9539         2.79729 
        2.17213         24.9026         2.77743 
        2.17827         24.6937         2.75776 
         2.1844         24.6534         2.73829 
        2.19054         24.5415         2.71901 
        2.19666         24.4205         2.69994 
         2.2028         24.2873         2.68104 
        2.20893         24.2597         2.66231 
        2.21508          24.169         2.64373 
        2.22122         23.9955         2.62532 
        2.22736         23.9441         2.60713 
        2.23349         23.8096         2.58911 
        2.23962         23.7237         2.57126 
        2.24577         23.6076         2.55355 
         2.2519         23.5346         2.53604 
        2.25802         23.4399         2.51872 
        2.26417         23.3371         2.50151 
        2.27031          23.222         2.48445 
        2.27644         23.1247         2.46759 
        2.28257         23.0654         2.45089 
        2.28872         22.9757         2.43431 
        2.29486         22.8717         2.41789 
        2.30099         22.7476         2.40166 
        2.30712         22.6863         2.38556 
        2.31326         22.5981         2.36959 
         2.3194          22.513         2.35377 
        2.32553         22.4307         2.33812 
        2.33166         22.3172         2.32262 
         2.3378         22.1938         2.30723 
        2.34394         22.1229         2.29198 
        2.35007         22.0511         2.27689 
        2.35619         21.9546         2.26196 
        2.36233         21.8394         2.24712 
        2.36848         21.7792         2.23238 
        2.37462         21.6617         2.21781 
        2.38075         21.6312         2.20338 
        2.38689         21.5154         2.18906 
        2.39303         21.4099         2.17487 
        2.39916         21.3111         2.16083 
        2.40529         21.2732         2.14691 
        2.41143          21.176          2.1331 
        2.41757         21.0913         2.11941 
         2.4237         21.0085         2.10586 
        2.42983         20.8657         2.09243 
        2.43598         20.8224         2.07908 
        2.44211         20.7215         2.06587 
        2.44823         20.6614          2.0528 
        2.45437         20.5458         2.03981 
        2.46052         20.4361         2.02692 
        2.46665         20.4011         2.01417 
        2.47279         20.3407         2.00153 
        2.47892         20.2525         1.98898 
        2.48507         20.1219         1.97654 
         2.4912         20.0902         1.96422 
