#  k  (h/Mpc)          P(k)  (Mpc/h)^3     P_linear(k) (Mpc/h)^3
     0.00783031         4457.53         4485.92 
       0.013688         5466.57         5557.43 
       0.019231         5551.99         5597.29 
      0.0249154         5140.63         5129.99 
      0.0312784         4397.21         4409.53 
      0.0375637         3733.46         3759.29 
      0.0433917         3307.79         3306.14 
      0.0492413         2979.41         2993.88 
      0.0555754         2764.35         2762.77 
      0.0619321         2526.07         2572.23 
       0.067871         2364.47         2383.07 
      0.0738098         2158.13         2166.07 
      0.0800417         1922.75         1920.34 
      0.0862327         1684.92         1686.37 
      0.0921407         1499.45         1497.23 
      0.0982031         1363.95         1350.15 
       0.104506         1243.18         1245.36 
       0.110769         1175.35         1175.61 
       0.116806         1134.52         1122.69 
       0.122832         1068.23         1068.17 
       0.129052          1006.2         1000.98 
       0.135211         940.707         923.447 
       0.141259         855.954         843.509 
       0.147318          776.22         768.668 
       0.153489         720.054         704.993 
       0.159709         680.235         656.485 
       0.165845         632.026         622.278 
       0.171974         619.944         596.861 
       0.178125          596.75         574.355 
       0.184229         562.214         550.325 
        0.19034         542.387          522.36 
       0.196428         514.588         491.116 
       0.202534         474.729         458.815 
       0.208729         455.773         428.092 
       0.214876         433.579         401.928 
       0.220989         404.315         381.014 
       0.227147         395.536         364.514 
        0.23329         382.042         351.052 
       0.239377         372.867         338.825 
       0.245482         355.322         326.193 
       0.251667         339.515         312.296 
       0.257832         332.531         297.464 
       0.263955         312.309         282.529 
       0.270079         298.843          268.33 
        0.27624         284.856         255.535 
       0.282372         276.086         244.611 
        0.28843         273.073         235.432 
       0.294538         260.793         227.347 
       0.300721          250.87         219.751 
        0.30691         246.616          212.23 
       0.313033         236.097         204.589 
       0.319153         231.394          196.76 
       0.325316         222.897         188.884 
        0.33145         215.816         181.348 
       0.337538          208.33           174.4 
       0.343633         201.769         168.115 
       0.349808         195.664          162.39 
       0.355968         190.753           157.2 
       0.362074         186.647         152.374 
       0.368217         182.621         147.667 
       0.374374         178.249         142.996 
       0.380519         170.732         138.346 
       0.386598         166.987         133.816 
       0.392688         162.165         129.421 
        0.39888         158.965         125.174 
       0.405048         155.327         121.226 
       0.411186         152.545          117.57 
       0.417313         148.743         114.156 
       0.423458         144.913         110.919 
       0.429607         141.977           107.8 
       0.435692         139.568          104.79 
       0.441815         135.483         101.826 
       0.447964         131.396         98.9184 
       0.454126         128.995         96.0882 
       0.460267         127.846         93.3795 
       0.466387         124.759         90.8091 
        0.47254         123.229         88.3527 
       0.478662         119.001         86.0259 
       0.484765         117.227         83.8107 
       0.490885         114.586         81.6749 
       0.497035         113.611         79.5951 
       0.503198         111.054         77.5661 
       0.509342         108.192         75.5998 
       0.515458          106.81         73.7029 
       0.521598         104.201         71.8622 
       0.527764         103.046         70.0797 
       0.533884         102.125         68.3774 
           0.54         99.4068         66.7435 
       0.546137         96.9598         65.1667 
       0.552299         95.5274         63.6389 
       0.558452          93.742         62.1613 
       0.564573         93.3078         60.7334 
       0.570708         90.5866         59.3429 
       0.576825         89.6563         57.9981 
       0.582926         88.6095         56.6984 
       0.589034         87.0086         55.4381 
       0.595184         85.9087         54.2095 
       0.601379         83.7724         53.0116 
       0.607522          82.461         51.8613 
       0.613639         81.7113         50.7516 
       0.619772         80.2252         49.6732 
       0.625918         79.2864         48.6247 
       0.632068         78.1062          47.606 
       0.638161         76.7209         46.6251 
         0.6443         76.1663          45.664 
       0.650464         74.4947          44.726 
       0.656582         74.1913         43.8211 
       0.662703          73.192         42.9413 
       0.668861         71.5247         42.0815 
       0.675024         71.3091         41.2456 
       0.681124         70.2736         40.4417 
       0.687237         68.8856         39.6582 
       0.693381         68.3342         38.8922 
       0.699536         67.5829         38.1453 
       0.705665         66.5081         37.4212 
       0.711789         65.5505         36.7165 
       0.717957         64.6664         36.0251 
        0.72409          64.066         35.3554 
       0.730186         63.6715         34.7069 
       0.736317         62.5118         34.0712 
       0.742472         61.7904         33.4494 
       0.748622         60.8671          32.844 
        0.75476         60.0989         32.2551 
       0.760888         59.9526         31.6817 
       0.767043         58.7703         31.1203 
       0.773185         58.1291         30.5737 
       0.779291         57.4432         30.0436 
       0.785407         56.6673         29.5254 
       0.791564         56.6578         29.0163 
       0.797719         55.7138         28.5196 
       0.803834         55.2487         28.0378 
       0.809972         54.6139         27.5655 
       0.816124         54.0229         27.1031 
       0.822261         53.3204         26.6528 
       0.828378         53.0965         26.2141 
       0.834502           52.39         25.7851 
       0.840667         51.9946          25.363 
       0.846816         51.2538         24.9516 
       0.852925         50.8845         24.5521 
       0.859047         50.6741         24.1606 
       0.865192         49.8113         23.7764 
       0.871341         49.2658         23.4004 
       0.877463         48.8711         23.0344 
       0.883569         48.7078         22.6772 
       0.889708         48.1378         22.3258 
       0.895864          47.672         21.9811 
       0.902008         47.1669         21.6444 
       0.908149          46.737          21.315 
       0.914301         46.3992         20.9921 
       0.920448         46.0754         20.6761 
       0.926574         45.3075         20.3679 
       0.932687         45.0303         20.0667 
       0.938823         44.5547         19.7705 
       0.944975          44.124         19.4797 
       0.951105         43.8021         19.1958 
       0.957225         43.5572         18.9181 
       0.963368         43.0868          18.645 
       0.969511          42.721         18.3773 
       0.975621         42.4067         18.1164 
       0.981748         41.9511         17.8599 
       0.987916         41.6604         17.6068 
        0.99406         41.2568         17.3596 
        1.00019         40.9503         17.1176 
        1.00632         40.6431         16.8806 
        1.01246         40.3047         16.6477 
        1.01859         39.9897         16.4196 
        1.02471         39.5776         16.1962 
        1.03085         39.4162         15.9761 
        1.03698          39.137         15.7606 
        1.04314         38.8123         15.5483 
        1.04929         38.3666         15.3403 
        1.05541         38.2446         15.1371 
        1.06154          38.002         14.9371 
        1.06769           37.45         14.7404 
        1.07382          37.311         14.5479 
        1.07993         37.0149         14.3594 
        1.08607         36.7343         14.1734 
        1.09222         36.5304         13.9906 
        1.09836         36.1773         13.8112 
        1.10449         36.0295         13.6352 
        1.11063          35.681         13.4622 
        1.11677         35.6392         13.2922 
         1.1229         35.2484         13.1254 
        1.12903         35.0166         12.9615 
        1.13518         34.9177         12.8002 
        1.14131         34.5565         12.6417 
        1.14745         34.2062         12.4861 
        1.15359          33.914          12.333 
        1.15973         33.7963         12.1825 
        1.16584         33.5537         12.0352 
        1.17197         33.1486         11.8901 
        1.17811         33.0416          11.747 
        1.18424         32.6394         11.6067 
        1.19038         32.5684         11.4682 
        1.19652         32.3351         11.3321 
        1.20267         32.1841         11.1982 
        1.20881          31.937         11.0666 
        1.21495         31.7815         10.9372 
        1.22108         31.6752           10.81 
         1.2272         31.4138         10.6851 
        1.23334         31.2116         10.5619 
        1.23949         30.9771         10.4404 
        1.24562         30.7023         10.3211 
        1.25174         30.5649         10.2039 
        1.25789         30.4824         10.0882 
        1.26402         30.2638         9.97445 
        1.27014           30.08         9.86277 
        1.27628         29.7887         9.75248 
        1.28244         29.7726         9.64367 
        1.28858         29.4803         9.53669 
        1.29471         29.2986         9.43158 
        1.30084          29.092         9.32816 
        1.30697         28.9758         9.22614 
        1.31312         28.7381         9.12552 
        1.31925          28.533         9.02673 
        1.32537         28.3696         8.92951 
        1.33151         28.1873         8.83338 
        1.33765         28.1383         8.73873 
        1.34378         27.9835         8.64567 
        1.34992         27.7762          8.5539 
        1.35606         27.5876         8.46328 
         1.3622          27.415         8.37414 
        1.36833         27.3159          8.2865 
        1.37445         27.1142         8.20017 
        1.38059         26.9777         8.11482 
        1.38675         26.7759         8.03048 
        1.39288         26.6441         7.94768 
        1.39901         26.4857          7.8661 
        1.40515         26.3768         7.78549 
         1.4113         26.2929         7.70604 
        1.41742         26.1449         7.62801 
        1.42355         25.9115         7.55092 
         1.4297         25.7691         7.47468 
        1.43585         25.6212         7.39952 
        1.44198         25.5436         7.32568 
        1.44809         25.3844           7.253 
        1.45423         25.2607         7.18105 
        1.46036         25.1375          7.1102 
        1.46649         24.9883         7.04029 
        1.47263         24.8326         6.97126 
        1.47877         24.7285          6.9032 
        1.48491         24.6137         6.83595 
        1.49104         24.4411         6.76974 
        1.49718           24.38         6.70436 
        1.50333         24.2686         6.63974 
        1.50947          24.117         6.57612 
         1.5156         23.9794         6.51342 
        1.52172         23.8236         6.45155 
        1.52787         23.7417         6.39037 
          1.534         23.6303         6.33005 
        1.54013         23.5574         6.27058 
        1.54627         23.3497         6.21177 
        1.55241         23.2374         6.15371 
        1.55855         23.1462         6.09648 
        1.56467         23.0863         6.04014 
         1.5708         22.9343         5.98436 
        1.57695         22.8462          5.9292 
        1.58308         22.6359         5.87486 
        1.58922         22.5458         5.82117 
        1.59535         22.4609         5.76818 
         1.6015         22.3418         5.71578 
        1.60764         22.2501         5.66405 
        1.61376         22.1634         5.61311 
        1.61989         21.9812         5.56277 
        1.62604         21.9165         5.51292 
        1.63218         21.8246         5.46373 
        1.63831         21.6922         5.41525 
        1.64444            21.6         5.36735 
        1.65059          21.503         5.31991 
        1.65673         21.4233          5.2731 
        1.66285         21.2974         5.22699 
        1.66898         21.2155         5.18142 
        1.67512         21.1616          5.1363 
        1.68127         21.0431         5.09168 
         1.6874         20.9477          5.0477 
        1.69353         20.7985         5.00426 
        1.69967         20.7166         4.96123 
        1.70581         20.6278         4.91873 
        1.71193          20.492         4.87689 
        1.71806         20.4482         4.83545 
        1.72421         20.3651         4.79441 
        1.73035         20.2419          4.7539 
        1.73649         20.1542         4.71387 
        1.74262          20.054         4.67433 
        1.74876         19.9675         4.63522 
        1.75489         19.8946         4.59664 
        1.76101         19.7746         4.55852 
        1.76715         19.7309         4.52077 
        1.77329         19.5973         4.48341 
        1.77943         19.5341         4.44646 
        1.78557         19.4664         4.40998 
        1.79171         19.3396         4.37391 
        1.79785         19.2687         4.33823 
        1.80399          19.168         4.30296 
        1.81012         19.1238         4.26814 
        1.81625         19.0068         4.23371 
        1.82239         18.9236         4.19961 
        1.82853         18.8532         4.16591 
        1.83466         18.7386         4.13261 
        1.84078         18.6902         4.09971 
        1.84692         18.6566         4.06712 
        1.85306         18.5406         4.03485 
         1.8592         18.4854         4.00298 
        1.86533         18.3255         3.97147 
        1.87147         18.2651         3.94026 
        1.87761          18.209         3.90938 
        1.88375         18.1766         3.87887 
        1.88988         18.0266         3.84872 
        1.89601         17.9899         3.81887 
        1.90215         17.8737         3.78932 
        1.90829         17.8089         3.76009 
        1.91442         17.6819         3.73118 
        1.92056         17.6818         3.70259 
         1.9267         17.6005         3.67428 
        1.93284          17.591         3.64624 
        1.93897         17.4802         3.61856 
        1.94509         17.3921         3.59122 
        1.95123         17.2851         3.56409 
        1.95737         17.2378         3.53723 
        1.96349          17.156         3.51072 
        1.96964         17.1574          3.4844 
        1.97578         17.0406         3.45834 
        1.98192         16.9765          3.4326 
        1.98805         16.8414         3.40712 
        1.99419         16.8401          3.3819 
        2.00033         16.7582         3.35692 
        2.00647         16.6859          3.3322 
         2.0126         16.6227         3.30778 
        2.01874         16.5472         3.28356 
        2.02488         16.4351         3.25957 
        2.03101         16.4061         3.23586 
        2.03714         16.3174         3.21241 
        2.04328         16.2821         3.18916 
        2.04941         16.1858         3.16617 
        2.05554         16.1681         3.14342 
        2.06167         16.1051         3.12087 
        2.06781         16.0298         3.09853 
        2.07396         16.0111         3.07638 
        2.08009         15.8951         3.05449 
        2.08622         15.8406         3.03283 
        2.09237         15.8051         3.01135 
        2.09851         15.6894         2.99006 
        2.10464         15.6489         2.96902 
        2.11077         15.5823         2.94821 
        2.11691         15.5283         2.92756 
        2.12305         15.4723          2.9071 
        2.12918         15.3897         2.88688 
        2.13531         15.3485         2.86686 
        2.14145         15.2652         2.84698 
         2.1476         15.1849         2.82727 
        2.15372         15.1786         2.80784 
        2.15985         15.1097         2.78858 
        2.16599         15.0488         2.76944 
        2.17213         15.0233         2.75051 
        2.17827         14.9231         2.73176 
         2.1844         14.8642          2.7132 
        2.19054         14.8483          2.6948 
        2.19666         14.7692         2.67661 
         2.2028         14.7375         2.65856 
        2.20893         14.6272         2.64068 
        2.21508         14.6001         2.62294 
        2.22122         14.5093         2.60535 
        2.22736          14.509         2.58797 
        2.23349         14.4368         2.57075 
        2.23962         14.3979         2.55367 
        2.24577          14.344         2.53674 
         2.2519         14.2755         2.51999 
        2.25802         14.1803         2.50341 
        2.26417         14.1862         2.48694 
        2.27031         14.1357          2.4706 
        2.27644          14.107         2.45445 
        2.28257         13.9931         2.43845 
        2.28872         13.9976         2.42257 
        2.29486         13.9306         2.40683 
        2.30099         13.8614         2.39126 
        2.30712         13.7826         2.37582 
        2.31326         13.7473         2.36049 
         2.3194         13.6941         2.34531 
        2.32553         13.6551         2.33029 
        2.33166         13.5846         2.31541 
         2.3378          13.561         2.30063 
        2.34394         13.4899         2.28599 
        2.35007         13.4554         2.27148 
        2.35619         13.4063         2.25713 
        2.36233         13.3372         2.24286 
        2.36848         13.2795         2.22869 
        2.37462         13.2361         2.21467 
        2.38075         13.1957         2.20079 
        2.38689         13.1706         2.18701 
        2.39303         13.0894         2.17336 
        2.39916         13.0734         2.15983 
        2.40529         13.0299         2.14643 
        2.41143         12.9581         2.13312 
        2.41757         12.8993         2.11993 
         2.4237         12.8685         2.10687 
        2.42983         12.8352         2.09392 
        2.43598         12.7882         2.08104 
        2.44211         12.7112          2.0683 
        2.44823         12.6909         2.05569 
        2.45437         12.6562         2.04316 
        2.46052         12.6089         2.03071 
        2.46665         12.5754          2.0184 
        2.47279         12.5042         2.00619 
        2.47892         12.4533         1.99407 
        2.48507         12.4226         1.98204 
         2.4912         12.3916         1.97014 
