# k  (h/Mpc)    P(k)  (Mpc/h)^3    P_linear(k)  (Mpc/h)^3
     0.00783031         6712.45         6746.86 
       0.013688            8087         7975.16 
       0.019231          7917.9          7825.3 
      0.0249154         7021.91         7038.51 
      0.0312784         5970.21         5935.59 
      0.0375637         5017.18         4950.62 
      0.0433917         4265.55         4252.25 
      0.0492413          3797.3          3761.5 
      0.0555754          3390.4         3405.54 
      0.0619321         3198.23         3144.49 
       0.067871         2914.37         2918.79 
      0.0738098         2668.38         2672.82 
      0.0800417          2370.4         2387.46 
      0.0862327         2103.87         2097.67 
      0.0921407         1871.61         1843.85 
      0.0982031         1646.48          1628.8 
       0.104506         1512.57         1462.97 
       0.110769         1393.64         1350.48 
       0.116806         1307.09         1276.16 
       0.122832         1252.13         1217.22 
       0.129052         1171.06         1155.75 
       0.135211         1102.15         1084.45 
       0.141259         1035.48         1003.36 
       0.147318         957.172         916.944 
       0.153489         867.434         832.512 
       0.159709         803.665         759.028 
       0.165845         757.723         701.956 
       0.171974         708.939         659.933 
       0.178125         677.305          629.17 
       0.184229         651.696         604.711 
        0.19034         611.953         581.182 
       0.196428         596.979         555.198 
       0.202534         573.952         525.438 
       0.208729         538.885         492.568 
       0.214876         504.711         459.763 
       0.220989         482.407         429.562 
       0.227147         453.623         403.431 
        0.23329         433.052         382.267 
       0.239377         420.859         365.565 
       0.245482         394.224         351.727 
       0.251667         388.971         339.067 
       0.257832         375.329         326.414 
       0.263955         361.132         313.034 
       0.270079          346.18         298.794 
        0.27624         338.517         284.102 
       0.282372         324.008         269.878 
        0.28843         311.435         256.915 
       0.294538         296.777          245.35 
       0.300721         292.538          235.27 
        0.30691         278.833         226.531 
       0.313033         271.941         218.787 
       0.319153         261.025         211.454 
       0.325316         254.734         204.134 
        0.33145         245.681          196.72 
       0.337538          241.33         189.279 
       0.343633         232.639         181.892 
       0.349808         224.817         174.705 
       0.355968         220.574         168.013 
       0.362074         214.415         161.946 
       0.368217         208.238         156.414 
       0.374374          201.14         151.335 
       0.380519         197.543         146.607 
       0.386598         192.217          142.12 
       0.392688         189.181         137.717 
        0.39888         184.054         133.299 
       0.405048         179.409         128.957 
       0.411186         175.254         124.748 
       0.417313          171.27         120.716 
       0.423458         167.418         116.883 
       0.429607         163.364         113.285 
       0.435692         158.201         109.951 
       0.441815         156.814         106.786 
       0.447964         153.853          103.76 
       0.454126         147.143         100.845 
       0.460267         145.413         98.0212 
       0.466387         143.223         95.2741 
        0.47254          140.05         92.5868 
       0.478662         138.714         89.9961 
       0.484765         134.416         87.5064 
       0.490885         132.183         85.1143 
       0.497035         130.346         82.8231 
       0.503198          126.71         80.6339 
       0.509342          124.51         78.5441 
       0.515458         122.655         76.5443 
       0.521598         120.693         74.6069 
       0.527764         118.861         72.7227 
       0.533884         116.932         70.9057 
           0.54         114.712         69.1419 
       0.546137         113.626         67.4272 
       0.552299         111.655         65.7644 
       0.558452         109.356         64.1646 
       0.564573         107.407         62.6302 
       0.570708         105.716         61.1472 
       0.576825         104.288          59.721 
       0.582926         102.204          58.347 
       0.589034         100.542         57.0154 
       0.595184         99.2424         55.7154 
       0.601379         97.9559         54.4437 
       0.607522         95.6402          53.219 
       0.613639         95.2926         52.0356 
       0.619772         93.1769         50.8854 
       0.625918         92.0897         49.7692 
       0.632068         91.0239         48.6876 
       0.638161          89.938         47.6491 
         0.6443         88.7014         46.6343 
       0.650464         87.6058         45.6457 
       0.656582         86.3141         44.6928 
       0.662703         84.7881         43.7667 
       0.668861         83.7204         42.8615 
       0.675024          82.745         41.9811 
       0.681124         81.7823         41.1342 
       0.687237         80.2464          40.309 
       0.693381         79.3418         39.5026 
       0.699536         78.3876          38.717 
       0.705665         78.5927         37.9562 
       0.711789          76.458         37.2167 
       0.717957         75.9694         36.4921 
        0.72409          74.837         35.7911 
       0.730186         73.6005         35.1129 
       0.736317         73.3738         34.4487 
       0.742472         72.5041         33.7994 
       0.748622         71.7159         33.1675 
        0.75476         70.9281         32.5531 
       0.760888         69.8775         31.9552 
       0.767043         69.2412           31.37 
       0.773185         68.3894         30.8007 
       0.779291         67.8056         30.2488 
       0.785407         67.2142         29.7096 
       0.791564         66.4097         29.1803 
       0.797719         65.3294         28.6642 
       0.803834         65.0595         28.1639 
       0.809972         63.9308         27.6738 
       0.816124         63.4939         27.1943 
       0.822261         62.9621         26.7275 
       0.828378         62.4613         26.2732 
       0.834502         61.7887          25.829 
       0.840667         61.1479         25.3923 
       0.846816         60.3271          24.967 
       0.852925         59.8552         24.5541 
       0.859047         59.0447         24.1497 
       0.865192         58.6948         23.7531 
       0.871341          58.352         23.3652 
       0.877463         57.3217         22.9877 
       0.883569          56.958         22.6196 
       0.889708         56.6046         22.2576 
       0.895864         56.0914         21.9027 
       0.902008         55.5459         21.5562 
       0.908149         55.1317         21.2175 
       0.914301         54.6309         20.8855 
       0.920448         54.1561          20.561 
       0.926574         53.5972         20.2445 
       0.932687         53.3303         19.9353 
       0.938823         52.4672         19.6315 
       0.944975          52.237         19.3334 
       0.951105         51.7329         19.0425 
       0.957225         51.0978         18.7582 
       0.963368         51.0471         18.4787 
       0.969511         50.6257         18.2049 
       0.975621         50.2374         17.9381 
       0.981748         49.6555          17.676 
       0.987916         49.2867         17.4175 
        0.99406         48.9951         17.1652 
        1.00019         48.4291         16.9183 
        1.00632         48.1866         16.6766 
        1.01246         47.7978         16.4392 
        1.01859         47.1329         16.2069 
        1.02471         47.1826         15.9793 
        1.03085          46.688         15.7553 
        1.03698         46.2486         15.5361 
        1.04314         45.8378         15.3201 
        1.04929         45.5535         15.1088 
        1.05541         45.0803         14.9023 
        1.06154          45.042         14.6991 
        1.06769         44.5832         14.4994 
        1.07382         44.3416         14.3041 
        1.07993         44.0938         14.1129 
        1.08607         43.6429         13.9243 
        1.09222         43.4287          13.739 
        1.09836         43.0936         13.5573 
        1.10449         42.7582         13.3791 
        1.11063         42.3033         13.2039 
        1.11677         42.0715         13.0319 
         1.1229         41.8447         12.8633 
        1.12903         41.2607         12.6975 
        1.13518         41.3923         12.5345 
        1.14131          41.124         12.3744 
        1.14745         40.5502         12.2173 
        1.15359         40.5222         12.0628 
        1.15973         40.0426          11.911 
        1.16584         39.8099         11.7624 
        1.17197         39.6189         11.6162 
        1.17811         39.3737          11.472 
        1.18424         38.9772         11.3307 
        1.19038         38.8373         11.1913 
        1.19652         38.6894         11.0544 
        1.20267         38.3603         10.9197 
        1.20881         38.0848         10.7873 
        1.21495         37.7848         10.6573 
        1.22108         37.5897         10.5295 
         1.2272         37.1836         10.4041 
        1.23334         37.0736         10.2804 
        1.23949         37.0121         10.1585 
        1.24562         36.6272         10.0389 
        1.25174         36.5048         9.92134 
        1.25789         36.2675         9.80534 
        1.26402         35.9693          9.6914 
        1.27014         35.6432         9.57955 
        1.27628         35.5284         9.46912 
        1.28244         35.2806         9.36023 
        1.28858         35.1416         9.25319 
        1.29471         35.0066         9.14807 
        1.30084         34.7912         9.04467 
        1.30697         34.5031         8.94271 
        1.31312         34.2196         8.84218 
        1.31925         34.1277         8.74351 
        1.32537         33.9519         8.64645 
        1.33151         33.6657         8.55051 
        1.33765         33.6147         8.45607 
        1.34378         33.3792         8.36325 
        1.34992          33.061         8.27176 
        1.35606         32.8911         8.18144 
         1.3622         32.7226         8.09262 
        1.36833         32.5183         8.00533 
        1.37445         32.4836         7.91937 
        1.38059         32.2522         7.83442 
        1.38675         31.9519          7.7505 
        1.39288         31.9125         7.66814 
        1.39901         31.6264         7.58702 
        1.40515         31.4893         7.50689 
         1.4113          31.374         7.42794 
        1.41742         31.0945         7.35044 
        1.42355         30.9842         7.27389 
         1.4297         30.8041          7.1982 
        1.43585         30.7328         7.12362 
        1.44198         30.4399         7.05037 
        1.44809         30.3313          6.9783 
        1.45423         30.1987         6.90696 
        1.46036         30.0897         6.83675 
        1.46649         29.8559          6.7675 
        1.47263         29.7025         6.69914 
        1.47877         29.6167         6.63176 
        1.48491         29.5045          6.5652 
        1.49104         29.2852         6.49969 
        1.49718         29.0047         6.43502 
        1.50333         28.9849         6.37114 
        1.50947         28.8579         6.30825 
         1.5156          28.668          6.2463 
        1.52172         28.4945         6.18518 
        1.52787         28.4746         6.12475 
          1.534         28.2442         6.06521 
        1.54013         28.0477         6.00651 
        1.54627         27.9861         5.94849 
        1.55241         27.7766         5.89122 
        1.55855         27.6694         5.83478 
        1.56467         27.4511         5.77923 
         1.5708         27.4677         5.72425 
        1.57695         27.1856          5.6699 
        1.58308         27.1718         5.61638 
        1.58922          27.052         5.56351 
        1.59535         26.8661         5.51134 
         1.6015         26.7045         5.45977 
        1.60764         26.6152         5.40888 
        1.61376         26.4332         5.35877 
        1.61989         26.2637         5.30926 
        1.62604         26.2473         5.26026 
        1.63218         26.0954         5.21191 
        1.63831         25.9716         5.16428 
        1.64444          25.857         5.11723 
        1.65059         25.6739         5.07065 
        1.65673         25.5395          5.0247 
        1.66285         25.4696         4.97944 
        1.66898         25.3352         4.93473 
        1.67512         25.2563         4.89048 
        1.68127         25.0652         4.84673 
         1.6874         24.9775         4.80361 
        1.69353         24.8744         4.76104 
        1.69967         24.7228         4.71888 
        1.70581         24.6339         4.67726 
        1.71193          24.545         4.63629 
        1.71806           24.38         4.59572 
        1.72421         24.2454         4.55556 
        1.73035         24.1379         4.51593 
        1.73649         24.0818         4.47677 
        1.74262         23.9317         4.43811 
        1.74876         23.9134         4.39987 
        1.75489         23.7447         4.36217 
        1.76101         23.6211         4.32492 
        1.76715           23.54         4.28805 
        1.77329         23.4577         4.25156 
        1.77943         23.3194         4.21549 
        1.78557         23.2043         4.17988 
        1.79171         23.1211         4.14468 
        1.79785         22.9874         4.10987 
        1.80399         22.9008         4.07547 
        1.81012         22.8394         4.04151 
        1.81625         22.7231         4.00795 
        1.82239         22.6693         3.97471 
        1.82853         22.4828         3.94187 
        1.83466         22.3919         3.90944 
        1.84078         22.2422          3.8774 
        1.84692          22.198         3.84566 
        1.85306            22.1         3.81424 
         1.8592         21.9775         3.78323 
        1.86533         21.8774         3.75257 
        1.87147         21.7948         3.72221 
        1.87761         21.7624         3.69218 
        1.88375         21.6732         3.66252 
        1.88988         21.5583         3.63321 
        1.89601         21.4069          3.6042 
        1.90215         21.3747         3.57549 
        1.90829         21.3231          3.5471 
        1.91442         21.1723         3.51902 
        1.92056         21.1093         3.49127 
         1.9267         20.9833         3.46379 
        1.93284         20.8717         3.43658 
        1.93897         20.8384         3.40972 
        1.94509         20.7342          3.3832 
        1.95123         20.6322          3.3569 
        1.95737         20.5507         3.33086 
        1.96349         20.4666         3.30516 
        1.96964         20.3679         3.27965 
        1.97578         20.3132          3.2544 
        1.98192         20.1832         3.22947 
        1.98805          20.146          3.2048 
        1.99419          20.045         3.18038 
        2.00033         19.9024         3.15621 
        2.00647         19.8527         3.13229 
         2.0126          19.767         3.10866 
        2.01874         19.6901         3.08524 
        2.02488         19.6721         3.06203 
        2.03101         19.5303         3.03911 
        2.03714         19.4597         3.01645 
        2.04328         19.3674         2.99398 
        2.04941         19.2943         2.97177 
        2.05554         19.2394         2.94979 
        2.06167         19.1708         2.92801 
        2.06781         19.0808         2.90644 
        2.07396          19.026         2.88506 
        2.08009         18.9584         2.86393 
        2.08622         18.8152         2.84304 
        2.09237         18.7621         2.82231 
        2.09851         18.6955         2.80178 
        2.10464         18.6416          2.7815 
        2.11077         18.5034         2.76143 
        2.11691         18.4696         2.74152 
        2.12305         18.4001         2.72181 
        2.12918         18.3516         2.70233 
        2.13531          18.248         2.68304 
        2.14145         18.2053          2.6639 
         2.1476         18.1044         2.64492 
        2.15372         18.0356         2.62622 
        2.15985         17.9223         2.60768 
        2.16599         17.8971         2.58927 
        2.17213          17.845         2.57105 
        2.17827         17.7231         2.55301 
         2.1844          17.643         2.53516 
        2.19054         17.5931         2.51748 
        2.19666         17.5521         2.49999 
         2.2028         17.4908         2.48265 
        2.20893         17.3995         2.46546 
        2.21508         17.3102         2.44842 
        2.22122          17.212         2.43153 
        2.22736         17.2121         2.41484 
        2.23349         17.1082          2.3983 
        2.23962         17.0403         2.38191 
        2.24577         16.9563         2.36566 
         2.2519          16.935         2.34959 
        2.25802         16.8628         2.33368 
        2.26417         16.8178         2.31789 
        2.27031         16.7276         2.30222 
        2.27644         16.6719         2.28674 
        2.28257          16.588          2.2714 
        2.28872         16.5059         2.25618 
        2.29486         16.4572          2.2411 
        2.30099         16.3849         2.22618 
        2.30712          16.369          2.2114 
        2.31326         16.2881         2.19672 
         2.3194         16.2335         2.18218 
        2.32553         16.1537         2.16781 
        2.33166         16.0691         2.15356 
         2.3378         16.0115         2.13942 
        2.34394         15.9771         2.12541 
        2.35007         15.8989         2.11154 
        2.35619         15.7978         2.09781 
        2.36233         15.7883         2.08417 
        2.36848         15.7112         2.07063 
        2.37462         15.6665         2.05723 
        2.38075         15.5932         2.04396 
        2.38689         15.5716          2.0308 
        2.39303         15.4764         2.01775 
        2.39916         15.4275         2.00484 
        2.40529          15.357         1.99203 
        2.41143         15.3161         1.97933 
        2.41757         15.2619         1.96674 
         2.4237         15.1915         1.95427 
        2.42983         15.1402         1.94192 
        2.43598         15.0947         1.92964 
        2.44211          15.029         1.91748 
        2.44823         14.9582         1.90546 
        2.45437         14.9143         1.89351 
        2.46052         14.8604         1.88164 
        2.46665         14.8212          1.8699 
        2.47279         14.7348         1.85827 
        2.47892         14.7122         1.84672 
        2.48507         14.6493         1.83527 
         2.4912         14.6037         1.82393 
