# k  (h/Mpc)    P(k)  (Mpc/h)^3    P_linear(k)  (Mpc/h)^3
     0.00783031         1806.29         1812.15 
       0.013688         2162.64         2144.03 
       0.019231         2125.41         2104.52 
      0.0249154         1899.11         1893.31 
      0.0312784         1610.71         1596.86 
      0.0375637         1349.13         1331.99 
      0.0433917         1153.23         1144.16 
      0.0492413          1023.2         1012.15 
      0.0555754         920.087         916.398 
      0.0619321         858.808         846.174 
       0.067871         789.627         785.452 
      0.0738098         722.679         719.273 
      0.0800417         643.751         642.489 
      0.0862327         568.587          564.51 
      0.0921407         502.019         496.208 
      0.0982031         442.174         438.338 
       0.104506         401.577         393.713 
       0.110769         370.155         363.442 
       0.116806         347.526         343.443 
       0.122832         332.882          327.58 
       0.129052          313.71         311.039 
       0.135211          294.43         291.851 
       0.141259         274.359         270.028 
       0.147318         252.229         246.773 
       0.153489         228.575          224.05 
       0.159709          209.41         204.274 
       0.165845         195.701         188.915 
       0.171974         182.542         177.606 
       0.178125           174.5         169.327 
       0.184229         168.024         162.745 
        0.19034         159.391         156.412 
       0.196428         153.818         149.419 
       0.202534         147.125          141.41 
       0.208729         137.508         132.564 
       0.214876         128.028         123.736 
       0.220989         121.259         115.608 
       0.227147          113.15         108.575 
        0.23329         107.519          102.88 
       0.239377         103.491         98.3844 
       0.245482         98.4223         94.6604 
       0.251667         96.0571         91.2531 
       0.257832         92.4809         87.8479 
       0.263955          88.806         84.2468 
       0.270079         84.9691         80.4146 
        0.27624         81.8608         76.4604 
       0.282372         78.0699         72.6324 
        0.28843         74.1996         69.1436 
       0.294538         70.9449         66.0313 
       0.300721         68.8788         63.3186 
        0.30691          65.852         60.9665 
       0.313033         63.7533         58.8823 
       0.319153         60.8874         56.9088 
       0.325316         59.8335         54.9388 
        0.33145         57.4876         52.9434 
       0.337538         55.7368         50.9409 
       0.343633         53.5175          48.953 
       0.349808         51.7506         47.0186 
       0.355968         50.0501         45.2176 
       0.362074         48.2926         43.5848 
       0.368217         46.7671         42.0959 
       0.374374         45.2425         40.7291 
       0.380519         44.0836         39.4565 
       0.386598         42.8523          38.249 
       0.392688         41.8529         37.0639 
        0.39888         40.5151         35.8751 
       0.405048         39.4357         34.7064 
       0.411186         38.3616         33.5735 
       0.417313         37.0422         32.4886 
       0.423458          36.021          31.457 
       0.429607         34.9799         30.4885 
       0.435692         33.8838         29.5914 
       0.441815         33.2069         28.7395 
       0.447964         32.5778         27.9252 
       0.454126         31.3007         27.1406 
       0.460267         30.7016         26.3807 
       0.466387         29.7511         25.6413 
        0.47254         29.2184         24.9181 
       0.478662         28.6507         24.2208 
       0.484765         27.7447         23.5508 
       0.490885         27.0793          22.907 
       0.497035         26.6926         22.2904 
       0.503198         25.9462         21.7012 
       0.509342         25.2732         21.1388 
       0.515458         24.6932         20.6006 
       0.521598         24.2297         20.0791 
       0.527764         23.6675          19.572 
       0.533884         23.2461          19.083 
           0.54         22.7003         18.6083 
       0.546137         22.2958         18.1469 
       0.552299         21.8892         17.6993 
       0.558452          21.203         17.2688 
       0.564573         20.8805         16.8558 
       0.570708         20.4909         16.4567 
       0.576825         19.9643         16.0729 
       0.582926         19.5797         15.7031 
       0.589034         19.0477         15.3447 
       0.595184         18.7795         14.9948 
       0.601379         18.3792         14.6526 
       0.607522         18.0631          14.323 
       0.613639         17.8406         14.0045 
       0.619772         17.3572         13.6949 
       0.625918         17.2301         13.3945 
       0.632068         16.9396         13.1034 
       0.638161         16.5351         12.8239 
         0.6443          16.193         12.5508 
       0.650464         15.8781         12.2848 
       0.656582         15.7592         12.0283 
       0.662703         15.4503          11.779 
       0.668861         15.1467         11.5354 
       0.675024         14.8547         11.2985 
       0.681124         14.5938         11.0706 
       0.687237         14.3492         10.8485 
       0.693381         14.1828         10.6315 
       0.699536         13.7973           10.42 
       0.705665         13.6908         10.2152 
       0.711789          13.415         10.0162 
       0.717957         13.2021         9.82122 
        0.72409         12.9885         9.63255 
       0.730186         12.8069         9.45002 
       0.736317         12.6532         9.27127 
       0.742472         12.4389         9.09652 
       0.748622         12.2666         8.92645 
        0.75476          12.021          8.7611 
       0.760888         11.8504         8.60019 
       0.767043         11.7011         8.44269 
       0.773185         11.4697         8.28947 
       0.779291         11.3882         8.14094 
       0.785407         11.2233         7.99584 
       0.791564         11.0296         7.85338 
       0.797719         10.7985         7.71447 
       0.803834         10.7545         7.57982 
       0.809972         10.6424         7.44792 
       0.816124         10.4013         7.31888 
       0.822261         10.2584         7.19326 
       0.828378         10.1385         7.07098 
       0.834502         10.0476         6.95144 
       0.840667         9.87378         6.83391 
       0.846816         9.69287         6.71944 
       0.852925         9.60154         6.60831 
       0.859047         9.48189         6.49948 
       0.865192         9.39162         6.39275 
       0.871341           9.293         6.28835 
       0.877463         9.13112         6.18676 
       0.883569         8.99481         6.08768 
       0.889708         8.84449         5.99026 
       0.895864         8.76389         5.89474 
       0.902008         8.68553          5.8015 
       0.908149         8.58634         5.71033 
       0.914301         8.48195         5.62099 
       0.920448         8.34006         5.53364 
       0.926574         8.24338         5.44846 
       0.932687         8.15402         5.36525 
       0.938823         8.04289          5.2835 
       0.944975         7.93991         5.20326 
       0.951105         7.86141         5.12498 
       0.957225         7.81196         5.04844 
       0.963368         7.71131         4.97322 
       0.969511         7.62373         4.89953 
       0.975621         7.53049         4.82773 
       0.981748           7.441         4.75719 
       0.987916         7.37853         4.68763 
        0.99406         7.25982         4.61971 
        1.00019         7.15058         4.55328 
        1.00632         7.12907         4.48822 
        1.01246         7.04257         4.42434 
        1.01859         6.93534          4.3618 
        1.02471         6.88578         4.30055 
        1.03085         6.80765         4.24027 
        1.03698         6.70936         4.18127 
        1.04314         6.66248         4.12315 
        1.04929         6.57673         4.06627 
        1.05541         6.49811         4.01069 
        1.06154         6.44756         3.95602 
        1.06769         6.41348         3.90228 
        1.07382         6.30917         3.84972 
        1.07993         6.24538         3.79824 
        1.08607         6.20098          3.7475 
        1.09222         6.13672         3.69763 
        1.09836         6.06577         3.64873 
        1.10449         6.00961         3.60077 
        1.11063          5.9429         3.55362 
        1.11677         5.90618         3.50733 
         1.1229          5.8558         3.46194 
        1.12903         5.77998         3.41732 
        1.13518          5.7131         3.37345 
        1.14131         5.65883         3.33037 
        1.14745         5.59702         3.28808 
        1.15359         5.56244         3.24651 
        1.15973         5.50303         3.20564 
        1.16584         5.43119         3.16565 
        1.17197         5.38896          3.1263 
        1.17811         5.36193         3.08749 
        1.18424         5.30711         3.04946 
        1.19038         5.27867         3.01195 
        1.19652         5.21435         2.97509 
        1.20267         5.15872         2.93885 
        1.20881         5.13476         2.90322 
        1.21495         5.08535         2.86824 
        1.22108         5.02614         2.83384 
         1.2272         4.99297         2.80009 
        1.23334         4.93159         2.76681 
        1.23949         4.88731         2.73399 
        1.24562         4.86045         2.70179 
        1.25174         4.81249         2.67016 
        1.25789         4.77665         2.63894 
        1.26402         4.74377         2.60828 
        1.27014         4.69866         2.57818 
        1.27628         4.65031         2.54846 
        1.28244         4.59822         2.51915 
        1.28858         4.59001         2.49034 
        1.29471         4.53197         2.46205 
        1.30084         4.48832         2.43422 
        1.30697         4.48608         2.40678 
        1.31312         4.40451         2.37973 
        1.31925         4.37768         2.35317 
        1.32537         4.34322         2.32705 
        1.33151         4.32719         2.30123 
        1.33765          4.2719         2.27581 
        1.34378          4.2437         2.25083 
        1.34992         4.21898         2.22621 
        1.35606         4.16815          2.2019 
         1.3622         4.14918         2.17799 
        1.36833         4.11193          2.1545 
        1.37445         4.08103         2.13137 
        1.38059         4.06733          2.1085 
        1.38675         4.03157         2.08592 
        1.39288         4.00227         2.06375 
        1.39901         3.95344         2.04192 
        1.40515         3.93076         2.02035 
         1.4113         3.90284         1.99911 
        1.41742         3.87482         1.97825 
        1.42355         3.83887         1.95765 
         1.4297         3.81332         1.93728 
        1.43585         3.79546          1.9172 
        1.44198         3.77427         1.89749 
        1.44809         3.73525         1.87809 
        1.45423         3.70499         1.85889 
        1.46036         3.67278            1.84 
        1.46649         3.65152         1.82136 
        1.47263         3.61967         1.80296 
        1.47877         3.59331         1.78483 
        1.48491         3.57111         1.76691 
        1.49104         3.54811         1.74928 
        1.49718         3.52328         1.73188 
        1.50333         3.50316         1.71469 
        1.50947         3.47133         1.69776 
         1.5156         3.44949         1.68109 
        1.52172         3.42817         1.66464 
        1.52787         3.40708         1.64838 
          1.534         3.37582         1.63235 
        1.54013         3.36079         1.61655 
        1.54627         3.32876         1.60094 
        1.55241         3.30613         1.58552 
        1.55855         3.29164         1.57033 
        1.56467         3.26827         1.55539 
         1.5708         3.24669         1.54059 
        1.57695         3.21841         1.52596 
        1.58308         3.19273         1.51156 
        1.58922         3.18524         1.49733 
        1.59535         3.16422         1.48329 
         1.6015         3.13662         1.46941 
        1.60764         3.11656         1.45571 
        1.61376         3.10026         1.44222 
        1.61989         3.07931          1.4289 
        1.62604         3.05672         1.41571 
        1.63218         3.04872          1.4027 
        1.63831         3.02179         1.38988 
        1.64444         3.00435         1.37722 
        1.65059         2.97551         1.36468 
        1.65673         2.97061         1.35231 
        1.66285         2.94161         1.34013 
        1.66898         2.92618          1.3281 
        1.67512         2.90523         1.31619 
        1.68127         2.88821         1.30442 
         1.6874         2.87913         1.29281 
        1.69353         2.84778         1.28136 
        1.69967         2.83742         1.27001 
        1.70581         2.82352         1.25881 
        1.71193         2.80279         1.24778 
        1.71806         2.78968         1.23686 
        1.72421         2.77122         1.22605 
        1.73035         2.75779         1.21539 
        1.73649         2.73813         1.20485 
        1.74262         2.72011         1.19444 
        1.74876         2.71047         1.18415 
        1.75489         2.69206         1.17401 
        1.76101         2.66942         1.16398 
        1.76715         2.66219         1.15406 
        1.77329         2.64865         1.14424 
        1.77943         2.62087         1.13453 
        1.78557         2.61298         1.12495 
        1.79171         2.60019         1.11547 
        1.79785         2.58255          1.1061 
        1.80399         2.56734         1.09685 
        1.81012         2.55381         1.08771 
        1.81625         2.54067         1.07867 
        1.82239         2.52479         1.06973 
        1.82853         2.50631         1.06089 
        1.83466         2.49982         1.05216 
        1.84078         2.48701         1.04354 
        1.84692         2.47549           1.035 
        1.85306         2.45364         1.02654 
         1.8592         2.43837         1.01819 
        1.86533         2.42671         1.00994 
        1.87147         2.41823         1.00177 
        1.87761         2.40108        0.993691 
        1.88375         2.38879        0.985707 
        1.88988         2.37586        0.977819 
        1.89601         2.36192        0.970012 
        1.90215          2.3477        0.962285 
        1.90829         2.33265        0.954645 
        1.91442         2.32618        0.947088 
        1.92056         2.30994        0.939618 
         1.9267         2.29861        0.932222 
        1.93284         2.29025          0.9249 
        1.93897         2.27796        0.917671 
        1.94509         2.26324        0.910534 
        1.95123          2.2503        0.903455 
        1.95737         2.23519        0.896446 
        1.96349         2.22996        0.889529 
        1.96964         2.22154        0.882665 
        1.97578         2.20146         0.87587 
        1.98192         2.19498        0.869161 
        1.98805         2.18459         0.86252 
        1.99419         2.17328        0.855949 
        2.00033         2.16484        0.849442 
        2.00647         2.15067        0.843005 
         2.0126         2.14363        0.836646 
        2.01874          2.1248        0.830342 
        2.02488         2.11984        0.824097 
        2.03101         2.10265        0.817928 
        2.03714         2.09536        0.811828 
        2.04328         2.08538        0.805782 
        2.04941         2.07016        0.799803 
        2.05554         2.06499        0.793889 
        2.06167         2.05633        0.788027 
        2.06781          2.0463        0.782223 
        2.07396         2.03737        0.776468 
        2.08009         2.02653        0.770781 
        2.08622         2.01506        0.765158 
        2.09237         2.00396        0.759579 
        2.09851         1.99656        0.754055 
        2.10464         1.99099        0.748595 
        2.11077         1.97667        0.743195 
        2.11691         1.96772        0.737836 
        2.12305         1.96078         0.73253 
        2.12918         1.95335        0.727289 
        2.13531         1.94238        0.722098 
        2.14145         1.93298        0.716946 
         2.1476          1.9206        0.711837 
        2.15372         1.91204        0.706805 
        2.15985         1.90573        0.701815 
        2.16599          1.8963        0.696859 
        2.17213         1.88308        0.691957 
        2.17827         1.87897        0.687103 
         2.1844         1.87018        0.682299 
        2.19054         1.86233        0.677539 
        2.19666         1.85173        0.672832 
         2.2028         1.84268        0.668165 
        2.20893         1.83608         0.66354 
        2.21508         1.82651        0.658953 
        2.22122         1.81701        0.654408 
        2.22736         1.81003        0.649915 
        2.23349         1.80322        0.645465 
        2.23962          1.7927        0.641054 
        2.24577         1.78789        0.636681 
         2.2519         1.77926        0.632354 
        2.25802         1.77268        0.628074 
        2.26417         1.76585        0.623822 
        2.27031          1.7557        0.619605 
        2.27644         1.74836        0.615439 
        2.28257         1.73824        0.611312 
        2.28872         1.73489        0.607214 
        2.29486         1.72306        0.603155 
        2.30099         1.71591        0.599141 
        2.30712         1.70778        0.595162 
        2.31326         1.70192        0.591212 
         2.3194          1.6959          0.5873 
        2.32553         1.68917         0.58343 
        2.33166         1.68126        0.579597 
         2.3378           1.674        0.575792 
        2.34394         1.66564        0.572021 
        2.35007         1.65902        0.568288 
        2.35619         1.65379        0.564593 
        2.36233         1.64539        0.560922 
        2.36848         1.63805        0.557276 
        2.37462         1.63341         0.55367 
        2.38075         1.62439          0.5501 
        2.38689         1.62037        0.546557 
        2.39303         1.61112        0.543047 
        2.39916          1.6059         0.53957 
        2.40529         1.59879        0.536125 
        2.41143         1.59096        0.532707 
        2.41757         1.58502        0.529316 
         2.4237         1.58126        0.525962 
        2.42983         1.56956        0.522637 
        2.43598         1.56812        0.519332 
        2.44211         1.55855         0.51606 
        2.44823         1.55413        0.512824 
        2.45437         1.54693        0.509607 
        2.46052         1.54291        0.506415 
        2.46665         1.53558        0.503255 
        2.47279         1.52801        0.500124 
        2.47892         1.52334        0.497017 
        2.48507         1.51784        0.493933 
         2.4912          1.5075        0.490882 
