# k  (h/Mpc)    P(k)  (Mpc/h)^3    P_linear(k)  (Mpc/h)^3
     0.00783031         18036.3         18192.1 
       0.013688         21902.3         21476.9 
       0.019231         21327.8         21063.8 
      0.0249154         18715.6         18941.1 
      0.0312784         15952.1         15970.4 
      0.0375637         13472.1         13318.8 
      0.0433917         11365.7         11439.1 
      0.0492413         10166.3         10118.4 
      0.0555754         8976.92         9160.46 
      0.0619321         8577.03            8458 
       0.067871         7720.73         7850.71 
      0.0738098         7079.76         7188.98 
      0.0800417         6268.56         6421.35 
      0.0862327         5604.73         5641.86 
      0.0921407         5052.28         4959.12 
      0.0982031         4455.67          4380.7 
       0.104506         4150.58         3934.66 
       0.110769         3825.98          3632.1 
       0.116806         3606.77         3432.19 
       0.122832         3435.69         3273.64 
       0.129052         3185.56         3108.31 
       0.135211         3007.56         2916.54 
       0.141259         2859.75         2698.44 
       0.147318         2670.25         2466.03 
       0.153489         2427.83         2238.95 
       0.159709         2280.34         2041.32 
       0.165845         2181.47         1887.82 
       0.171974         2061.56          1774.8 
       0.178125         1961.66         1692.07 
       0.184229         1874.85         1626.29 
        0.19034         1774.09            1563 
       0.196428         1733.54         1493.12 
       0.202534         1663.37         1413.09 
       0.208729         1579.94         1324.69 
       0.214876         1510.15         1236.46 
       0.220989         1451.82         1155.24 
       0.227147         1389.43         1084.96 
        0.23329         1331.85         1028.04 
       0.239377         1307.89         983.124 
       0.245482         1225.41          945.91 
       0.251667         1218.02         911.861 
       0.257832         1167.89         877.833 
       0.263955         1128.34         841.848 
       0.270079         1086.92         803.552 
        0.27624         1072.89         764.039 
       0.282372         1027.97         725.786 
        0.28843          1017.5         690.924 
       0.294538         965.075         659.824 
       0.300721          958.79         632.716 
        0.30691         920.478         609.212 
       0.313033         901.629         588.385 
       0.319153         883.456         568.665 
       0.325316         855.188         548.979 
        0.33145         834.586          529.04 
       0.337538          818.59         509.029 
       0.343633         799.297         489.164 
       0.349808         770.756         469.834 
       0.355968         765.016         451.838 
       0.362074         756.767         435.521 
       0.368217         732.663         420.643 
       0.374374         703.635         406.986 
       0.380519         703.972         394.269 
       0.386598         683.167         382.203 
       0.392688         680.513         370.361 
        0.39888         660.082         358.482 
       0.405048         650.522         346.803 
       0.411186         641.153         335.483 
       0.417313         627.736         324.642 
       0.423458         615.269         314.334 
       0.429607         607.873         304.656 
       0.435692         593.591         295.691 
       0.441815         587.718         287.178 
       0.447964         575.719         279.042 
       0.454126         569.073         271.201 
       0.460267         555.121         263.608 
       0.466387         548.493          256.22 
        0.47254          543.42         248.993 
       0.478662         538.522         242.026 
       0.484765         520.755          235.33 
       0.490885         517.073         228.897 
       0.497035         506.721         222.735 
       0.503198         502.644         216.848 
       0.509342         498.394         211.228 
       0.515458         494.205          205.85 
       0.521598         480.852          200.64 
       0.527764         473.579         195.573 
       0.533884         470.749         190.686 
           0.54         465.166         185.943 
       0.546137         461.862         181.331 
       0.552299         454.432          176.86 
       0.558452         451.279         172.557 
       0.564573         445.659         168.431 
       0.570708         439.299         164.442 
       0.576825         428.473         160.607 
       0.582926         428.624         156.912 
       0.589034         424.406         153.331 
       0.595184         420.975         149.835 
       0.601379          413.88         146.415 
       0.607522         408.472         143.121 
       0.613639         407.159         139.939 
       0.619772         399.297         136.845 
       0.625918         397.217         133.844 
       0.632068         390.935         130.935 
       0.638161         389.253         128.142 
         0.6443         383.123         125.413 
       0.650464         380.468         122.754 
       0.656582         376.691         120.192 
       0.662703         375.997         117.701 
       0.668861         369.866         115.267 
       0.675024         366.536         112.899 
       0.681124         363.325         110.622 
       0.687237         360.235         108.402 
       0.693381         354.937         106.234 
       0.699536          350.47         104.121 
       0.705665         348.813         102.075 
       0.711789         347.365         100.086 
       0.717957         344.238         98.1376 
        0.72409         341.932         96.2523 
       0.730186         337.208         94.4284 
       0.736317         334.466         92.6423 
       0.742472         332.319         90.8961 
       0.748622          329.16         89.1967 
        0.75476         324.912         87.5444 
       0.760888         321.727         85.9365 
       0.767043         321.901         84.3628 
       0.773185         318.536         82.8317 
       0.779291         314.096         81.3475 
       0.785407         313.107         79.8976 
       0.791564          309.31         78.4741 
       0.797719         307.132         77.0861 
       0.803834         303.677         75.7406 
       0.809972         303.273         74.4226 
       0.816124         302.136         73.1331 
       0.822261         298.642         71.8779 
       0.828378         296.305          70.656 
       0.834502         293.295         69.4616 
       0.840667         291.315         68.2871 
       0.846816         289.899         67.1432 
       0.852925         288.014         66.0329 
       0.859047         285.759         64.9453 
       0.865192         282.225         63.8788 
       0.871341         280.073         62.8356 
       0.877463         279.793         61.8205 
       0.883569           277.6         60.8304 
       0.889708         274.759          59.857 
       0.895864         273.617         58.9025 
       0.902008         271.175         57.9708 
       0.908149         268.812         57.0599 
       0.914301         266.342         56.1671 
       0.920448         264.959         55.2943 
       0.926574         261.893         54.4431 
       0.932687         261.857         53.6117 
       0.938823         259.015         52.7947 
       0.944975         258.534         51.9929 
       0.951105         256.354         51.2107 
       0.957225         254.692          50.446 
       0.963368         251.229         49.6943 
       0.969511         250.547          48.958 
       0.975621         248.657         48.2406 
       0.981748         247.617         47.5357 
       0.987916         246.202         46.8405 
        0.99406          243.08         46.1619 
        1.00019         242.085         45.4981 
        1.00632         240.966          44.848 
        1.01246         238.904         44.2097 
        1.01859          239.25         43.5848 
        1.02471         235.244         42.9727 
        1.03085         234.228         42.3704 
        1.03698         233.044         41.7809 
        1.04314         230.974         41.2001 
        1.04929         229.541         40.6317 
        1.05541         229.731         40.0763 
        1.06154         226.193           39.53 
        1.06769         225.811          38.993 
        1.07382         224.026         38.4678 
        1.07993         222.642         37.9535 
        1.08607         222.203         37.4464 
        1.09222         220.001         36.9481 
        1.09836         218.427         36.4595 
        1.10449         216.557         35.9802 
        1.11063         214.859         35.5091 
        1.11677          214.42         35.0465 
         1.1229         212.501          34.593 
        1.12903         211.692         34.1471 
        1.13518         210.218         33.7088 
        1.14131         208.558         33.2783 
        1.14745         208.537         32.8557 
        1.15359         206.555         32.4403 
        1.15973         204.778         32.0319 
        1.16584         203.743         31.6324 
        1.17197         203.776         31.2391 
        1.17811         201.002         30.8514 
        1.18424         200.127         30.4713 
        1.19038         199.581         30.0965 
        1.19652         197.681         29.7282 
        1.20267         197.448         29.3661 
        1.20881         195.672         29.0101 
        1.21495         194.557         28.6605 
        1.22108         193.311         28.3168 
         1.2272         192.084         27.9795 
        1.23334         191.628          27.647 
        1.23949          189.58          27.319 
        1.24562         188.934         26.9973 
        1.25174         188.019         26.6813 
        1.25789         186.741         26.3693 
        1.26402         184.797         26.0629 
        1.27014         183.872         25.7621 
        1.27628         182.963         25.4651 
        1.28244         182.954         25.1723 
        1.28858         180.928         24.8844 
        1.29471         179.924         24.6017 
        1.30084         178.902         24.3236 
        1.30697          177.51         24.0494 
        1.31312         176.309         23.7791 
        1.31925         175.329         23.5137 
        1.32537         175.122         23.2527 
        1.33151         173.385         22.9947 
        1.33765         172.231         22.7407 
        1.34378         171.677         22.4911 
        1.34992         170.828         22.2451 
        1.35606         170.664         22.0022 
         1.3622         168.709         21.7633 
        1.36833           167.5         21.5286 
        1.37445         166.916         21.2974 
        1.38059         165.532         21.0689 
        1.38675         165.056         20.8432 
        1.39288         164.095         20.6218 
        1.39901         163.475         20.4036 
        1.40515         161.955         20.1881 
         1.4113         161.319         19.9758 
        1.41742         160.057         19.7674 
        1.42355         159.445         19.5615 
         1.4297         158.191          19.358 
        1.43585         157.526         19.1574 
        1.44198         156.876         18.9604 
        1.44809         156.021         18.7666 
        1.45423         155.329         18.5747 
        1.46036         154.053         18.3859 
        1.46649           153.1         18.1997 
        1.47263         152.287         18.0158 
        1.47877         151.181         17.8346 
        1.48491         149.913         17.6556 
        1.49104         149.865         17.4795 
        1.49718         148.483         17.3056 
        1.50333         147.768         17.1338 
        1.50947         146.939         16.9646 
         1.5156         146.195          16.798 
        1.52172         145.505         16.6337 
        1.52787         144.199         16.4712 
          1.534         143.892          16.311 
        1.54013         142.984         16.1532 
        1.54627         142.113         15.9971 
        1.55241         141.155         15.8431 
        1.55855         140.458         15.6913 
        1.56467         139.381          15.542 
         1.5708         138.582         15.3941 
        1.57695         138.354         15.2479 
        1.58308         137.501          15.104 
        1.58922         136.849         14.9618 
        1.59535         135.862         14.8215 
         1.6015         135.327         14.6828 
        1.60764         134.611          14.546 
        1.61376         133.725         14.4112 
        1.61989          132.93         14.2781 
        1.62604         131.921         14.1463 
        1.63218         131.744         14.0163 
        1.63831         130.723         13.8882 
        1.64444         130.022         13.7616 
        1.65059         129.355         13.6364 
        1.65673         128.496         13.5128 
        1.66285          127.97         13.3911 
        1.66898          127.14         13.2708 
        1.67512         126.659         13.1518 
        1.68127         125.773         13.0342 
         1.6874         125.009         12.9182 
        1.69353         124.544         12.8037 
        1.69967          123.69         12.6904 
        1.70581         122.993         12.5784 
        1.71193         122.372         12.4683 
        1.71806         121.851         12.3592 
        1.72421          121.25         12.2512 
        1.73035         120.853         12.1446 
        1.73649         120.009         12.0393 
        1.74262          119.26         11.9353 
        1.74876         118.698         11.8325 
        1.75489         117.925         11.7311 
        1.76101         117.082         11.6309 
        1.76715          116.77         11.5317 
        1.77329         116.229         11.4336 
        1.77943         115.555         11.3366 
        1.78557         115.144         11.2408 
        1.79171          114.18         11.1462 
        1.79785         113.629         11.0526 
        1.80399          112.99         10.9601 
        1.81012         112.498         10.8687 
        1.81625         112.002         10.7785 
        1.82239         111.432         10.6891 
        1.82853         110.615         10.6008 
        1.83466         110.075         10.5135 
        1.84078         109.568         10.4274 
        1.84692           108.7          10.342 
        1.85306         108.521         10.2576 
         1.8592         107.722         10.1741 
        1.86533         107.128         10.0917 
        1.87147         106.485         10.0101 
        1.87761         105.767         9.92929 
        1.88375         105.339         9.84951 
        1.88988         104.733         9.77069 
        1.89601         104.204         9.69269 
        1.90215         103.625         9.61547 
        1.90829         103.128         9.53914 
        1.91442         102.699         9.46362 
        1.92056         101.898         9.38898 
         1.9267         101.658         9.31507 
        1.93284         100.993         9.24191 
        1.93897         100.394         9.16967 
        1.94509         100.066         9.09836 
        1.95123         99.4755         9.02763 
        1.95737         98.8839         8.95759 
        1.96349         98.3889         8.88847 
        1.96964          97.567         8.81988 
        1.97578         97.1078         8.75199 
        1.98192         96.8618         8.68494 
        1.98805         96.2632         8.61859 
        1.99419         95.8668         8.55292 
        2.00033         95.2065         8.48791 
        2.00647         94.9073         8.42359 
         2.0126         94.2063         8.36004 
        2.01874         93.6365         8.29705 
        2.02488         93.3913         8.23465 
        2.03101         92.6529           8.173 
        2.03714         92.1517         8.11205 
        2.04328         91.7282         8.05164 
        2.04941         91.3023          7.9919 
        2.05554         90.7533          7.9328 
        2.06167         90.4295         7.87422 
        2.06781         89.7249         7.81622 
        2.07396         89.5208         7.75872 
        2.08009         89.0322          7.7019 
        2.08622         88.3616         7.64571 
        2.09237         88.1304         7.58996 
        2.09851         87.6132         7.53476 
        2.10464         87.1987          7.4802 
        2.11077         86.6063         7.42625 
        2.11691         86.3423          7.3727 
        2.12305         85.8349         7.31968 
        2.12918         85.3017          7.2673 
        2.13531          84.889         7.21543 
        2.14145         84.3091         7.16395 
         2.1476         83.8939         7.11291 
        2.15372         83.6065         7.06262 
        2.15985         83.1572         7.01276 
        2.16599         82.5611         6.96324 
        2.17213         82.2547         6.91426 
        2.17827         81.7534         6.86575 
         2.1844          81.343         6.81775 
        2.19054         81.0482         6.77019 
        2.19666         80.6157         6.72315 
         2.2028         80.1848         6.67652 
        2.20893          79.815          6.6303 
        2.21508          79.352         6.58447 
        2.22122         78.9743         6.53905 
        2.22736         78.4847         6.49415 
        2.23349         78.1554         6.44969 
        2.23962         77.8553         6.40562 
        2.24577         77.4438         6.36191 
         2.2519         77.1143         6.31868 
        2.25802         76.6097         6.27591 
        2.26417         76.2655         6.23342 
        2.27031         75.8316         6.19129 
        2.27644         75.3018         6.14966 
        2.28257         75.0055         6.10842 
        2.28872         74.8177         6.06748 
        2.29486         74.2453         6.02692 
        2.30099          73.664         5.98681 
        2.30712         73.5472         5.94705 
        2.31326         73.1508         5.90758 
         2.3194         72.7666         5.86849 
        2.32553         72.4731         5.82982 
        2.33166         72.1051         5.79151 
         2.3378         71.6085         5.75349 
        2.34394         71.3001         5.71581 
        2.35007          70.991         5.67851 
        2.35619         70.6059         5.64159 
        2.36233         70.2192         5.60491 
        2.36848         69.8576         5.56848 
        2.37462         69.4779         5.53244 
        2.38075         69.2181         5.49676 
        2.38689          68.812         5.46137 
        2.39303         68.4104         5.42629 
        2.39916         68.1264         5.39155 
        2.40529          67.955         5.35712 
        2.41143         67.3278         5.32297 
        2.41757         67.1689         5.28909 
         2.4237         66.8012         5.25557 
        2.42983         66.4465         5.22235 
        2.43598         66.0856         5.18932 
        2.44211         65.8641         5.15663 
        2.44823         65.5117          5.1243 
        2.45437         65.0724         5.09215 
        2.46052         64.8527         5.06025 
        2.46665         64.5521         5.02868 
        2.47279         64.1265         4.99739 
        2.47892         63.8405         4.96634 
        2.48507           63.48         4.93553 
         2.4912         63.2176         4.90504 
