# k  (h/Mpc)    Pcb(k)  (Mpc/h)^3    Pcb_linear(k)  (Mpc/h)^3
     0.00783031         21603.2         21942.9 
       0.013688           26282         25977.1 
       0.019231         25559.4         25489.5 
      0.0249154         22372.9         22921.1 
      0.0312784         19078.2         19325.3 
      0.0375637         16132.2         16116.2 
      0.0433917         13585.1         13841.4 
      0.0492413         12165.4           12243 
      0.0555754           10713         11083.6 
      0.0619321         10263.1         10233.6 
       0.067871         9213.06         9498.66 
      0.0738098         8452.58         8697.95 
      0.0800417         7479.32         7769.14 
      0.0862327         6699.36            6826 
      0.0921407         6058.75         5999.94 
      0.0982031         5350.24         5300.08 
       0.104506          4997.2         4760.41 
       0.110769         4608.33         4394.34 
       0.116806         4352.45         4152.48 
       0.122832         4139.16         3960.65 
       0.129052         3832.42         3760.62 
       0.135211         3618.55         3528.59 
       0.141259         3450.59         3264.72 
       0.147318         3231.07         2983.54 
       0.153489         2941.75         2708.81 
       0.159709         2768.62          2469.7 
       0.165845         2659.09         2283.99 
       0.171974         2517.79         2147.25 
       0.178125         2395.08         2047.15 
       0.184229         2282.69         1967.56 
        0.19034         2172.76            1891 
       0.196428         2119.34         1806.46 
       0.202534         2030.18         1709.62 
       0.208729         1934.45         1602.67 
       0.214876          1859.5         1495.93 
       0.220989          1788.5         1397.66 
       0.227147         1717.61         1312.64 
        0.23329         1647.91         1243.78 
       0.239377          1621.8         1189.43 
       0.245482         1523.94         1144.41 
       0.251667         1515.04         1103.21 
       0.257832         1452.71         1062.04 
       0.263955         1402.98         1018.51 
       0.270079         1354.17         972.177 
        0.27624         1335.76         924.371 
       0.282372         1281.38         878.092 
        0.28843         1275.48         835.915 
       0.294538         1212.01          798.29 
       0.300721         1201.89          765.49 
        0.30691         1158.91         737.055 
       0.313033         1134.17         711.858 
       0.319153         1116.55         687.999 
       0.325316         1080.28         664.178 
        0.33145         1056.55          640.06 
       0.337538         1033.97         615.849 
       0.343633         1014.52         591.815 
       0.349808         980.031         568.431 
       0.355968         971.972         546.655 
       0.362074         963.586         526.915 
       0.368217         931.459         508.916 
       0.374374         899.151         492.393 
       0.380519         900.703         477.007 
       0.386598         872.786         462.408 
       0.392688         869.025         448.081 
        0.39888         843.885         433.709 
       0.405048         835.201          419.58 
       0.411186         823.106         405.885 
       0.417313         805.717         392.768 
       0.423458         790.089         380.296 
       0.429607         782.312         368.588 
       0.435692         765.292         357.741 
       0.441815         757.206         347.443 
       0.447964         742.993         337.598 
       0.454126         737.795         328.113 
       0.460267         718.218         318.925 
       0.466387         708.655         309.988 
        0.47254         708.154         301.244 
       0.478662         697.489         292.815 
       0.484765         677.256         284.714 
       0.490885         672.884         276.932 
       0.497035         659.227         269.476 
       0.503198         654.942         262.353 
       0.509342         648.393         255.554 
       0.515458         644.582         249.047 
       0.521598         627.781         242.744 
       0.527764          618.74         236.613 
       0.533884         614.743         230.702 
           0.54         609.539         224.963 
       0.546137         602.667         219.384 
       0.552299         595.761         213.974 
       0.558452         589.928         208.768 
       0.564573         583.637         203.776 
       0.570708          576.36         198.951 
       0.576825         562.859         194.311 
       0.582926         564.331          189.84 
       0.589034         557.873         185.508 
       0.595184         553.319         181.278 
       0.601379         544.942          177.14 
       0.607522         537.377         173.156 
       0.613639         535.937         169.305 
       0.619772         527.531         165.563 
       0.625918         523.503         161.931 
       0.632068         516.372         158.412 
       0.638161         513.466         155.033 
         0.6443          506.27         151.731 
       0.650464         504.147         148.515 
       0.656582         497.826         145.414 
       0.662703         497.057         142.401 
       0.668861         489.566         139.456 
       0.675024          485.27         136.591 
       0.681124         481.366         133.836 
       0.687237         478.217         131.151 
       0.693381         471.124         128.527 
       0.699536         463.912         125.971 
       0.705665         463.395         123.496 
       0.711789         461.265          121.09 
       0.717957          456.99         118.732 
        0.72409         454.727         116.451 
       0.730186         448.218         114.244 
       0.736317          445.64         112.084 
       0.742472          441.99         109.971 
       0.748622         437.866         107.915 
        0.75476         431.513         105.916 
       0.760888         427.929         103.971 
       0.767043         427.603         102.066 
       0.773185         423.912         100.214 
       0.779291         419.237         98.4185 
       0.785407         416.487         96.6643 
       0.791564          412.41         94.9421 
       0.797719         410.827         93.2628 
       0.803834         404.865         91.6349 
       0.809972         404.549         90.0403 
       0.816124         402.922         88.4803 
       0.822261         397.888         86.9616 
       0.828378         395.676         85.4833 
       0.834502         390.837         84.0382 
       0.840667         388.355         82.6173 
       0.846816           386.8         81.2334 
       0.852925         384.405           79.89 
       0.859047          381.86         78.5743 
       0.865192         377.095         77.2839 
       0.871341         374.157         76.0218 
       0.877463         374.212         74.7937 
       0.883569         370.211         73.5958 
       0.889708         368.041         72.4182 
       0.895864         367.608         71.2633 
       0.902008         363.807         70.1361 
       0.908149         358.748          69.034 
       0.914301         357.357         67.9539 
       0.920448         355.625         66.8979 
       0.926574         350.791         65.8681 
       0.932687         349.819         64.8623 
       0.938823         346.556         63.8739 
       0.944975         346.561         62.9038 
       0.951105         343.168         61.9575 
       0.957225          340.91         61.0323 
       0.963368         336.591         60.1228 
       0.969511         335.922          59.232 
       0.975621         334.341          58.364 
       0.981748         331.591         57.5113 
       0.987916         330.108         56.6702 
        0.99406         326.019         55.8492 
        1.00019         323.992         55.0461 
        1.00632         322.998         54.2595 
        1.01246         320.123         53.4872 
        1.01859         319.802         52.7312 
        1.02471          315.64         51.9907 
        1.03085         314.559          51.262 
        1.03698         312.548         50.5487 
        1.04314         310.666          49.846 
        1.04929         307.876         49.1584 
        1.05541         308.045         48.4865 
        1.06154         303.307         47.8255 
        1.06769         302.723         47.1759 
        1.07382         300.094         46.5404 
        1.07993         298.851         45.9182 
        1.08607         297.996         45.3047 
        1.09222         294.372         44.7018 
        1.09836         292.227         44.1106 
        1.10449         290.755         43.5308 
        1.11063         287.517         42.9608 
        1.11677         287.953         42.4012 
         1.1229         285.104         41.8525 
        1.12903          283.76          41.313 
        1.13518         281.231         40.7827 
        1.14131         279.846         40.2619 
        1.14745         278.522         39.7506 
        1.15359         276.705          39.248 
        1.15973         275.002         38.7539 
        1.16584         272.775         38.2706 
        1.17197         272.741         37.7948 
        1.17811         269.649         37.3256 
        1.18424         267.799         36.8658 
        1.19038          266.99         36.4124 
        1.19652         264.658         35.9668 
        1.20267         264.465         35.5287 
        1.20881         261.818          35.098 
        1.21495         260.358         34.6751 
        1.22108         258.615         34.2592 
         1.2272         257.244         33.8512 
        1.23334          256.52         33.4488 
        1.23949         253.302          33.052 
        1.24562          252.48         32.6628 
        1.25174         251.719         32.2804 
        1.25789         249.635          31.903 
        1.26402         247.697         31.5323 
        1.27014         246.426         31.1684 
        1.27628         244.335         30.8091 
        1.28244         244.487         30.4548 
        1.28858          242.27         30.1065 
        1.29471         241.527         29.7645 
        1.30084         238.966         29.4281 
        1.30697         238.336         29.0963 
        1.31312         235.993         28.7692 
        1.31925         234.492         28.4482 
        1.32537         234.281         28.1324 
        1.33151          232.13         27.8202 
        1.33765         230.175          27.513 
        1.34378         229.798          27.211 
        1.34992         228.597         26.9133 
        1.35606         227.576         26.6194 
         1.3622             225         26.3304 
        1.36833         224.288         26.0464 
        1.37445         222.703         25.7667 
        1.38059         221.376         25.4903 
        1.38675         220.464         25.2173 
        1.39288          219.32         24.9493 
        1.39901         217.547         24.6854 
        1.40515         216.831         24.4247 
         1.4113         215.312         24.1678 
        1.41742         213.858         23.9156 
        1.42355         212.754         23.6666 
         1.4297         211.351         23.4203 
        1.43585         210.085         23.1776 
        1.44198          209.96         22.9393 
        1.44809         207.935         22.7048 
        1.45423         206.883         22.4727 
        1.46036         205.559         22.2443 
        1.46649         204.601          22.019 
        1.47263         203.618         21.7966 
        1.47877         202.083         21.5773 
        1.48491         200.198         21.3608 
        1.49104         199.799         21.1476 
        1.49718         197.989         20.9372 
        1.50333         197.518         20.7294 
        1.50947          196.02         20.5247 
         1.5156         194.763         20.3232 
        1.52172         194.127         20.1243 
        1.52787         192.347         19.9277 
          1.534         192.036          19.734 
        1.54013         190.326          19.543 
        1.54627         189.566         19.3542 
        1.55241         188.337         19.1679 
        1.55855         186.657         18.9843 
        1.56467           186.3         18.8035 
         1.5708         184.994         18.6247 
        1.57695         184.399         18.4478 
        1.58308         182.962         18.2737 
        1.58922         181.813         18.1017 
        1.59535         180.696         17.9319 
         1.6015         179.493         17.7641 
        1.60764         179.043         17.5985 
        1.61376             178         17.4355 
        1.61989         176.987         17.2744 
        1.62604          175.76          17.115 
        1.63218         175.072         16.9577 
        1.63831         173.456         16.8027 
        1.64444         172.842         16.6496 
        1.65059         171.988         16.4981 
        1.65673         171.107         16.3486 
        1.66285          169.75         16.2013 
        1.66898         169.226         16.0558 
        1.67512         168.039         15.9119 
        1.68127         166.819         15.7695 
         1.6874         166.414         15.6292 
        1.69353         165.124         15.4907 
        1.69967         164.019         15.3535 
        1.70581         163.223         15.2181 
        1.71193         161.982         15.0848 
        1.71806         161.592         14.9528 
        1.72421         160.488         14.8222 
        1.73035         159.941         14.6932 
        1.73649         158.816         14.5658 
        1.74262         158.045           14.44 
        1.74876         156.613         14.3156 
        1.75489         156.161         14.1929 
        1.76101         154.905         14.0717 
        1.76715         154.513         13.9518 
        1.77329         153.298         13.8331 
        1.77943         152.792         13.7157 
        1.78557         151.908         13.5998 
        1.79171          151.02         13.4853 
        1.79785         150.028          13.372 
        1.80399         149.385         13.2601 
        1.81012         148.654         13.1496 
        1.81625         147.906         13.0404 
        1.82239         146.831         12.9323 
        1.82853         146.058         12.8254 
        1.83466          145.51         12.7199 
        1.84078         144.474         12.6157 
        1.84692         143.438         12.5124 
        1.85306         143.303         12.4102 
         1.8592         142.209         12.3093 
        1.86533         141.831         12.2095 
        1.87147         140.573         12.1108 
        1.87761         139.747          12.013 
        1.88375         139.093         11.9165 
        1.88988         137.806         11.8212 
        1.89601         137.626         11.7268 
        1.90215         137.016         11.6334 
        1.90829          135.79          11.541 
        1.91442         135.477         11.4496 
        1.92056         134.449         11.3593 
         1.9267         133.722         11.2699 
        1.93284          132.86         11.1814 
        1.93897         132.375          11.094 
        1.94509         131.913         11.0077 
        1.95123         131.068         10.9222 
        1.95737         130.246         10.8374 
        1.96349         129.744         10.7538 
        1.96964         128.737         10.6708 
        1.97578         127.879         10.5887 
        1.98192         127.281         10.5076 
        1.98805         126.852         10.4273 
        1.99419         125.918         10.3478 
        2.00033         125.399         10.2692 
        2.00647         124.722         10.1914 
         2.0126         123.874         10.1145 
        2.01874         123.424         10.0383 
        2.02488         123.077         9.96277 
        2.03101         121.862         9.88819 
        2.03714         121.462         9.81444 
        2.04328         120.618         9.74136 
        2.04941         120.196         9.66908 
        2.05554         119.282         9.59758 
        2.06167         118.794         9.52671 
        2.06781         117.904         9.45654 
        2.07396         117.744         9.38697 
        2.08009         116.764         9.31822 
        2.08622         115.974         9.25024 
        2.09237         115.587          9.1828 
        2.09851         114.939         9.11601 
        2.10464         114.474            9.05 
        2.11077          113.78         8.98472 
        2.11691          113.16         8.91994 
        2.12305           112.8         8.85579 
        2.12918         112.149         8.79242 
        2.13531         111.295         8.72967 
        2.14145         110.792         8.66738 
         2.1476         110.111         8.60563 
        2.15372         109.744         8.54479 
        2.15985         108.929         8.48447 
        2.16599         108.437         8.42456 
        2.17213         108.021         8.36529 
        2.17827         107.197          8.3066 
         2.1844          106.61         8.24853 
        2.19054         106.361         8.19099 
        2.19666         105.652         8.13408 
         2.2028         105.002         8.07766 
        2.20893         104.562         8.02174 
        2.21508         103.869         7.96629 
        2.22122         103.423         7.91134 
        2.22736         102.881         7.85703 
        2.23349          102.47         7.80323 
        2.23962         101.961         7.74991 
        2.24577         101.232         7.69704 
         2.2519         100.801         7.64473 
        2.25802         100.077         7.59299 
        2.26417         99.8169         7.54158 
        2.27031         99.1334          7.4906 
        2.27644         98.6716         7.44024 
        2.28257         98.3215         7.39035 
        2.28872         97.5707         7.34081 
        2.29486         97.1668         7.29174 
        2.30099         96.5808         7.24322 
        2.30712         96.1018         7.19511 
        2.31326         95.6147         7.14736 
         2.3194         95.0083         7.10007 
        2.32553         94.5594         7.05328 
        2.33166         93.9492         7.00694 
         2.3378         93.6623         6.96094 
        2.34394         93.1515         6.91535 
        2.35007         92.6901         6.87022 
        2.35619         92.2035         6.82555 
        2.36233         91.7678         6.78118 
        2.36848         91.1695          6.7371 
        2.37462         90.8794         6.69351 
        2.38075         90.2715         6.65034 
        2.38689         89.8146         6.60751 
        2.39303         89.2943         6.56507 
        2.39916         88.8702         6.52305 
        2.40529         88.6271         6.48139 
        2.41143         88.0687         6.44007 
        2.41757         87.5525         6.39909 
         2.4237         87.1991         6.35853 
        2.42983         86.7294         6.31834 
        2.43598         86.1395         6.27838 
        2.44211         85.7985         6.23883 
        2.44823         85.3098         6.19971 
        2.45437          84.976         6.16082 
        2.46052         84.4846         6.12222 
        2.46665         84.1226         6.08403 
        2.47279         83.6064         6.04617 
        2.47892         83.2205         6.00861 
        2.48507         82.8533         5.97133 
         2.4912         82.4565         5.93444 
