# k  (h/Mpc)    Pcb(k)  (Mpc/h)^3    Pcb_linear(k)  (Mpc/h)^3
     0.00783031         709.256         714.563 
       0.013688         878.241          886.78 
       0.019231         895.265         898.828 
      0.0249154         828.584          828.56 
      0.0312784          711.43         711.674 
      0.0375637         598.322         599.026 
      0.0433917         516.887           515.6 
      0.0492413         455.879         455.809 
      0.0555754         414.618         413.175 
      0.0619321         382.136         384.211 
       0.067871         360.847         361.139 
      0.0738098         336.019         336.136 
      0.0800417         305.964         305.472 
      0.0862327         271.827         271.872 
      0.0921407         240.236         240.181 
      0.0982031         212.387         211.475 
       0.104506         187.917         188.039 
       0.110769         171.753         171.666 
       0.116806         162.188         161.293 
       0.122832         154.354          154.27 
       0.129052          148.66         148.218 
       0.135211         142.251         141.519 
       0.141259         133.525         133.294 
       0.147318         123.286         123.489 
       0.153489         113.036          112.77 
       0.159709         103.124         102.434 
       0.165845          93.707         93.6992 
       0.171974         87.9429         86.9305 
       0.178125         82.9711         82.0678 
       0.184229         79.2155         78.7084 
        0.19034         77.0533         76.1389 
       0.196428          74.441         73.6922 
       0.202534          70.952         70.8488 
       0.208729         67.9814         67.3543 
       0.214876         64.3353         63.3836 
       0.220989         59.6754         59.2569 
       0.227147         56.3967         55.3054 
        0.23329         53.0718         51.8734 
       0.239377         50.4292         49.1212 
       0.245482          48.178         46.9899 
       0.251667         46.2278         45.3188 
       0.257832         45.1726         43.9134 
       0.263955          43.456         42.5558 
       0.270079         41.9498         41.0765 
        0.27624         40.1014         39.4042 
       0.282372         38.3709         37.5952 
        0.28843         36.9313         35.7625 
       0.294538         35.0991         33.9921 
       0.300721         33.3062         32.3774 
        0.30691         32.2066         30.9945 
       0.313033         30.9571         29.8507 
       0.319153         30.2584         28.8838 
       0.325316         28.9964         28.0146 
        0.33145         28.1091         27.1821 
       0.337538         27.3138         26.3324 
       0.343633         26.5142          25.439 
       0.349808         25.5024          24.495 
       0.355968         24.5357         23.5474 
       0.362074         23.8083         22.6381 
       0.368217         22.9209         21.7886 
       0.374374         22.3084         21.0211 
       0.380519         21.4288         20.3394 
       0.386598         20.7591         19.7367 
       0.392688         20.1508         19.1793 
        0.39888         19.7007         18.6374 
       0.405048         19.1913         18.1035 
       0.411186          18.622         17.5662 
       0.417313         18.0754         17.0264 
       0.423458         17.4564         16.4884 
       0.429607         17.0712         15.9644 
       0.435692          16.644         15.4722 
       0.441815         16.0492           15.01 
       0.447964         15.5425         14.5792 
       0.454126         15.2385         14.1793 
       0.460267         14.9725         13.8053 
       0.466387         14.5397         13.4479 
        0.47254         14.2436         13.0975 
       0.478662         13.8383         12.7548 
       0.484765         13.5033          12.417 
       0.490885          13.107          12.083 
       0.497035         12.7586         11.7564 
       0.503198         12.5018         11.4419 
       0.509342         12.1306         11.1428 
       0.515458         11.9148         10.8597 
       0.521598         11.6401         10.5902 
       0.527764         11.4346         10.3329 
       0.533884         11.0847         10.0874 
           0.54         10.8822         9.84938 
       0.546137         10.5714         9.61597 
       0.552299         10.3676         9.38708 
       0.558452         10.1335         9.16411 
       0.564573         9.95203         8.94798 
       0.570708         9.72751         8.73766 
       0.576825         9.52821         8.53514 
       0.582926         9.31285         8.34103 
       0.589034           9.141         8.15452 
       0.595184         8.99815         7.97386 
       0.601379         8.76128           7.798 
       0.607522         8.58542         7.62873 
       0.613639         8.39166         7.46471 
       0.619772         8.26326         7.30461 
       0.625918         8.09019         7.14847 
       0.632068         7.96269         6.99646 
       0.638161         7.79854         6.84998 
         0.6443         7.64085         6.70654 
       0.650464          7.4716          6.5668 
       0.656582         7.39001         6.43234 
       0.662703         7.25978         6.30204 
       0.668861         7.06852         6.17506 
       0.675024          6.9489         6.05175 
       0.681124         6.91948         5.93315 
       0.687237         6.75217         5.81741 
       0.693381         6.57979         5.70399 
       0.699536         6.52465         5.59314 
       0.705665          6.4022         5.48557 
       0.711789         6.26128         5.38085 
       0.717957         6.14286         5.27819 
        0.72409         6.06368          5.1789 
       0.730186         6.00435         5.08293 
       0.736317         5.86456         4.98902 
       0.742472         5.79034         4.89725 
       0.748622          5.7003         4.80794 
        0.75476         5.56061         4.72107 
       0.760888         5.50838         4.63644 
       0.767043         5.37405         4.55351 
       0.773185         5.30964         4.47274 
       0.779291         5.27243         4.39436 
       0.785407         5.16376         4.31773 
       0.791564         5.08831         4.24245 
       0.797719         4.99853         4.16902 
       0.803834          4.9363         4.09783 
       0.809972         4.84948         4.02809 
       0.816124          4.7833         3.95985 
       0.822261         4.71644         3.89342 
       0.828378         4.64149         3.82873 
       0.834502         4.57698         3.76548 
       0.840667          4.5261         3.70327 
       0.846816          4.4392         3.64264 
       0.852925         4.37924         3.58376 
       0.859047         4.31725         3.52606 
       0.865192         4.25749         3.46944 
       0.871341         4.19903         3.41403 
       0.877463         4.13276         3.36009 
       0.883569         4.08453         3.30745 
       0.889708          4.0308         3.25568 
       0.895864         3.97652         3.20489 
       0.902008         3.91079          3.1553 
       0.908149          3.8622          3.1068 
       0.914301         3.81881         3.05925 
       0.920448         3.77148         3.01274 
       0.926574         3.73996         2.96737 
       0.932687         3.67763         2.92304 
       0.938823          3.6123         2.87947 
       0.944975         3.58514         2.83669 
       0.951105         3.51537         2.79493 
       0.957225         3.48853          2.7541 
       0.963368         3.44974         2.71395 
       0.969511         3.40876          2.6746 
       0.975621         3.35754         2.63625 
       0.981748         3.29723         2.59856 
       0.987916         3.26707         2.56137 
        0.99406         3.24216         2.52506 
        1.00019         3.20055         2.48952 
        1.00632         3.16898         2.45471 
        1.01246         3.12201         2.42052 
        1.01859         3.08644         2.38703 
        1.02471         3.03645         2.35423 
        1.03085         3.01035         2.32193 
        1.03698         2.97865         2.29031 
        1.04314         2.94625         2.25914 
        1.04929           2.911         2.22864 
        1.05541           2.869         2.19882 
        1.06154         2.84766         2.16948 
        1.06769         2.82475         2.14063 
        1.07382         2.77926          2.1124 
        1.07993         2.74394         2.08475 
        1.08607         2.72401         2.05749 
        1.09222         2.68482         2.03068 
        1.09836          2.6731         2.00439 
        1.10449         2.62001          1.9786 
        1.11063         2.59854         1.95323 
        1.11677         2.57602         1.92832 
         1.1229         2.54059         1.90389 
        1.12903         2.52479         1.87986 
        1.13518         2.48728         1.85623 
        1.14131         2.46417         1.83303 
        1.14745         2.43673         1.81023 
        1.15359         2.41242         1.78782 
        1.15973         2.38534         1.76578 
        1.16584         2.36152         1.74422 
        1.17197         2.33377         1.72298 
        1.17811         2.31006         1.70204 
        1.18424         2.28648          1.6815 
        1.19038         2.26327         1.66125 
        1.19652         2.24583         1.64134 
        1.20267         2.22719         1.62176 
        1.20881         2.19889          1.6025 
        1.21495         2.17903         1.58359 
        1.22108         2.15981         1.56499 
         1.2272         2.12844         1.54673 
        1.23334          2.1179         1.52873 
        1.23949         2.09475         1.51096 
        1.24562         2.07589         1.49354 
        1.25174         2.05908         1.47641 
        1.25789         2.03133          1.4595 
        1.26402         2.01135         1.44289 
        1.27014         1.99067         1.42657 
        1.27628         1.97563         1.41046 
        1.28244         1.95852         1.39457 
        1.28858         1.93899         1.37895 
        1.29471          1.9157          1.3636 
        1.30084         1.90197          1.3485 
        1.30697         1.88924         1.33361 
        1.31312         1.86996         1.31892 
        1.31925         1.85272          1.3045 
        1.32537         1.83842         1.29031 
        1.33151         1.81768         1.27628 
        1.33765         1.80339         1.26247 
        1.34378         1.78747         1.24889 
        1.34992         1.77407         1.23551 
        1.35606         1.75682         1.22229 
         1.3622         1.74292         1.20929 
        1.36833         1.72418          1.1965 
        1.37445         1.70846         1.18392 
        1.38059         1.69463         1.17147 
        1.38675         1.68027         1.15917 
        1.39288         1.66935          1.1471 
        1.39901         1.65122         1.13521 
        1.40515         1.63698         1.12346 
         1.4113         1.62864         1.11189 
        1.41742         1.60842         1.10052 
        1.42355         1.59385         1.08928 
         1.4297          1.5857         1.07818 
        1.43585         1.57046         1.06723 
        1.44198         1.55811         1.05648 
        1.44809         1.54598         1.04589 
        1.45423         1.53372         1.03541 
        1.46036         1.52155          1.0251 
        1.46649         1.50309         1.01492 
        1.47263          1.4972         1.00487 
        1.47877         1.48945        0.994964 
        1.48491         1.46837        0.985175 
        1.49104         1.46119         0.97554 
        1.49718         1.44738        0.966026 
        1.50333         1.43653        0.956624 
        1.50947         1.42748        0.947368 
         1.5156         1.41485        0.938247 
        1.52172         1.40515        0.929248 
        1.52787         1.39297        0.920348 
          1.534         1.38523        0.911577 
        1.54013         1.37196        0.902929 
        1.54627         1.36167        0.894378 
        1.55241         1.34879        0.885936 
        1.55855         1.34043        0.877616 
        1.56467         1.33045        0.869426 
         1.5708         1.32056        0.861317 
        1.57695         1.30852          0.8533 
        1.58308         1.29705        0.845403 
        1.58922         1.29209        0.837601 
        1.59535         1.27805        0.829901 
         1.6015         1.26854        0.822287 
        1.60764         1.26149        0.814772 
        1.61376          1.2502        0.807372 
        1.61989         1.24271        0.800059 
        1.62604          1.2298         0.79282 
        1.63218         1.22635        0.785675 
        1.63831         1.21569        0.778635 
        1.64444         1.20642        0.771678 
        1.65059         1.19971        0.764791 
        1.65673         1.18765        0.757995 
        1.66285         1.18029        0.751301 
        1.66898         1.17398        0.744686 
        1.67512         1.16122        0.738138 
        1.68127         1.15346        0.731663 
         1.6874         1.14979         0.72528 
        1.69353         1.13832        0.718977 
        1.69967         1.13183        0.712735 
        1.70581         1.12676        0.706569 
        1.71193           1.114          0.7005 
        1.71806         1.10869        0.694489 
        1.72421         1.10206        0.688537 
        1.73035         1.08969        0.682662 
        1.73649         1.08869        0.676857 
        1.74262          1.0776        0.671124 
        1.74876         1.07076        0.665454 
        1.75489         1.06452        0.659861 
        1.76101         1.05447        0.654334 
        1.76715          1.0493        0.648863 
        1.77329         1.04302        0.643449 
        1.77943         1.03593        0.638093 
        1.78557         1.03115        0.632807 
        1.79171         1.02406         0.62758 
        1.79785         1.01648        0.622411 
        1.80399         1.00795        0.617301 
        1.81012          1.0022        0.612256 
        1.81625        0.994749        0.607269 
        1.82239        0.989803        0.602331 
        1.82853        0.982946        0.597449 
        1.83466        0.975675        0.592627 
        1.84078        0.969337        0.587863 
        1.84692        0.964131        0.583144 
        1.85306        0.960109        0.578471 
         1.8592        0.950868        0.573857 
        1.86533        0.946695        0.569295 
        1.87147        0.937756        0.564778 
        1.87761        0.934064        0.560308 
        1.88375        0.927812        0.555892 
        1.88988        0.921051        0.551529 
        1.89601        0.915439        0.547209 
        1.90215        0.910989        0.542933 
        1.90829        0.905047        0.538705 
        1.91442        0.899019        0.534521 
        1.92056         0.89551        0.530386 
         1.9267        0.888972         0.52629 
        1.93284        0.882059        0.522235 
        1.93897        0.877273        0.518231 
        1.94509        0.873567        0.514277 
        1.95123        0.865745        0.510354 
        1.95737        0.862011         0.50647 
        1.96349        0.856279        0.502636 
        1.96964        0.853109        0.498831 
        1.97578        0.844937        0.495063 
        1.98192        0.840551        0.491342 
        1.98805        0.836136        0.487659 
        1.99419         0.83187        0.484014 
        2.00033        0.827224        0.480404 
        2.00647        0.822672        0.476832 
         2.0126        0.818835        0.473302 
        2.01874        0.813132        0.469803 
        2.02488         0.80656        0.466336 
        2.03101        0.802564        0.462911 
        2.03714        0.799542        0.459523 
        2.04328        0.793548        0.456166 
        2.04941        0.788955        0.452845 
        2.05554        0.784668        0.449559 
        2.06167        0.780534        0.446302 
        2.06781        0.774328        0.443076 
        2.07396        0.772478        0.439878 
        2.08009         0.76705        0.436717 
        2.08622        0.762783         0.43359 
        2.09237        0.759091        0.430488 
        2.09851        0.753741        0.427416 
        2.10464        0.750748        0.424379 
        2.11077        0.744463        0.421375 
        2.11691        0.741177        0.418394 
        2.12305        0.739173        0.415441 
        2.12918        0.733004        0.412524 
        2.13531        0.729232        0.409635 
        2.14145        0.724993        0.406767 
         2.1476        0.722028        0.403923 
        2.15372        0.717853         0.40112 
        2.15985         0.71345        0.398341 
        2.16599        0.710546        0.395581 
        2.17213        0.706208         0.39285 
        2.17827        0.701335        0.390145 
         2.1844        0.698762        0.387469 
        2.19054        0.695007        0.384816 
        2.19666        0.691847        0.382192 
         2.2028        0.687385        0.379591 
        2.20893        0.684477        0.377012 
        2.21508        0.680345        0.374454 
        2.22122        0.677688        0.371919 
        2.22736        0.671595        0.369413 
        2.23349        0.668485        0.366931 
        2.23962        0.666439         0.36447 
        2.24577        0.662815         0.36203 
         2.2519        0.658968        0.359615 
        2.25802        0.656888        0.357227 
        2.26417        0.651671        0.354853 
        2.27031         0.64921        0.352499 
        2.27644        0.647093        0.350173 
        2.28257        0.641575        0.347868 
        2.28872        0.640421        0.345579 
        2.29486        0.635719        0.343312 
        2.30099        0.632971        0.341069 
        2.30712        0.629928        0.338846 
        2.31326        0.626749        0.336638 
         2.3194        0.623749        0.334452 
        2.32553        0.619827        0.332289 
        2.33166        0.618332        0.330146 
         2.3378        0.614402        0.328019 
        2.34394          0.6115        0.325909 
        2.35007        0.606881        0.323822 
        2.35619           0.604        0.321755 
        2.36233        0.601518        0.319702 
        2.36848        0.600048        0.317662 
        2.37462        0.596595        0.315644 
        2.38075        0.593066        0.313646 
        2.38689        0.591006        0.311663 
        2.39303        0.587799        0.309698 
        2.39916        0.584927        0.307752 
        2.40529         0.58337        0.305823 
        2.41143        0.578483        0.303909 
        2.41757        0.576723         0.30201 
         2.4237        0.573738        0.300132 
        2.42983        0.570633        0.298269 
        2.43598        0.568385        0.296417 
        2.44211        0.565051        0.294584 
        2.44823        0.563145        0.292771 
        2.45437        0.561104        0.290968 
        2.46052        0.558637        0.289178 
        2.46665        0.555219        0.287407 
        2.47279        0.552807        0.285652 
        2.47892        0.550173        0.283909 
        2.48507        0.548686         0.28218 
         2.4912        0.544926        0.280469 
