# k  (h/Mpc)    Pcb(k)  (Mpc/h)^3    Pcb_linear(k)  (Mpc/h)^3
     0.00783031         530.518         534.945 
       0.013688         646.291         652.282 
       0.019231         644.376         646.681 
      0.0249154         580.735           580.7 
      0.0312784         483.609         483.381 
      0.0375637         395.313         395.309 
      0.0433917         334.564         333.483 
      0.0492413         291.964         291.681 
      0.0555754         265.121         264.042 
      0.0619321         245.622         246.661 
       0.067871         232.768         232.812 
      0.0738098         216.662         216.702 
      0.0800417         196.046         195.721 
      0.0862327         172.169         172.132 
      0.0921407         150.056         149.906 
      0.0982031         130.785         130.156 
       0.104506         114.667         114.616 
       0.110769         104.542         104.399 
       0.116806         99.0232          98.495 
       0.122832         94.9796         94.8896 
       0.129052         92.0648         91.7874 
       0.135211         88.3057         87.9021 
       0.141259         82.7726         82.6339 
       0.147318         76.0063         76.0698 
       0.153489         69.0213         68.8224 
       0.159709         62.3176         61.9177 
       0.165845         56.3035         56.2467 
       0.171974         52.6086         52.0475 
       0.178125         49.7014         49.2271 
       0.184229         47.7228         47.4369 
        0.19034         46.6175         46.1335 
       0.196428         45.1985         44.8178 
       0.202534         43.1815         43.1266 
       0.208729         41.2335         40.9081 
       0.214876          38.805         38.3212 
       0.220989         35.8803         35.6293 
       0.227147         33.6524          33.089 
        0.23329         31.5503         30.9421 
       0.239377         29.9327         29.2859 
       0.245482         28.6674         28.0604 
       0.251667         27.5848         27.1382 
       0.257832         26.9854         26.3692 
       0.263955         26.0354         25.5941 
       0.270079         25.1353         24.7046 
        0.27624         24.0115         23.6631 
       0.282372            22.9         22.5182 
        0.28843         21.9288         21.3624 
       0.294538         20.7983          20.258 
       0.300721         19.7191         19.2729 
        0.30691          19.035         18.4482 
       0.313033         18.3213          17.784 
       0.319153          17.897           17.23 
       0.325316         17.1973         16.7317 
        0.33145         16.6789         16.2427 
       0.337538         16.2009         15.7331 
       0.343633         15.7112         15.1852 
       0.349808         15.0874         14.6041 
       0.355968         14.4968         14.0202 
       0.362074         14.0277         13.4659 
       0.368217          13.491         12.9544 
       0.374374          13.111         12.4978 
       0.380519         12.6198         12.0985 
       0.386598         12.2273         11.7454 
       0.392688         11.8739          11.419 
        0.39888         11.5957         11.0987 
       0.405048          11.289          10.778 
       0.411186         10.9497         10.4542 
       0.417313          10.622         10.1269 
       0.423458         10.2483         9.80082 
       0.429607         10.0059         9.48593 
       0.435692           9.737         9.19181 
       0.441815         9.40497         8.91665 
       0.447964         9.11262         8.66273 
       0.454126         8.92296         8.42711 
       0.460267         8.74823         8.20552 
       0.466387          8.5021         7.99338 
        0.47254         8.31631         7.78489 
       0.478662         8.08429         7.57929 
       0.484765          7.8847          7.3761 
       0.490885         7.65318         7.17636 
       0.497035         7.43735         6.98152 
       0.503198         7.28619         6.79394 
       0.509342         7.07104         6.61598 
       0.515458         6.93253         6.44873 
       0.521598          6.7747         6.28968 
       0.527764         6.64617         6.13699 
       0.533884          6.4431         5.99088 
           0.54         6.32339         5.84917 
       0.546137         6.15066         5.71052 
       0.552299         6.02495         5.57419 
       0.558452         5.88556         5.44099 
       0.564573         5.77051         5.31199 
       0.570708         5.64276         5.18701 
       0.576825         5.52181         5.06724 
       0.582926         5.39239         4.95247 
       0.589034         5.29491         4.84184 
       0.595184         5.20468         4.73441 
       0.601379         5.07266         4.62986 
       0.607522         4.96287         4.52942 
       0.613639          4.8509         4.43225 
       0.619772         4.77513         4.33733 
       0.625918         4.67637          4.2445 
       0.632068         4.59102         4.15398 
       0.638161         4.49734         4.06677 
         0.6443         4.40395         3.98155 
       0.650464         4.31307         3.89879 
       0.656582         4.25615         3.81932 
       0.662703         4.17421          3.7423 
       0.668861         4.06922         3.66709 
       0.675024         3.99772         3.59388 
       0.681124         3.97342         3.52334 
       0.687237         3.87657         3.45444 
       0.693381         3.78021           3.387 
       0.699536         3.74231         3.32122 
       0.705665          3.6724         3.25748 
       0.711789         3.59041         3.19552 
       0.717957         3.52659          3.1348 
        0.72409         3.47268         3.07605 
       0.730186         3.43453          3.0192 
       0.736317          3.3547         2.96351 
       0.742472          3.3116         2.90903 
       0.748622         3.25993         2.85599 
        0.75476         3.18327         2.80438 
       0.760888         3.14828         2.75413 
       0.767043         3.06693         2.70493 
       0.773185         3.03126         2.65704 
       0.779291         3.00518         2.61061 
       0.785407         2.94496         2.56523 
       0.791564         2.89716         2.52067 
       0.797719         2.84853         2.47721 
       0.803834         2.80745         2.43506 
       0.809972         2.76083         2.39376 
       0.816124         2.72116         2.35334 
       0.822261         2.68073         2.31397 
       0.828378         2.63753         2.27563 
       0.834502         2.59714         2.23813 
       0.840667         2.56678         2.20123 
       0.846816         2.52013         2.16528 
       0.852925         2.48108         2.13036 
       0.859047         2.44518         2.09615 
       0.865192         2.41144         2.06258 
       0.871341         2.37953         2.02973 
       0.877463         2.33736         1.99776 
       0.883569         2.30843         1.96656 
       0.889708         2.28024         1.93588 
       0.895864         2.24803         1.90579 
       0.902008         2.20888          1.8764 
       0.908149         2.18173         1.84766 
       0.914301          2.1555         1.81948 
       0.920448         2.12925         1.79192 
       0.926574         2.10744         1.76503 
       0.932687          2.0744         1.73876 
       0.938823          2.0354         1.71293 
       0.944975         2.01851         1.68758 
       0.951105         1.97832         1.66283 
       0.957225         1.96045         1.63863 
       0.963368         1.93862         1.61483 
       0.969511         1.91563         1.59151 
       0.975621         1.88492         1.56878 
       0.981748         1.85129         1.54644 
       0.987916         1.83331         1.52439 
        0.99406         1.81684         1.50287 
        1.00019         1.79181         1.48181 
        1.00632         1.77491         1.46117 
        1.01246         1.74915          1.4409 
        1.01859         1.72884         1.42105 
        1.02471         1.69982         1.40161 
        1.03085         1.68045         1.38246 
        1.03698         1.66446         1.36372 
        1.04314         1.64439         1.34524 
        1.04929         1.62781         1.32716 
        1.05541         1.60074         1.30948 
        1.06154          1.5882         1.29209 
        1.06769         1.57208         1.27499 
        1.07382         1.54941         1.25825 
        1.07993         1.53001         1.24186 
        1.08607         1.51615         1.22569 
        1.09222          1.4943          1.2098 
        1.09836         1.48389         1.19421 
        1.10449         1.45815         1.17891 
        1.11063         1.44288         1.16387 
        1.11677         1.43043          1.1491 
         1.1229         1.40885         1.13461 
        1.12903         1.39939         1.12037 
        1.13518         1.37955         1.10635 
        1.14131         1.36713         1.09259 
        1.14745         1.35314         1.07907 
        1.15359         1.33669         1.06578 
        1.15973         1.32241          1.0527 
        1.16584          1.3068         1.03991 
        1.17197         1.29109         1.02731 
        1.17811         1.27735         1.01489 
        1.18424         1.26409         1.00271 
        1.19038         1.24949        0.990693 
        1.19652         1.24007        0.978881 
        1.20267          1.2296        0.967263 
        1.20881         1.21161        0.955838 
        1.21495         1.20112        0.944617 
        1.22108         1.19002         0.93358 
         1.2272         1.17288        0.922746 
        1.23334         1.16409        0.912061 
        1.23949         1.15305        0.901521 
        1.24562         1.14119        0.891178 
        1.25174         1.13103        0.881014 
        1.25789         1.11571         0.87098 
        1.26402         1.10496        0.861121 
        1.27014         1.09157        0.851439 
        1.27628         1.08475        0.841879 
        1.28244         1.07384        0.832448 
        1.28858         1.06108        0.823176 
        1.29471         1.05013        0.814067 
        1.30084         1.04218        0.805105 
        1.30697         1.03458        0.796265 
        1.31312          1.0231        0.787546 
        1.31925         1.01315        0.778986 
        1.32537         1.00468        0.770562 
        1.33151        0.993332        0.762233 
        1.33765        0.984555        0.754034 
        1.34378        0.974252        0.745971 
        1.34992         0.96797        0.738022 
        1.35606          0.9567        0.730172 
         1.3622        0.949269        0.722452 
        1.36833        0.940314        0.714862 
        1.37445        0.931216        0.707385 
        1.38059        0.923137        0.699994 
        1.38675        0.914231        0.692691 
        1.39288        0.906274        0.685522 
        1.39901        0.897895        0.678458 
        1.40515        0.889249        0.671479 
         1.4113        0.884891        0.664602 
        1.41742        0.873935        0.657847 
        1.42355        0.864248        0.651175 
         1.4297        0.859844        0.644575 
        1.43585        0.850665         0.63807 
        1.44198        0.844327        0.631681 
        1.44809        0.836282        0.625391 
        1.45423         0.82974        0.619165 
        1.46036        0.822512        0.613035 
        1.46649        0.813919        0.606987 
        1.47263        0.807838        0.601016 
        1.47877        0.804684        0.595128 
        1.48491        0.792525        0.589311 
        1.49104        0.789252        0.583584 
        1.49718        0.780161        0.577929 
        1.50333        0.774948        0.572341 
        1.50947         0.76977        0.566839 
         1.5156        0.762476        0.561418 
        1.52172        0.756666        0.556067 
        1.52787        0.748758        0.550777 
          1.534        0.745036        0.545562 
        1.54013         0.73814         0.54042 
        1.54627        0.732145        0.535336 
        1.55241        0.725137        0.530316 
        1.55855        0.720038        0.525369 
        1.56467        0.713955        0.520498 
         1.5708        0.708229        0.515676 
        1.57695        0.701932        0.510908 
        1.58308        0.695194        0.506212 
        1.58922         0.69186        0.501572 
        1.59535        0.684858        0.496992 
         1.6015        0.679402        0.492464 
        1.60764        0.674654        0.487994 
        1.61376        0.669193        0.483592 
        1.61989        0.664326        0.479242 
        1.62604        0.657364        0.474935 
        1.63218        0.654864        0.470685 
        1.63831         0.64832        0.466496 
        1.64444        0.644106        0.462357 
        1.65059        0.638849        0.458259 
        1.65673        0.633391        0.454215 
        1.66285        0.629402        0.450232 
        1.66898        0.625124        0.446295 
        1.67512        0.618284        0.442398 
        1.68127        0.613858        0.438544 
         1.6874        0.611163        0.434745 
        1.69353        0.605224        0.430993 
        1.69967        0.601596        0.427277 
        1.70581        0.598002        0.423607 
        1.71193        0.592889        0.419994 
        1.71806        0.589083        0.416416 
        1.72421        0.584278        0.412873 
        1.73035        0.578138        0.409375 
        1.73649        0.577348        0.405918 
        1.74262        0.570593        0.402505 
        1.74876        0.567383        0.399128 
        1.75489        0.563928        0.395798 
        1.76101        0.558406        0.392507 
        1.76715        0.555211        0.389248 
        1.77329        0.551574        0.386023 
        1.77943        0.547294        0.382834 
        1.78557        0.545113        0.379685 
        1.79171        0.540654        0.376571 
        1.79785        0.536442        0.373492 
        1.80399         0.53109        0.370448 
        1.81012        0.528991        0.367442 
        1.81625        0.525555        0.364472 
        1.82239        0.522337        0.361529 
        1.82853         0.51781        0.358621 
        1.83466        0.513929        0.355748 
        1.84078        0.510109        0.352909 
        1.84692        0.507481        0.350098 
        1.85306        0.504748        0.347313 
         1.8592        0.500352        0.344563 
        1.86533        0.497747        0.341845 
        1.87147        0.492765        0.339153 
        1.87761        0.490166        0.336489 
        1.88375        0.487109        0.333857 
        1.88988        0.482984        0.331256 
        1.89601        0.479561        0.328681 
        1.90215         0.47757        0.326132 
        1.90829        0.473558        0.323611 
        1.91442        0.471159        0.321117 
        1.92056        0.468869        0.318651 
         1.9267        0.464678        0.316209 
        1.93284        0.461251        0.313791 
        1.93897        0.458941        0.311404 
        1.94509         0.45658        0.309046 
        1.95123        0.452176        0.306707 
        1.95737        0.449641         0.30439 
        1.96349         0.44668        0.302104 
        1.96964        0.444278        0.299834 
        1.97578         0.44073        0.297587 
        1.98192        0.438706        0.295368 
        1.98805        0.436082        0.293171 
        1.99419        0.433667        0.290996 
        2.00033        0.430821        0.288843 
        2.00647        0.428297        0.286712 
         2.0126        0.425428        0.284606 
        2.01874         0.42287        0.282518 
        2.02488        0.419626         0.28045 
        2.03101        0.417112        0.278406 
        2.03714        0.415787        0.276384 
        2.04328        0.411815         0.27438 
        2.04941        0.409993        0.272398 
        2.05554        0.407445        0.270437 
        2.06167        0.404953        0.268493 
        2.06781        0.401243        0.266568 
        2.07396        0.400458        0.264659 
        2.08009        0.397356        0.262771 
        2.08622        0.395271        0.260905 
        2.09237         0.39301        0.259053 
        2.09851        0.389841        0.257219 
        2.10464        0.388114        0.255406 
        2.11077        0.384522        0.253612 
        2.11691        0.383118        0.251832 
        2.12305        0.381556        0.250069 
        2.12918        0.378551        0.248327 
        2.13531        0.376497        0.246602 
        2.14145         0.37412        0.244889 
         2.1476        0.372277        0.243191 
        2.15372        0.370288        0.241517 
        2.15985         0.36736        0.239857 
        2.16599        0.365931        0.238209 
        2.17213         0.36384        0.236577 
        2.17827        0.360934        0.234962 
         2.1844        0.359952        0.233363 
        2.19054         0.35783        0.231778 
        2.19666        0.355682         0.23021 
         2.2028        0.352928        0.228656 
        2.20893        0.351786        0.227115 
        2.21508        0.349659        0.225587 
        2.22122        0.347956        0.224072 
        2.22736        0.344738        0.222575 
        2.23349        0.342679        0.221091 
        2.23962        0.341516         0.21962 
        2.24577         0.33967        0.218162 
         2.2519        0.338006        0.216719 
        2.25802        0.335976        0.215291 
        2.26417        0.333914        0.213872 
        2.27031        0.332199        0.212465 
        2.27644        0.331489        0.211075 
        2.28257        0.328387        0.209697 
        2.28872        0.327164        0.208329 
        2.29486        0.325102        0.206973 
        2.30099        0.323302        0.205632 
        2.30712         0.32154        0.204303 
        2.31326        0.319805        0.202983 
         2.3194        0.318476        0.201676 
        2.32553        0.316446        0.200383 
        2.33166        0.315262        0.199101 
         2.3378        0.313279        0.197829 
        2.34394        0.311682        0.196567 
        2.35007        0.309601        0.195319 
        2.35619        0.307516        0.194083 
        2.36233        0.306493        0.192854 
        2.36848          0.3051        0.191634 
        2.37462        0.303795        0.190427 
        2.38075        0.301915        0.189232 
        2.38689        0.300643        0.188046 
        2.39303        0.298898         0.18687 
        2.39916        0.297088        0.185705 
        2.40529        0.295929        0.184551 
        2.41143        0.293865        0.183406 
        2.41757        0.292521         0.18227 
         2.4237         0.29116        0.181145 
        2.42983         0.28976        0.180031 
        2.43598        0.288327        0.178922 
        2.44211        0.286156        0.177825 
        2.44823        0.285499         0.17674 
        2.45437        0.284309        0.175661 
        2.46052        0.282622         0.17459 
        2.46665        0.280936         0.17353 
        2.47279        0.279584        0.172479 
        2.47892        0.278498        0.171436 
        2.48507        0.277071          0.1704 
         2.4912        0.275673        0.169376 
