# k  (h/Mpc)    Pcb(k)  (Mpc/h)^3    Pcb_linear(k)  (Mpc/h)^3
     0.00783031          7210.2         7256.87 
       0.013688         8673.95         8841.67 
       0.019231         8676.06         8763.03 
      0.0249154         7890.31         7867.63 
      0.0312784         6525.79          6548.4 
      0.0375637         5312.71         5354.93 
      0.0433917         4523.76         4517.25 
      0.0492413         3934.94         3950.89 
      0.0555754          3589.9         3576.44 
      0.0619321         3275.16         3340.96 
       0.067871         3128.66         3153.34 
      0.0738098         2922.98         2935.12 
      0.0800417         2650.78         2650.91 
      0.0862327         2324.29          2331.4 
      0.0921407         2036.37         2030.35 
      0.0982031         1794.27         1762.84 
       0.104506         1565.27         1552.37 
       0.110769         1434.77         1413.98 
       0.116806         1372.44         1334.02 
       0.122832         1305.07         1285.18 
       0.129052         1260.97         1243.16 
       0.135211         1221.03         1190.54 
       0.141259         1135.96         1119.19 
       0.147318         1039.83         1030.28 
       0.153489         954.488         932.121 
       0.159709         881.914         838.604 
       0.165845         792.196         761.796 
       0.171974         760.268         704.922 
       0.178125         723.262         666.722 
       0.184229          680.77         642.476 
        0.19034         669.775         624.822 
       0.196428         650.941         607.002 
       0.202534          610.52         584.097 
       0.208729         595.529          554.05 
       0.214876         565.664         519.014 
       0.220989          522.48         482.555 
       0.227147         502.834         448.148 
        0.23329          477.88         419.072 
       0.239377         464.372         396.641 
       0.245482         440.305         380.043 
       0.251667         423.345         367.552 
       0.257832         419.436         357.137 
       0.263955         397.639          346.64 
       0.270079         383.126         334.592 
        0.27624         366.928         320.486 
       0.282372         355.923          304.98 
        0.28843         350.853         289.327 
       0.294538          331.85         274.369 
       0.300721         318.661         261.026 
        0.30691         312.645         249.857 
       0.313033         298.327         240.861 
       0.319153         293.364         233.359 
       0.325316         285.753         226.609 
        0.33145          278.06         219.986 
       0.337538           268.4         213.084 
       0.343633          260.05         205.663 
       0.349808         252.267         197.794 
       0.355968          246.32         189.885 
       0.362074         239.342         182.378 
       0.368217         235.347          175.45 
       0.374374         229.251         169.266 
       0.380519         219.713         163.858 
       0.386598         216.025         159.076 
       0.392688          209.99         154.656 
        0.39888         205.656         150.317 
       0.405048         201.181         145.974 
       0.411186         198.716         141.589 
       0.417313         194.262         137.155 
       0.423458         189.133         132.739 
       0.429607         184.494         128.474 
       0.435692         181.389         124.491 
       0.441815         176.999         120.764 
       0.447964         171.935         117.325 
       0.454126         169.044         114.134 
       0.460267         167.248         111.133 
       0.466387         163.325          108.26 
        0.47254         161.476         105.436 
       0.478662         156.227         102.651 
       0.484765         154.123         99.8995 
       0.490885         151.203         97.1942 
       0.497035         149.608         94.5554 
       0.503198         147.127         92.0149 
       0.509342         143.237         89.6046 
       0.515458         141.292         87.3394 
       0.521598         137.836         85.1853 
       0.527764         136.493         83.1174 
       0.533884         135.686         81.1384 
           0.54         132.102         79.2192 
       0.546137         129.129         77.3414 
       0.552299         127.406         75.4949 
       0.558452         125.161         73.6909 
       0.564573         124.586         71.9437 
       0.570708         121.172         70.2511 
       0.576825         119.798          68.629 
       0.582926         118.476         67.0745 
       0.589034         116.486         65.5762 
       0.595184         115.235         64.1212 
       0.601379         112.727         62.7053 
       0.607522         110.603         61.3449 
       0.613639         109.765         60.0289 
       0.619772         108.021         58.7433 
       0.625918         107.257         57.4861 
       0.632068         104.904         56.2601 
       0.638161         103.642         55.0789 
         0.6443         103.012         53.9247 
       0.650464         100.842         52.8039 
       0.656582         100.411         51.7275 
       0.662703         99.1209         50.6844 
       0.668861         97.0217         49.6657 
       0.675024         96.9897         48.6743 
       0.681124         95.3414         47.7189 
       0.687237         93.8086         46.7858 
       0.693381         92.9626         45.8724 
       0.699536         91.8725         44.9814 
       0.705665         90.7333         44.1181 
       0.711789         89.5311          43.279 
       0.717957          88.385         42.4567 
        0.72409          87.622          41.661 
       0.730186         87.1695         40.8911 
       0.736317         85.7137         40.1368 
       0.742472         84.4842         39.3989 
       0.748622          83.268         38.6805 
        0.75476         83.1074         37.9815 
       0.760888           82.47          37.301 
       0.767043         80.8075         36.6346 
       0.773185         79.8304         35.9861 
       0.779291         78.9947         35.3571 
       0.785407         78.2212         34.7426 
       0.791564         77.9271         34.1391 
       0.797719         76.7694         33.5504 
       0.803834         76.3012         32.9797 
       0.809972         75.6386         32.4203 
       0.816124         74.6424         31.8728 
       0.822261         73.7144         31.3396 
       0.828378         73.5498         30.8203 
       0.834502         72.5512         30.3124 
       0.840667         72.0436         29.8127 
       0.846816         71.3716         29.3258 
       0.852925          70.472         28.8529 
       0.859047         70.2831         28.3895 
       0.865192         69.2898         27.9349 
       0.871341         68.5384           27.49 
       0.877463         68.0058         27.0569 
       0.883569         67.8907         26.6344 
       0.889708         67.1743         26.2189 
       0.895864         66.6353         25.8113 
       0.902008         65.9361         25.4133 
       0.908149         65.1229          25.024 
       0.914301         64.8686         24.6423 
       0.920448         64.6983         24.2691 
       0.926574          63.391          23.905 
       0.932687         63.1502         23.5491 
       0.938823         62.6478         23.1994 
       0.944975         61.8999          22.856 
       0.951105         61.4276         22.5208 
       0.957225         61.1967          22.193 
       0.963368          60.619         21.8707 
       0.969511         60.1612         21.5548 
       0.975621         59.6324          21.247 
       0.981748         59.1192         20.9444 
       0.987916          58.637         20.6458 
        0.99406          58.369         20.3543 
        1.00019         57.6531         20.0691 
        1.00632         57.2477         19.7896 
        1.01246         56.8931          19.515 
        1.01859         56.6443         19.2462 
        1.02471         56.0525         18.9828 
        1.03085         55.6365         18.7235 
        1.03698         55.3311         18.4697 
        1.04314         54.8692         18.2195 
        1.04929         54.4066         17.9746 
        1.05541         54.1527         17.7352 
        1.06154         53.7822         17.4996 
        1.06769         53.2173         17.2679 
        1.07382         52.7752         17.0413 
        1.07993         52.6243         16.8193 
        1.08607         52.1787         16.6003 
        1.09222         51.9582         16.3851 
        1.09836         51.5378         16.1739 
        1.10449         51.2567         15.9668 
        1.11063         50.8142         15.7631 
        1.11677         50.6495          15.563 
         1.1229         50.1282         15.3668 
        1.12903         49.9204         15.1738 
        1.13518         49.7553          14.984 
        1.14131         49.2305         14.7976 
        1.14745         48.9064         14.6145 
        1.15359         48.3639         14.4345 
        1.15973         48.3769         14.2574 
        1.16584         47.9877         14.0842 
        1.17197         47.4845         13.9136 
        1.17811          47.308         13.7453 
        1.18424          46.677         13.5803 
        1.19038         46.6008         13.4176 
        1.19652         46.4016         13.2576 
        1.20267         46.0735         13.1003 
        1.20881          45.774         12.9455 
        1.21495         45.5938         12.7935 
        1.22108         45.4824         12.6441 
         1.2272         44.9502         12.4973 
        1.23334         44.7672         12.3526 
        1.23949         44.4657         12.2099 
        1.24562         44.1749         12.0698 
        1.25174         43.9223         11.9321 
        1.25789         43.7945         11.7962 
        1.26402         43.4676         11.6627 
        1.27014         43.3334         11.5316 
        1.27628         42.8594         11.4021 
        1.28244         42.8739         11.2744 
        1.28858         42.4786         11.1488 
        1.29471         42.1723         11.0254 
        1.30084         41.8629          10.904 
        1.30697         41.8948         10.7843 
        1.31312         41.5098         10.6662 
        1.31925         41.1773         10.5503 
        1.32537          40.984         10.4362 
        1.33151         40.7257         10.3234 
        1.33765         40.6114         10.2123 
        1.34378         40.4032         10.1032 
        1.34992         40.1053         9.99549 
        1.35606         39.7959         9.88918 
         1.3622         39.6836         9.78461 
        1.36833         39.5341         9.68181 
        1.37445         39.1158         9.58056 
        1.38059         39.0345         9.48045 
        1.38675          38.697         9.38154 
        1.39288         38.6382         9.28445 
        1.39901         38.3318         9.18878 
        1.40515         38.2118         9.09426 
         1.4113         38.1357         9.00111 
        1.41742         37.8466         8.90963 
        1.42355         37.5694         8.81926 
         1.4297         37.4519         8.72988 
        1.43585         37.2216         8.64178 
        1.44198         36.9576         8.55524 
        1.44809         36.7471         8.47006 
        1.45423         36.6562         8.38573 
        1.46036         36.5157         8.30271 
        1.46649         36.2585         8.22079 
        1.47263         36.0518         8.13992 
        1.47877         35.9024         8.06019 
        1.48491         35.7301          7.9814 
        1.49104         35.4729         7.90384 
        1.49718         35.4047         7.82725 
        1.50333         35.2387         7.75157 
        1.50947         34.9923         7.67705 
         1.5156         34.8622         7.60362 
        1.52172         34.6108         7.53116 
        1.52787          34.523         7.45951 
          1.534         34.2583         7.38888 
        1.54013         34.2935         7.31924 
        1.54627         33.9611         7.25038 
        1.55241         33.7962          7.1824 
        1.55855         33.6947         7.11539 
        1.56467         33.4572         7.04943 
         1.5708         33.3949         6.98412 
        1.57695         33.2337         6.91955 
        1.58308         32.9415         6.85594 
        1.58922         32.8315          6.7931 
        1.59535         32.7255         6.73107 
         1.6015         32.6745         6.66974 
        1.60764         32.3933          6.6092 
        1.61376         32.2332         6.54959 
        1.61989         32.0103         6.49066 
        1.62604         31.9074         6.43234 
        1.63218         31.7175         6.37477 
        1.63831          31.649         6.31804 
        1.64444         31.4998         6.26198 
        1.65059         31.3222         6.20648 
        1.65673         31.1986         6.15171 
        1.66285         31.1182         6.09776 
        1.66898         30.8967         6.04444 
        1.67512         30.8129         5.99166 
        1.68127         30.6343         5.93947 
         1.6874         30.4989         5.88801 
        1.69353         30.4011          5.8372 
        1.69967         30.2705         5.78688 
        1.70581          30.067         5.73717 
        1.71193         29.9342         5.68824 
        1.71806          29.845         5.63977 
        1.72421         29.7074         5.59178 
        1.73035         29.5443         5.54441 
        1.73649         29.3562         5.49759 
        1.74262         29.2029         5.45136 
        1.74876         29.2345         5.40563 
        1.75489         29.0011         5.36053 
        1.76101         28.9032         5.31595 
        1.76715          28.771         5.27182 
        1.77329         28.5506         5.22815 
        1.77943         28.5248         5.18495 
        1.78557         28.4323          5.1423 
        1.79171           28.29         5.10013 
        1.79785         28.1586         5.05843 
        1.80399         28.0128          5.0172 
        1.81012         27.9581         4.97649 
        1.81625         27.7004         4.93626 
        1.82239         27.6279         4.89641 
        1.82853         27.5208         4.85702 
        1.83466         27.3899         4.81811 
        1.84078         27.2453         4.77966 
        1.84692         27.1469         4.74158 
        1.85306         26.9965         4.70387 
         1.8592         26.9754         4.66663 
        1.86533           26.82         4.62981 
        1.87147         26.6812         4.59335 
        1.87761         26.5429         4.55727 
        1.88375         26.4753         4.52162 
        1.88988         26.3663         4.48639 
        1.89601         26.2001         4.45152 
        1.90215         26.1093           4.417 
        1.90829         26.0453         4.38286 
        1.91442         25.8798         4.34908 
        1.92056         25.8003         4.31568 
         1.9267         25.7196         4.28261 
        1.93284         25.6154         4.24986 
        1.93897         25.5231         4.21752 
        1.94509         25.3854         4.18559 
        1.95123         25.2976         4.15391 
        1.95737          25.158         4.12253 
        1.96349         25.1099         4.09157 
        1.96964         25.0133         4.06083 
        1.97578         24.8255          4.0304 
        1.98192         24.7433         4.00034 
        1.98805         24.6104         3.97058 
        1.99419         24.5458         3.94113 
        2.00033         24.4188         3.91197 
        2.00647          24.377          3.8831 
         2.0126         24.2061         3.85458 
        2.01874         24.1428         3.82631 
        2.02488         23.9988         3.79829 
        2.03101         23.8898         3.77061 
        2.03714         23.8413         3.74323 
        2.04328         23.7294         3.71609 
        2.04941         23.6141         3.68925 
        2.05554         23.5524         3.66269 
        2.06167         23.4486         3.63636 
        2.06781         23.3734         3.61028 
        2.07396         23.2699         3.58443 
        2.08009         23.1341         3.55887 
        2.08622         23.0853         3.53359 
        2.09237         23.0146         3.50851 
        2.09851         22.8974         3.48367 
        2.10464         22.7452         3.45911 
        2.11077         22.7329         3.43482 
        2.11691         22.6034         3.41071 
        2.12305         22.5328         3.38683 
        2.12918         22.4294         3.36324 
        2.13531         22.3724         3.33987 
        2.14145         22.2613         3.31668 
         2.1476          22.129         3.29367 
        2.15372         22.1094           3.271 
        2.15985         21.9779         3.24853 
        2.16599         21.8673          3.2262 
        2.17213         21.8141          3.2041 
        2.17827         21.7128         3.18222 
         2.1844         21.6332         3.16056 
        2.19054         21.6096          3.1391 
        2.19666         21.4574         3.11787 
         2.2028         21.4427         3.09682 
        2.20893         21.3082         3.07595 
        2.21508         21.2234         3.05525 
        2.22122         21.1271         3.03474 
        2.22736         21.0947         3.01446 
        2.23349         20.9542         2.99436 
        2.23962         20.9015         2.97445 
        2.24577         20.8017         2.95469 
         2.2519         20.7338         2.93515 
        2.25802         20.6076         2.91581 
        2.26417         20.5589          2.8966 
        2.27031         20.4769         2.87754 
        2.27644         20.4255          2.8587 
        2.28257          20.338         2.84004 
        2.28872         20.3074         2.82151 
        2.29486         20.1971         2.80316 
        2.30099         20.0766           2.785 
        2.30712           20.04         2.76699 
        2.31326         19.9228         2.74912 
         2.3194          19.871         2.73141 
        2.32553         19.8131         2.71389 
        2.33166         19.6993         2.69654 
         2.3378         19.6474         2.67931 
        2.34394         19.5585         2.66222 
        2.35007         19.5031         2.64531 
        2.35619         19.4648         2.62857 
        2.36233         19.2944         2.61194 
        2.36848         19.2574         2.59541 
        2.37462         19.2221         2.57906 
        2.38075         19.1445         2.56287 
        2.38689         19.0195         2.54681 
        2.39303          18.978         2.53088 
        2.39916         18.8764         2.51511 
        2.40529         18.8484         2.49948 
        2.41143          18.731         2.48397 
        2.41757         18.6417         2.46858 
         2.4237         18.6103         2.45335 
        2.42983         18.5393         2.43826 
        2.43598         18.4476         2.42325 
        2.44211         18.4049         2.40839 
        2.44823         18.3016         2.39369 
        2.45437         18.2883         2.37907 
        2.46052         18.1935         2.36457 
        2.46665         18.1553         2.35021 
        2.47279         18.0483         2.33598 
        2.47892         17.9813         2.32185 
        2.48507         17.9334         2.30783 
         2.4912         17.8496         2.29395 
