# k  (h/Mpc)    Pcb(k)  (Mpc/h)^3    Pcb_linear(k)  (Mpc/h)^3
     0.00783031         1377.69         1391.69 
       0.013688         1661.71         1662.97 
       0.019231         1647.25          1646.5 
      0.0249154         1489.72         1497.89 
      0.0312784         1283.46          1284.1 
      0.0375637         1094.72         1091.47 
      0.0433917         951.992         953.403 
      0.0492413         854.959         853.925 
      0.0555754         773.502         777.464 
      0.0619321         719.613         716.172 
       0.067871         658.035         660.422 
      0.0738098          598.36         600.684 
      0.0800417         531.442         534.829 
      0.0862327         470.931         471.637 
      0.0921407         419.597         418.887 
      0.0982031         375.299         375.712 
       0.104506         345.609         342.798 
       0.110769         321.687         319.585 
       0.116806         302.459         302.349 
       0.122832         287.878         286.505 
       0.129052         268.612         268.966 
       0.135211         249.455         249.598 
       0.141259         230.911         229.477 
       0.147318         212.412         209.897 
       0.153489         194.001         192.204 
       0.159709         179.872         177.664 
       0.165845         170.194         166.608 
       0.171974         160.173          158.13 
       0.178125         153.402         151.104 
       0.184229         147.117         144.528 
        0.19034         138.618          137.61 
       0.196428         132.409         130.148 
       0.202534         125.751          122.31 
       0.208729         117.396         114.486 
       0.214876         109.753         107.354 
       0.220989         104.694          101.21 
       0.227147         98.5439         96.0498 
        0.23329          94.286         91.7689 
       0.239377         90.9794         88.0892 
       0.245482         86.5882         84.6488 
       0.251667         84.0712         81.1754 
       0.257832         80.4574         77.6159 
       0.263955         76.9144          74.015 
       0.270079         73.4384         70.4603 
        0.27624         70.7423         67.0759 
       0.282372         67.6694         64.0051 
        0.28843           64.62          61.303 
       0.294538         62.0991         58.8901 
       0.300721          60.407         56.6896 
        0.30691         57.8076           54.64 
       0.313033         55.9054         52.6812 
       0.319153         53.3022         50.7495 
       0.325316         52.2156         48.8191 
        0.33145         50.1197         46.9371 
       0.337538         48.5096         45.1399 
       0.343633         46.6319         43.4453 
       0.349808         45.1884         41.8524 
       0.355968         43.7628         40.3869 
       0.362074         42.3078         39.0407 
       0.368217         41.0327         37.7671 
       0.374374         39.6781         36.5485 
       0.380519         38.6314         35.3705 
       0.386598         37.5331         34.2351 
       0.392688         36.6007         33.1292 
        0.39888         35.4159         32.0422 
       0.405048         34.4651         31.0066 
       0.411186         33.5498         30.0287 
       0.417313         32.4162         29.1051 
       0.423458         31.5631         28.2297 
       0.429607         30.6592         27.3978 
       0.435692         29.7316         26.6101 
       0.441815         29.1069         25.8471 
       0.447964         28.5523         25.1067 
       0.454126         27.4669          24.388 
       0.460267         26.9065         23.6957 
       0.466387         26.0646         23.0312 
        0.47254         25.5956         22.3896 
       0.478662         25.0885         21.7777 
       0.484765         24.3177         21.1937 
       0.490885         23.7357         20.6326 
       0.497035         23.4086         20.0907 
       0.503198         22.7602         19.5675 
       0.509342          22.182         19.0637 
       0.515458         21.6678          18.579 
       0.521598         21.2518         18.1082 
       0.527764         20.7442         17.6509 
       0.533884         20.3777         17.2125 
           0.54         19.9066         16.7899 
       0.546137          19.539          16.381 
       0.552299         19.1813          15.985 
       0.558452         18.5867         15.6032 
       0.564573         18.3168          15.236 
       0.570708         17.9643           14.88 
       0.576825         17.4996         14.5363 
       0.582926         17.1783         14.2043 
       0.589034         16.7096          13.882 
       0.595184          16.466         13.5674 
       0.601379         16.1122         13.2605 
       0.607522         15.8554         12.9657 
       0.613639         15.6497         12.6814 
       0.619772         15.2244         12.4051 
       0.625918         15.1047         12.1368 
       0.632068         14.8498         11.8763 
       0.638161         14.4941         11.6259 
         0.6443         14.1944         11.3808 
       0.650464          13.916         11.1419 
       0.656582          13.804         10.9115 
       0.662703         13.5391         10.6877 
       0.668861          13.284         10.4689 
       0.675024         13.0218         10.2562 
       0.681124         12.7932         10.0516 
       0.687237         12.5903         9.85219 
       0.693381         12.4303         9.65733 
       0.699536         12.0912         9.46744 
       0.705665         11.9804         9.28351 
       0.711789         11.7605         9.10466 
       0.717957         11.5676         8.92934 
        0.72409         11.3756         8.75964 
       0.730186         11.2168         8.59541 
       0.736317         11.0907         8.43453 
       0.742472         10.9073         8.27721 
       0.748622         10.7393         8.12408 
        0.75476         10.5225         7.97518 
       0.760888         10.3833         7.83025 
       0.767043          10.255         7.68838 
       0.773185         10.0488         7.55034 
       0.779291          9.9703         7.41649 
       0.785407          9.8144         7.28571 
       0.791564         9.65626         7.15728 
       0.797719         9.47238         7.03203 
       0.803834         9.41667         6.91059 
       0.809972          9.3151         6.79159 
       0.816124         9.11277         6.67516 
       0.822261          8.9784         6.56179 
       0.828378         8.86984          6.4514 
       0.834502         8.79358         6.34347 
       0.840667          8.6326         6.23733 
       0.846816         8.48379         6.13394 
       0.852925         8.40674         6.03354 
       0.859047         8.29867          5.9352 
       0.865192         8.22032         5.83874 
       0.871341         8.13076         5.74437 
       0.877463         7.99548         5.65252 
       0.883569          7.8686         5.56292 
       0.889708         7.74107         5.47482 
       0.895864         7.67203          5.3884 
       0.902008         7.59054         5.30405 
       0.908149          7.5072         5.22155 
       0.914301         7.40065         5.14069 
       0.920448         7.28929         5.06163 
       0.926574         7.19977         4.98451 
       0.932687         7.12736         4.90917 
       0.938823         7.03232         4.83512 
       0.944975         6.94061         4.76244 
       0.951105         6.87222         4.69153 
       0.957225         6.83476         4.62218 
       0.963368         6.73921         4.55401 
       0.969511         6.65793         4.48722 
       0.975621         6.57261         4.42213 
       0.981748         6.50175         4.35818 
       0.987916          6.4398         4.29509 
        0.99406         6.33354         4.23349 
        1.00019         6.24605         4.17323 
        1.00632         6.22159          4.1142 
        1.01246         6.14635         4.05622 
        1.01859         6.05961         3.99947 
        1.02471         6.00598         3.94387 
        1.03085         5.93891         3.88914 
        1.03698         5.85833         3.83557 
        1.04314          5.8149         3.78279 
        1.04929         5.74051         3.73113 
        1.05541         5.67271         3.68064 
        1.06154          5.6261         3.63096 
        1.06769         5.59506         3.58213 
        1.07382         5.50191         3.53435 
        1.07993         5.44413         3.48756 
        1.08607         5.41107         3.44143 
        1.09222         5.35051         3.39609 
        1.09836          5.2945         3.35161 
        1.10449         5.24131         3.30799 
        1.11063         5.18526          3.2651 
        1.11677          5.1482         3.22299 
         1.1229         5.10003          3.1817 
        1.12903         5.03709         3.14109 
        1.13518         4.98476         3.10117 
        1.14131         4.92681         3.06196 
        1.14745         4.87026         3.02345 
        1.15359         4.84292          2.9856 
        1.15973         4.78811         2.94839 
        1.16584         4.73557         2.91197 
        1.17197         4.69499         2.87613 
        1.17811         4.66738         2.84078 
        1.18424         4.62313         2.80612 
        1.19038         4.59227         2.77195 
        1.19652         4.54061         2.73836 
        1.20267         4.49239         2.70533 
        1.20881         4.46449         2.67285 
        1.21495         4.42241         2.64096 
        1.22108         4.37567          2.6096 
         1.2272         4.34916         2.57882 
        1.23334         4.29268         2.54846 
        1.23949         4.25266         2.51853 
        1.24562         4.23094         2.48916 
        1.25174          4.1826          2.4603 
        1.25789         4.15394         2.43181 
        1.26402         4.11853         2.40383 
        1.27014         4.08019         2.37635 
        1.27628           4.048         2.34923 
        1.28244         3.99884         2.32247 
        1.28858         3.98547         2.29617 
        1.29471         3.93761         2.27034 
        1.30084         3.90008         2.24492 
        1.30697         3.89765         2.21986 
        1.31312         3.82535         2.19515 
        1.31925         3.80688         2.17089 
        1.32537         3.77401         2.14702 
        1.33151         3.75782         2.12342 
        1.33765         3.70776         2.10019 
        1.34378         3.68461         2.07736 
        1.34992         3.66592         2.05485 
        1.35606         3.61599         2.03262 
         1.3622         3.60281         2.01077 
        1.36833         3.57127         1.98929 
        1.37445         3.54224         1.96813 
        1.38059         3.52811         1.94722 
        1.38675         3.50134         1.92656 
        1.39288         3.46912         1.90628 
        1.39901         3.43049         1.88631 
        1.40515         3.40864         1.86658 
         1.4113           3.386         1.84714 
        1.41742         3.36216         1.82804 
        1.42355         3.33434         1.80919 
         1.4297         3.30599         1.79054 
        1.43585         3.29174         1.77217 
        1.44198         3.27178         1.75412 
        1.44809          3.2363         1.73636 
        1.45423         3.21066         1.71878 
        1.46036         3.18366         1.70147 
        1.46649         3.16297          1.6844 
        1.47263         3.13746         1.66755 
        1.47877         3.11142         1.65094 
        1.48491         3.09161         1.63452 
        1.49104         3.07395         1.61837 
        1.49718         3.05183         1.60242 
        1.50333         3.03253         1.58666 
        1.50947         3.00825         1.57115 
         1.5156         2.98638         1.55586 
        1.52172         2.96735         1.54078 
        1.52787          2.9482         1.52587 
          1.534         2.92271         1.51117 
        1.54013          2.9077         1.49669 
        1.54627         2.88044         1.48236 
        1.55241         2.85966         1.46822 
        1.55855         2.84749         1.45429 
        1.56467         2.82859         1.44057 
         1.5708         2.80516           1.427 
        1.57695         2.78359         1.41357 
        1.58308         2.76314         1.40036 
        1.58922         2.75361          1.3873 
        1.59535         2.73377         1.37441 
         1.6015         2.71287         1.36167 
        1.60764         2.69665          1.3491 
        1.61376         2.68109         1.33672 
        1.61989         2.66095         1.32448 
        1.62604         2.64128         1.31237 
        1.63218         2.63428         1.30042 
        1.63831         2.60937         1.28865 
        1.64444         2.59308         1.27702 
        1.65059         2.57504          1.2655 
        1.65673         2.56361         1.25414 
        1.66285         2.54155         1.24295 
        1.66898         2.52882         1.23189 
        1.67512         2.50762         1.22095 
        1.68127         2.49395         1.21013 
         1.6874          2.4865         1.19946 
        1.69353         2.45686         1.18893 
        1.69967         2.44652          1.1785 
        1.70581         2.43814         1.16821 
        1.71193         2.41841         1.15807 
        1.71806         2.40809         1.14803 
        1.72421         2.39192         1.13809 
        1.73035         2.37825         1.12828 
        1.73649         2.36126         1.11859 
        1.74262         2.34667         1.10902 
        1.74876         2.33851         1.09955 
        1.75489          2.3189         1.09022 
        1.76101         2.30225         1.08099 
        1.76715         2.29382         1.07186 
        1.77329         2.28252         1.06282 
        1.77943         2.25991         1.05389 
        1.78557         2.25165         1.04507 
        1.79171         2.24201         1.03635 
        1.79785         2.22399         1.02772 
        1.80399         2.21241          1.0192 
        1.81012         2.20272         1.01078 
        1.81625         2.18831         1.00247 
        1.82239          2.1735        0.994232 
        1.82853         2.15722        0.986093 
        1.83466         2.15271        0.978053 
        1.84078         2.13924        0.970111 
        1.84692         2.12959        0.962244 
        1.85306         2.11191        0.954455 
         1.8592         2.09937        0.946764 
        1.86533         2.08842        0.939163 
        1.87147         2.08131        0.931636 
        1.87761         2.06685        0.924188 
        1.88375         2.05368        0.916831 
        1.88988         2.04464        0.909561 
        1.89601         2.03188        0.902366 
        1.90215         2.01736        0.895244 
        1.90829         2.00536        0.888201 
        1.91442         2.00036        0.881234 
        1.92056         1.98636        0.874348 
         1.9267         1.97673        0.867528 
        1.93284         1.97004        0.860777 
        1.93897         1.95798         0.85411 
        1.94509         1.94419        0.847529 
        1.95123         1.93224           0.841 
        1.95737         1.92199        0.834535 
        1.96349          1.9153        0.828155 
        1.96964         1.90789        0.821823 
        1.97578         1.89268        0.815555 
        1.98192         1.88505        0.809364 
        1.98805         1.87474        0.803237 
        1.99419         1.86715        0.797173 
        2.00033         1.86071        0.791169 
        2.00647         1.84567        0.785228 
         2.0126         1.83954        0.779358 
        2.01874         1.82468        0.773539 
        2.02488         1.81988        0.767774 
        2.03101         1.80471        0.762079 
        2.03714         1.79759        0.756446 
        2.04328         1.79036        0.750864 
        2.04941         1.77686        0.745343 
        2.05554         1.77216        0.739882 
        2.06167         1.76279        0.734467 
        2.06781         1.75652        0.729106 
        2.07396         1.74693        0.723791 
        2.08009         1.73728        0.718538 
        2.08622         1.72707        0.713342 
        2.09237         1.72027        0.708188 
        2.09851         1.71119        0.703085 
        2.10464          1.7071        0.698039 
        2.11077         1.69515         0.69305 
        2.11691         1.68677        0.688098 
        2.12305         1.68066        0.683194 
        2.12918         1.67288         0.67835 
        2.13531         1.66383        0.673552 
        2.14145         1.65516        0.668789 
         2.1476         1.64494        0.664067 
        2.15372         1.63808        0.659414 
        2.15985         1.63005        0.654802 
        2.16599         1.62442         0.65022 
        2.17213         1.61225        0.645686 
        2.17827         1.60815        0.641197 
         2.1844         1.60152        0.636755 
        2.19054         1.59516        0.632353 
        2.19666         1.58579        0.627999 
         2.2028         1.57783        0.623682 
        2.20893         1.57136        0.619403 
        2.21508         1.56502         0.61516 
        2.22122         1.55394        0.610955 
        2.22736         1.54767        0.606798 
        2.23349         1.54418         0.60268 
        2.23962          1.5335        0.598599 
        2.24577         1.52907        0.594552 
         2.2519         1.52009        0.590548 
        2.25802         1.51593        0.586587 
        2.26417          1.5086        0.582651 
        2.27031         1.50156        0.578748 
        2.27644         1.49502        0.574892 
        2.28257         1.48691        0.571071 
        2.28872         1.48166        0.567278 
        2.29486         1.47384         0.56352 
        2.30099         1.46695        0.559804 
        2.30712         1.45946        0.556119 
        2.31326         1.45648        0.552461 
         2.3194         1.44922        0.548839 
        2.32553         1.44393        0.545255 
        2.33166         1.43497        0.541704 
         2.3378         1.42901         0.53818 
        2.34394         1.42215        0.534686 
        2.35007         1.41623        0.531228 
        2.35619         1.41312        0.527805 
        2.36233         1.40378        0.524404 
        2.36848          1.3986        0.521026 
        2.37462          1.3939        0.517684 
        2.38075         1.38672        0.514375 
        2.38689          1.3825        0.511093 
        2.39303         1.37493        0.507839 
        2.39916         1.36944        0.504617 
        2.40529         1.36421        0.501423 
        2.41143         1.35687        0.498255 
        2.41757         1.35223        0.495112 
         2.4237         1.34897        0.492003 
        2.42983         1.33938         0.48892 
        2.43598         1.33785        0.485855 
        2.44211         1.33048        0.482822 
        2.44823         1.32518        0.479822 
        2.45437         1.31985        0.476838 
        2.46052         1.31555        0.473878 
        2.46665         1.30924        0.470948 
        2.47279         1.30313        0.468044 
        2.47892         1.29803        0.465162 
        2.48507         1.29405        0.462301 
         2.4912         1.28622        0.459471 
