# k  (h/Mpc)    P(k)  (Mpc/h)^3    P_linear(k)  (Mpc/h)^3
     0.00783031         12005.5         12180.2 
       0.013688           14630         14523.9 
       0.019231         14393.8         14366.6 
      0.0249154         12834.1         13062.7 
      0.0312784         11102.1         11194.2 
      0.0375637         9524.63         9512.66 
      0.0433917         8193.44         8308.07 
      0.0492413         7402.81         7440.37 
      0.0555754         6602.96         6773.55 
      0.0619321         6261.65         6239.12 
       0.067871         5630.97         5753.15 
      0.0738098         5127.48         5232.54 
      0.0800417         4530.21         4658.72 
      0.0862327         4052.91         4108.16 
      0.0921407          3663.1          3648.6 
      0.0982031         3269.48         3272.47 
       0.104506         3068.75         2985.74 
       0.110769         2850.55         2783.52 
       0.116806         2680.45         2633.36 
       0.122832         2549.35         2495.34 
       0.129052         2352.32         2342.56 
       0.135211         2202.36         2173.86 
       0.141259         2075.16         1998.61 
       0.147318         1930.98         1828.06 
       0.153489         1762.38         1673.96 
       0.159709         1662.09         1547.31 
       0.165845         1594.39         1451.02 
       0.171974         1507.54         1377.18 
       0.178125         1438.49         1315.98 
       0.184229          1378.4         1258.71 
        0.19034         1290.06         1198.45 
       0.196428         1257.44         1133.46 
       0.202534         1205.57          1065.2 
       0.208729         1139.91         997.052 
       0.214876         1081.41         934.936 
       0.220989         1043.04         881.431 
       0.227147         994.241         836.492 
        0.23329         954.804         799.208 
       0.239377         935.703         767.161 
       0.245482         874.196         737.198 
       0.251667         866.514         706.947 
       0.257832          832.04         675.946 
       0.263955         802.724         644.586 
       0.270079         771.837         613.627 
        0.27624          761.39         584.152 
       0.282372         729.382         557.409 
        0.28843         715.114         533.875 
       0.294538         679.086         512.863 
       0.300721         675.479         493.699 
        0.30691         645.241         475.848 
       0.313033         632.335         458.788 
       0.319153         614.929         441.968 
       0.325316         596.029         425.154 
        0.33145         579.249         408.763 
       0.337538         570.507         393.113 
       0.343633         553.037         378.354 
       0.349808         533.816         364.482 
       0.355968         529.525         351.719 
       0.362074         520.693         339.995 
       0.368217         505.771         328.903 
       0.374374         484.471         318.292 
       0.380519         482.153         308.032 
       0.386598         469.572         298.144 
       0.392688         466.811         288.513 
        0.39888         453.097         279.046 
       0.405048         443.915         270.028 
       0.411186         436.327         261.511 
       0.417313         427.765         253.467 
       0.423458           419.8         245.844 
       0.429607         412.356         238.599 
       0.435692         402.201         231.739 
       0.441815         398.813         225.094 
       0.447964         390.535         218.647 
       0.454126         380.534         212.387 
       0.460267         374.346         206.358 
       0.466387         369.997         200.572 
        0.47254         362.638         194.984 
       0.478662         361.603         189.655 
       0.484765         349.449         184.569 
       0.490885         346.058         179.683 
       0.497035         339.897         174.964 
       0.503198         334.384         170.407 
       0.509342         331.803          166.02 
       0.515458         327.948         161.799 
       0.521598         320.555         157.698 
       0.527764          315.32         153.716 
       0.533884         312.877         149.898 
           0.54         308.366         146.218 
       0.546137         307.009         142.657 
       0.552299         300.522         139.208 
       0.558452         298.733         135.883 
       0.564573         294.249         132.685 
       0.570708         288.704         129.584 
       0.576825          283.69         126.592 
       0.582926         281.434           123.7 
       0.589034         278.798         120.893 
       0.595184         276.086         118.154 
       0.601379         272.561         115.481 
       0.607522         268.134         112.914 
       0.613639         266.648         110.438 
       0.619772         260.658         108.032 
       0.625918         259.548         105.695 
       0.632068         255.569         103.427 
       0.638161         254.468         101.246 
         0.6443         250.221         99.1112 
       0.650464         247.847         97.0305 
       0.656582         245.997         95.0247 
       0.662703         244.636         93.0753 
       0.668861         240.203         91.1702 
       0.675024         237.483         89.3175 
       0.681124         236.289         87.5356 
       0.687237         233.392         85.7992 
       0.693381         229.856         84.1022 
       0.699536         228.059         82.4485 
       0.705665         226.304         80.8467 
       0.711789         223.977         79.2892 
       0.717957         222.821         77.7624 
        0.72409         220.235         76.2845 
       0.730186         217.761         74.8543 
       0.736317         215.372         73.4533 
       0.742472         214.291         72.0832 
       0.748622         212.378         70.7496 
        0.75476         210.518         69.4529 
       0.760888         207.875         68.1908 
       0.767043         207.754         66.9553 
       0.773185         205.339         65.7532 
       0.779291         201.539         64.5875 
       0.785407         201.073         63.4486 
       0.791564         199.085         62.3301 
       0.797719         196.602         61.2393 
       0.803834         195.557         60.1817 
       0.809972         194.354         59.1455 
       0.816124         194.021         58.1315 
       0.822261          191.43         57.1441 
       0.828378         189.666         56.1828 
       0.834502         189.298         55.2429 
       0.840667         186.536         54.3186 
       0.846816         185.053         53.4181 
       0.852925         184.378         52.5439 
       0.859047         182.525         51.6875 
       0.865192         180.743         50.8474 
       0.871341         179.226         50.0256 
       0.877463         177.927         49.2257 
       0.883569         177.347         48.4454 
       0.889708         175.508         47.6781 
       0.895864         173.482         46.9256 
       0.902008         172.748         46.1909 
       0.908149          172.15         45.4725 
       0.914301         169.928         44.7683 
       0.920448         168.756         44.0798 
       0.926574          167.79         43.4082 
       0.932687         167.624         42.7521 
       0.938823          165.44         42.1073 
       0.944975         164.028         41.4743 
       0.951105         163.358         40.8567 
       0.957225         161.744         40.2528 
       0.963368          159.86         39.6591 
       0.969511          159.46         39.0775 
       0.975621         158.266         38.5107 
       0.981748         158.015         37.9537 
       0.987916         156.254         37.4043 
        0.99406         154.921         36.8678 
        1.00019         154.837          36.343 
        1.00632         153.312          35.829 
        1.01246         152.385         35.3241 
        1.01859         151.608         34.8298 
        1.02471         150.065         34.3456 
        1.03085         148.589          33.869 
        1.03698         148.038         33.4025 
        1.04314         146.697         32.9429 
        1.04929         145.851         32.4929 
        1.05541         145.419         32.0532 
        1.06154         144.273         31.6206 
        1.06769         144.149         31.1954 
        1.07382         142.795         30.7793 
        1.07993         141.583         30.3718 
        1.08607          140.82         29.9701 
        1.09222         140.312         29.5752 
        1.09836         139.051         29.1879 
        1.10449         137.788          28.808 
        1.11063         136.766         28.4345 
        1.11677         136.521         28.0678 
         1.1229         135.264         27.7082 
        1.12903         134.612         27.3545 
        1.13518         134.256         27.0068 
        1.14131         132.904         26.6654 
        1.14745         132.434           26.33 
        1.15359         131.505         26.0004 
        1.15973         131.001         25.6763 
        1.16584         129.588         25.3592 
        1.17197         129.096         25.0471 
        1.17811         128.418         24.7392 
        1.18424           127.8         24.4374 
        1.19038         127.369         24.1398 
        1.19652         126.331         23.8473 
        1.20267          125.67         23.5597 
        1.20881         124.623         23.2768 
        1.21495          124.09         22.9991 
        1.22108         123.457          22.726 
         1.2272         122.319         22.4579 
        1.23334          121.89         22.1936 
        1.23949         120.944         21.9329 
        1.24562           120.4         21.6771 
        1.25174          119.35         21.4258 
        1.25789         118.908         21.1777 
        1.26402         118.057          20.934 
        1.27014         117.415         20.6947 
        1.27628         116.913         20.4585 
        1.28244         116.406         20.2255 
        1.28858         115.952         19.9964 
        1.29471         114.677         19.7714 
        1.30084         114.394         19.5501 
        1.30697         113.535         19.3319 
        1.31312         113.168         19.1167 
        1.31925         112.212         18.9054 
        1.32537         111.765         18.6975 
        1.33151          110.73          18.492 
        1.33765         110.423         18.2897 
        1.34378         109.791         18.0909 
        1.34992         109.519         17.8948 
        1.35606         108.838         17.7013 
         1.3622         107.903          17.511 
        1.36833         107.404         17.3239 
        1.37445         106.792         17.1397 
        1.38059         106.267         16.9575 
        1.38675         105.542         16.7776 
        1.39288         105.239         16.6011 
        1.39901         104.764         16.4271 
        1.40515         103.952         16.2553 
         1.4113         103.262          16.086 
        1.41742         102.958         15.9197 
        1.42355         102.216         15.7555 
         1.4297         101.779         15.5931 
        1.43585         100.944         15.4331 
        1.44198         100.676         15.2759 
        1.44809         100.006         15.1212 
        1.45423         99.4844         14.9681 
        1.46036          99.199         14.8174 
        1.46649         98.4512         14.6688 
        1.47263         97.9072          14.522 
        1.47877         97.6842         14.3773 
        1.48491         96.7039         14.2344 
        1.49104         96.5562         14.0937 
        1.49718         95.8108         13.9548 
        1.50333         95.4031         13.8176 
        1.50947         94.9554         13.6825 
         1.5156         94.3109         13.5494 
        1.52172         93.7875          13.418 
        1.52787         93.4544         13.2882 
          1.534         92.8152         13.1602 
        1.54013         92.3135          13.034 
        1.54627         92.0026         12.9093 
        1.55241         91.3565         12.7862 
        1.55855         90.9818         12.6648 
        1.56467         90.6307         12.5454 
         1.5708          89.954         12.4271 
        1.57695         89.9038         12.3102 
        1.58308         89.0033         12.1951 
        1.58922         88.8742         12.0814 
        1.59535         88.3641         11.9692 
         1.6015         87.7812         11.8582 
        1.60764         87.3735         11.7487 
        1.61376         87.1695         11.6409 
        1.61989         86.4621         11.5344 
        1.62604         86.2531         11.4289 
        1.63218         85.7666         11.3248 
        1.63831         84.9656         11.2223 
        1.64444         84.7653          11.121 
        1.65059          84.326         11.0207 
        1.65673          83.662         10.9218 
        1.66285         83.4584         10.8243 
        1.66898           82.99         10.7281 
        1.67512         82.4988         10.6327 
        1.68127         82.1754         10.5385 
         1.6874         81.6652         10.4456 
        1.69353           81.22         10.3539 
        1.69967         80.7845         10.2631 
        1.70581         80.5664         10.1734 
        1.71193         80.2648         10.0851 
        1.71806         79.6962         9.99772 
        1.72421          79.228         9.91116 
        1.73035         78.8772         9.82573 
        1.73649         78.4863         9.74132 
        1.74262         78.0588         9.65797 
        1.74876         77.7719         9.57554 
        1.75489         77.1409         9.49424 
        1.76101         76.9552         9.41391 
        1.76715         76.4239         9.33439 
        1.77329         76.1821         9.25569 
        1.77943         75.6121         9.17787 
        1.78557         75.4982         9.10106 
        1.79171         74.8918         9.02511 
        1.79785         74.5321         8.95001 
        1.80399         74.3047         8.87578 
        1.81012         74.0282          8.8025 
        1.81625         73.4537         8.73007 
        1.82239         73.2185         8.65835 
        1.82853         72.9096         8.58747 
        1.83466          72.512         8.51745 
        1.84078         72.2165         8.44829 
        1.84692         71.6644         8.37978 
        1.85306          71.337         8.31195 
         1.8592         70.9967         8.24497 
        1.86533         70.6583         8.17878 
        1.87147         70.1654         8.11323 
        1.87761          69.965         8.04837 
        1.88375         69.5807         7.98429 
        1.88988         69.2777         7.92099 
        1.89601          68.886         7.85833 
        1.90215         68.5612          7.7963 
        1.90829         68.2614         7.73497 
        1.91442         67.9365          7.6743 
        1.92056         67.4077         7.61433 
         1.9267         67.2674         7.55494 
        1.93284         66.8113         7.49614 
        1.93897         66.4941         7.43809 
        1.94509         66.2472         7.38077 
        1.95123         65.8716         7.32391 
        1.95737         65.6135         7.26762 
        1.96349         65.1092         7.21205 
        1.96964         64.9517         7.15691 
        1.97578         64.6506         7.10232 
        1.98192          64.371         7.04841 
        1.98805         64.0561         6.99505 
        1.99419         63.6182         6.94224 
        2.00033         63.3762         6.88995 
        2.00647          63.107         6.83822 
         2.0126         62.6432          6.7871 
        2.01874         62.3282         6.73642 
        2.02488         62.1312         6.68622 
        2.03101         61.8673         6.63662 
        2.03714         61.4766         6.58757 
        2.04328          61.258         6.53896 
        2.04941         60.9445         6.49088 
        2.05554         60.6968         6.44331 
        2.06167         60.3295         6.39616 
        2.06781         60.0496         6.34947 
        2.07396         59.7038         6.30319 
        2.08009         59.5333         6.25744 
        2.08622         59.2374          6.2122 
        2.09237         58.8708         6.16731 
        2.09851         58.7447         6.12286 
        2.10464         58.3255         6.07893 
        2.11077         58.0105         6.03547 
        2.11691         57.7463         5.99235 
        2.12305         57.5185         5.94964 
        2.12918         57.2721         5.90746 
        2.13531         56.8743         5.86567 
        2.14145         56.6528          5.8242 
         2.1476         56.4257         5.78308 
        2.15372         56.1461         5.74256 
        2.15985         55.8598         5.70239 
        2.16599         55.5693         5.66248 
        2.17213         55.3671         5.62301 
        2.17827         55.0755         5.58391 
         2.1844          54.731         5.54522 
        2.19054          54.489         5.50689 
        2.19666         54.2167         5.46897 
         2.2028         54.1472         5.43138 
        2.20893         53.8467         5.39411 
        2.21508         53.5287         5.35716 
        2.22122         53.3114         5.32054 
        2.22736         53.0885         5.28434 
        2.23349         52.7739         5.24848 
        2.23962         52.4502         5.21294 
        2.24577         52.1985         5.17769 
         2.2519         51.9266         5.14282 
        2.25802         51.8291         5.10833 
        2.26417         51.4278         5.07406 
        2.27031         51.2688         5.04007 
        2.27644         51.0968         5.00648 
        2.28257         50.7486         4.97321 
        2.28872           50.47         4.94018 
        2.29486         50.3095         4.90745 
        2.30099         50.0835         4.87509 
        2.30712         49.8785           4.843 
        2.31326         49.5594         4.81114 
         2.3194         49.2868          4.7796 
        2.32553         49.0534         4.74838 
        2.33166         48.8224         4.71746 
         2.3378          48.597         4.68677 
        2.34394         48.3412         4.65635 
        2.35007         48.0776         4.62623 
        2.35619         47.9046         4.59642 
        2.36233         47.7793          4.5668 
        2.36848          47.488         4.53738 
        2.37462         47.2435         4.50829 
        2.38075         47.0925         4.47947 
        2.38689          46.839         4.45088 
        2.39303         46.6201         4.42255 
        2.39916         46.4139         4.39449 
        2.40529          46.222         4.36667 
        2.41143         46.0096         4.33908 
        2.41757         45.7278         4.31171 
         2.4237         45.6082         4.28463 
        2.42983           45.31         4.25779 
        2.43598         45.1041          4.2311 
        2.44211         44.9596         4.20469 
        2.44823         44.6964         4.17855 
        2.45437         44.4797         4.15257 
        2.46052         44.2094         4.12679 
        2.46665         44.0646         4.10128 
        2.47279         43.8649         4.07598 
        2.47892         43.6996         4.05089 
        2.48507         43.4292         4.02598 
         2.4912         43.3122         4.00133 
