# k  (h/Mpc)    P(k)  (Mpc/h)^3    P_linear(k)  (Mpc/h)^3
     0.00783031         11027.8         11172.4 
       0.013688         15060.5         14953.5 
       0.019231         16220.5         16236.1 
      0.0249154         15685.1         16044.7 
      0.0312784         14610.1           14844 
      0.0375637         13202.5         13312.9 
      0.0433917         11645.9         11972.7 
      0.0492413         10679.5           10872 
      0.0555754         9565.55         9981.96 
      0.0619321         9206.45         9328.25 
       0.067871         8450.17         8827.41 
      0.0738098         7960.68         8338.26 
      0.0800417         7302.74         7774.95 
      0.0862327         6787.37         7152.39 
      0.0921407         6283.22         6529.75 
      0.0982031         5667.88         5913.03 
       0.104506         5290.56         5347.83 
       0.110769         4857.52         4895.01 
       0.116806         4521.86         4565.49 
       0.122832         4303.24         4323.64 
       0.129052         4021.94         4132.88 
       0.135211         3860.29         3966.34 
       0.141259          3739.1         3795.05 
       0.147318         3570.24         3599.74 
       0.153489         3308.53         3375.69 
       0.159709         3144.31         3136.96 
       0.165845          3024.8         2907.63 
       0.171974         2834.08         2702.29 
       0.178125         2685.75         2530.98 
       0.184229         2570.43         2397.77 
        0.19034         2429.52         2295.78 
       0.196428         2396.27         2214.97 
       0.202534         2319.31         2142.56 
       0.208729         2233.32            2067 
       0.214876         2149.04          1983.3 
       0.220989         2090.09         1890.24 
       0.227147         1997.07         1790.18 
        0.23329         1920.78         1690.44 
       0.239377          1894.1         1598.26 
       0.245482         1777.35         1517.23 
       0.251667         1768.59         1448.84 
       0.257832         1703.18         1393.51 
       0.263955         1651.27         1347.98 
       0.270079         1601.86         1307.53 
        0.27624         1588.97         1267.79 
       0.282372         1523.11         1226.11 
        0.28843         1518.87         1181.74 
       0.294538          1448.2         1134.29 
       0.300721         1442.76         1085.43 
        0.30691         1386.41         1038.11 
       0.313033         1360.67         995.006 
       0.319153         1341.37         956.857 
       0.325316         1297.01         923.633 
        0.33145         1270.05         894.989 
       0.337538         1253.47         869.546 
       0.343633         1225.01          845.49 
       0.349808         1188.34         821.267 
       0.355968         1181.96         796.339 
       0.362074         1169.42         770.827 
       0.368217         1135.61         744.664 
       0.374374         1095.51         718.776 
       0.380519         1096.01         694.074 
       0.386598         1070.76         671.359 
       0.392688          1066.6         650.702 
        0.39888         1037.12         631.689 
       0.405048         1025.75         614.447 
       0.411186         1011.06         598.413 
       0.417313         990.957         582.938 
       0.423458         976.924         567.578 
       0.429607         961.997         552.137 
       0.435692         944.719         536.753 
       0.441815         940.181         521.404 
       0.447964          919.47         506.373 
       0.454126         909.576          491.94 
       0.460267         892.115         478.404 
       0.466387          881.23         465.839 
        0.47254         872.996         454.022 
       0.478662         866.778         442.954 
       0.484765         846.262         432.428 
       0.490885          840.54         422.181 
       0.497035         822.718         412.025 
       0.503198         818.191         401.969 
       0.509342         808.699         392.084 
       0.515458         805.224         382.417 
       0.521598         788.135         372.974 
       0.527764         771.184         363.853 
       0.533884         772.641         355.232 
           0.54         763.378         347.033 
       0.546137         758.475         339.177 
       0.552299         748.017         331.619 
       0.558452          743.66         324.349 
       0.564573         732.434         317.323 
       0.570708         725.956         310.427 
       0.576825          706.59         303.666 
       0.582926         710.105         297.058 
       0.589034         703.721         290.605 
       0.595184         696.457         284.299 
       0.601379         688.366         278.156 
       0.607522         679.129         272.271 
       0.613639         680.669         266.618 
       0.619772         663.457         261.155 
       0.625918         660.577         255.872 
       0.632068         653.216         250.748 
       0.638161         651.081         245.806 
         0.6443         638.282         240.937 
       0.650464         637.115         236.152 
       0.656582         634.898         231.509 
       0.662703           629.9         226.981 
       0.668861         618.933          222.55 
       0.675024         614.761         218.247 
       0.681124         611.685         214.115 
       0.687237         606.395         210.093 
       0.693381         599.572         206.162 
       0.699536         590.086          202.33 
       0.705665         590.529         198.612 
       0.711789         585.007         194.992 
       0.717957         579.837         191.437 
        0.72409         576.392          187.99 
       0.730186         569.338         184.647 
       0.736317         565.684         181.366 
       0.742472         563.419          178.15 
       0.748622         557.275         175.015 
        0.75476         549.671         171.962 
       0.760888         544.578         168.988 
       0.767043         544.629         166.074 
       0.773185         538.326         163.236 
       0.779291         533.836         160.484 
       0.785407         529.303         157.794 
       0.791564         523.898         155.151 
       0.797719         521.433          152.57 
       0.803834         517.615         150.066 
       0.809972         514.124         147.609 
       0.816124         513.908         145.202 
       0.822261         505.763         142.855 
       0.828378         503.406         140.567 
       0.834502         498.609         138.327 
       0.840667         494.048         136.121 
       0.846816         491.968         133.971 
       0.852925         486.871          131.88 
       0.859047         487.399         129.831 
       0.865192         481.807         127.819 
       0.871341         477.726         125.848 
       0.877463         475.913         123.929 
       0.883569         471.376         122.055 
       0.889708         468.937         120.211 
       0.895864          464.88         118.401 
       0.902008         462.447         116.632 
       0.908149         458.778         114.901 
       0.914301         454.583         113.203 
       0.920448         451.535         111.541 
       0.926574          445.89         109.919 
       0.932687         446.073         108.332 
       0.938823         440.778         106.772 
       0.944975         441.255         105.239 
       0.951105         435.205         103.742 
       0.957225         432.185         102.277 
       0.963368         428.468         100.835 
       0.969511         426.642         99.4217 
       0.975621          423.33         98.0432 
       0.981748         422.213         96.6874 
       0.987916         418.871          95.349 
        0.99406         412.111         94.0412 
        1.00019         411.954         92.7607 
        1.00632         409.336         91.5054 
        1.01246         405.962         90.2717 
        1.01859         406.085          89.063 
        1.02471         400.532          87.878 
        1.03085         398.238         86.7107 
        1.03698         396.979         85.5673 
        1.04314         393.356         84.4398 
        1.04929         389.189         83.3355 
        1.05541         388.922         82.2555 
        1.06154         384.074         81.1922 
        1.06769         381.624         80.1462 
        1.07382         379.897         79.1223 
        1.07993         377.491         78.1187 
        1.08607         376.446         77.1286 
        1.09222         372.964         76.1548 
        1.09836         370.489         75.1991 
        1.10449         366.695         74.2611 
        1.11063         363.742         73.3382 
        1.11677         363.533         72.4314 
         1.1229         361.443         71.5416 
        1.12903         357.873         70.6662 
        1.13518         354.807         69.8048 
        1.14131         353.528         68.9584 
        1.14745         351.046         68.1266 
        1.15359         348.632         67.3084 
        1.15973         346.746         66.5035 
        1.16584         344.116         65.7155 
        1.17197         343.203         64.9392 
        1.17811          340.09         64.1732 
        1.18424         337.026         63.4219 
        1.19038         335.344         62.6805 
        1.19652         333.088         61.9513 
        1.20267         332.012         61.2338 
        1.20881         330.207         60.5279 
        1.21495          327.12         59.8343 
        1.22108         325.592         59.1518 
         1.2272         323.177         58.4816 
        1.23334         320.905         57.8203 
        1.23949         319.614         57.1678 
        1.24562         317.561         56.5272 
        1.25174         314.381         55.8975 
        1.25789         312.156         55.2755 
        1.26402         310.819         54.6642 
        1.27014         308.403         54.0636 
        1.27628         306.786         53.4703 
        1.28244         306.041         52.8849 
        1.28858         302.716         52.3091 
        1.29471         300.151         51.7431 
        1.30084         299.238         51.1862 
        1.30697         297.002         50.6366 
        1.31312         294.509         50.0944 
        1.31925          294.42         49.5619 
        1.32537         292.858         49.0377 
        1.33151         289.502         48.5192 
        1.33765         287.693         48.0087 
        1.34378         286.573         47.5065 
        1.34992         284.593         47.0112 
        1.35606         283.777          46.522 
         1.3622          281.61         46.0406 
        1.36833         279.451         45.5673 
        1.37445         277.943         45.1009 
        1.38059         275.178         44.6396 
        1.38675         274.519         44.1838 
        1.39288         272.235         43.7361 
        1.39901         271.398         43.2949 
        1.40515         269.477         42.8589 
         1.4113         267.822          42.429 
        1.41742         266.314         42.0067 
        1.42355         263.638         41.5895 
         1.4297         262.542         41.1766 
        1.43585         260.889         40.7696 
        1.44198         259.514         40.3697 
        1.44809         258.101         39.9759 
        1.45423         255.759         39.5859 
        1.46036         255.029         39.2019 
        1.46649         252.689         38.8228 
        1.47263         251.018         38.4485 
        1.47877         249.868         38.0794 
        1.48491         248.148         37.7145 
        1.49104         247.268         37.3551 
        1.49718         244.852         37.0003 
        1.50333         243.636         36.6495 
        1.50947         242.189         36.3039 
         1.5156         240.173         35.9634 
        1.52172           239.5         35.6273 
        1.52787         237.611         35.2948 
          1.534         236.632          34.967 
        1.54013         234.376         34.6437 
        1.54627         233.867         34.3239 
        1.55241         231.727         34.0082 
        1.55855         230.536         33.6969 
        1.56467         228.984         33.3903 
         1.5708         228.765         33.0868 
        1.57695         226.154         32.7865 
        1.58308         225.248         32.4908 
        1.58922         222.921         32.1984 
        1.59535         221.638         31.9098 
         1.6015         221.339         31.6244 
        1.60764         219.454         31.3426 
        1.61376         217.611          31.065 
        1.61989         216.574         30.7906 
        1.62604         215.526         30.5189 
        1.63218          214.26         30.2507 
        1.63831         212.923         29.9863 
        1.64444         211.965         29.7251 
        1.65059          210.05         29.4663 
        1.65673         209.325         29.2109 
        1.66285         207.985         28.9592 
        1.66898         206.459         28.7105 
        1.67512         205.921         28.4642 
        1.68127         203.504         28.2206 
         1.6874         202.518         27.9804 
        1.69353         201.544         27.7431 
        1.69967           200.2         27.5081 
        1.70581             199         27.2759 
        1.71193         197.731         27.0472 
        1.71806         196.969         26.8207 
        1.72421         195.378         26.5964 
        1.73035         194.659         26.3749 
        1.73649         193.483         26.1559 
        1.74262         192.169         25.9397 
        1.74876         191.221         25.7257 
        1.75489         189.538         25.5146 
        1.76101         188.579          25.306 
        1.76715         187.819         25.0994 
        1.77329         186.871         24.8949 
        1.77943         185.662         24.6926 
        1.78557          184.47         24.4928 
        1.79171         183.209         24.2953 
        1.79785         181.922         24.0999 
        1.80399         180.987         23.9066 
        1.81012         179.867         23.7158 
        1.81625         179.147         23.5272 
        1.82239         177.747         23.3403 
        1.82853         177.126         23.1555 
        1.83466         175.845          22.973 
        1.84078         175.019         22.7926 
        1.84692         173.485         22.6139 
        1.85306         172.982         22.4368 
         1.8592         171.574          22.262 
        1.86533         170.702         22.0891 
        1.87147         169.465         21.9179 
        1.87761         169.068         21.7484 
        1.88375         167.084         21.5809 
        1.88988         166.362         21.4154 
        1.89601         165.597         21.2515 
        1.90215         164.416         21.0892 
        1.90829         163.698         20.9287 
        1.91442         162.722         20.7699 
        1.92056         161.891         20.6129 
         1.9267         160.773         20.4573 
        1.93284         160.065         20.3032 
        1.93897         158.923         20.1511 
        1.94509         158.242         20.0008 
        1.95123         157.367         19.8517 
        1.95737         156.773          19.704 
        1.96349          155.57         19.5582 
        1.96964         154.366         19.4134 
        1.97578         153.499         19.2701 
        1.98192         152.658         19.1285 
        1.98805         151.562         18.9883 
        1.99419         150.859         18.8495 
        2.00033         150.089         18.7121 
        2.00647         149.405          18.576 
         2.0126         148.022         18.4416 
        2.01874         147.635         18.3082 
        2.02488         146.858         18.1761 
        2.03101          145.63         18.0455 
        2.03714         144.776         17.9164 
        2.04328         144.087         17.7883 
        2.04941         143.199         17.6617 
        2.05554         142.383         17.5363 
        2.06167         142.093          17.412 
        2.06781         141.115         17.2889 
        2.07396          140.04         17.1669 
        2.08009         139.253         17.0462 
        2.08622         138.453         16.9268 
        2.09237         137.603         16.8083 
        2.09851          136.86          16.691 
        2.10464         136.342         16.5749 
        2.11077         135.449         16.4601 
        2.11691         134.752         16.3462 
        2.12305          133.52         16.2333 
        2.12918         133.093         16.1218 
        2.13531         132.398         16.0113 
        2.14145         131.418         15.9016 
         2.1476         130.738         15.7928 
        2.15372         130.225         15.6856 
        2.15985         129.724         15.5792 
        2.16599         128.553         15.4736 
        2.17213         127.914          15.369 
        2.17827         127.351         15.2654 
         2.1844         126.587         15.1629 
        2.19054         125.814         15.0613 
        2.19666         125.131         14.9608 
         2.2028         124.389         14.8611 
        2.20893         123.796         14.7623 
        2.21508         122.958         14.6642 
        2.22122         122.316         14.5671 
        2.22736          121.57          14.471 
        2.23349          121.02         14.3758 
        2.23962         120.303         14.2814 
        2.24577         119.776         14.1878 
         2.2519         119.029         14.0951 
        2.25802          118.19         14.0034 
        2.26417         117.598         13.9123 
        2.27031         116.793          13.822 
        2.27644          116.21         13.7326 
        2.28257         115.902         13.6441 
        2.28872          115.15         13.5562 
        2.29486         114.437         13.4691 
        2.30099         113.938          13.383 
        2.30712         113.208         13.2975 
        2.31326         112.517         13.2127 
         2.3194         111.921         13.1286 
        2.32553         111.318         13.0455 
        2.33166         110.996         12.9631 
         2.3378         110.254         12.8813 
        2.34394         109.849         12.8001 
        2.35007         109.105         12.7198 
        2.35619         108.323         12.6403 
        2.36233         107.897         12.5613 
        2.36848         107.147         12.4828 
        2.37462         106.779         12.4051 
        2.38075         106.276         12.3281 
        2.38689         105.418         12.2518 
        2.39303         104.836         12.1761 
        2.39916         104.254         12.1012 
        2.40529          104.03         12.0268 
        2.41143         103.472         11.9531 
        2.41757          102.72         11.8799 
         2.4237         102.124         11.8075 
        2.42983         101.585         11.7357 
        2.43598         100.993         11.6643 
        2.44211         100.635         11.5936 
        2.44823         100.178         11.5237 
        2.45437          99.473         11.4541 
        2.46052         98.8677         11.3851 
        2.46665         98.3371         11.3168 
        2.47279         97.9174          11.249 
        2.47892         97.4069         11.1818 
        2.48507         96.7467          11.115 
         2.4912         96.3944         11.0489 
