# k  (h/Mpc)    P(k)  (Mpc/h)^3    P_linear(k)  (Mpc/h)^3
     0.00783031         5981.46         6055.67 
       0.013688         8137.55          8106.7 
       0.019231         8797.98         8802.98 
      0.0249154          8562.8         8699.91 
      0.0312784         7972.82         8049.27 
      0.0375637         7195.31          7219.3 
      0.0433917         6385.57         6492.74 
      0.0492413         5842.29         5895.95 
      0.0555754          5274.7         5413.37 
      0.0619321         5041.58         5058.92 
       0.067871         4667.86         4787.35 
      0.0738098          4399.1         4522.11 
      0.0800417         4056.38         4216.64 
      0.0862327         3760.82         3879.02 
      0.0921407         3464.27         3541.36 
      0.0982031         3122.87          3206.9 
       0.104506         2891.04         2900.38 
       0.110769         2649.71          2654.8 
       0.116806         2456.56          2476.1 
       0.122832         2342.01         2344.93 
       0.129052         2200.58         2241.48 
       0.135211         2111.54         2151.16 
       0.141259         2039.59         2058.26 
       0.147318         1945.04         1952.34 
       0.153489         1806.73         1830.83 
       0.159709         1705.81         1701.35 
       0.165845          1623.1         1576.98 
       0.171974         1509.85         1465.61 
       0.178125         1426.52          1372.7 
       0.184229         1365.81         1300.45 
        0.19034         1281.06         1245.14 
       0.196428         1263.48         1201.31 
       0.202534         1230.44         1162.04 
       0.208729         1180.15         1121.06 
       0.214876         1125.53         1075.67 
       0.220989         1096.85         1025.19 
       0.227147         1035.45         970.924 
        0.23329         992.163         916.829 
       0.239377         967.956         866.839 
       0.245482         903.849         822.891 
       0.251667         893.674           785.8 
       0.257832         862.669         755.787 
       0.263955         836.265         731.094 
       0.270079         811.334         709.155 
        0.27624         803.862         687.603 
       0.282372          771.19             665 
        0.28843         754.186         640.935 
       0.294538         720.344         615.198 
       0.300721         716.002           588.7 
        0.30691         683.341         563.035 
       0.313033         669.234         539.656 
       0.319153         648.655         518.965 
       0.325316         630.098         500.946 
        0.33145         613.519         485.411 
       0.337538         607.196         471.611 
       0.343633         588.991         458.564 
       0.349808         571.745         445.427 
       0.355968         566.667         431.907 
       0.362074         555.054          418.07 
       0.368217         540.634          403.88 
       0.374374         521.298         389.839 
       0.380519         515.157         376.442 
       0.386598         503.939         364.122 
       0.392688         500.609         352.918 
        0.39888         486.671         342.607 
       0.405048         478.153         333.255 
       0.411186         468.815         324.559 
       0.417313         460.989         316.166 
       0.423458         453.444         307.835 
       0.429607          443.62          299.46 
       0.435692         433.487         291.116 
       0.441815         431.003         282.792 
       0.447964         423.087          274.64 
       0.454126         408.683         266.811 
       0.460267         404.473          259.47 
       0.466387         400.017         252.655 
        0.47254         392.121         246.246 
       0.478662         390.349         240.243 
       0.484765         380.272         234.535 
       0.490885         375.697         228.977 
       0.497035         369.983         223.468 
       0.503198         362.252         218.014 
       0.509342         359.436         212.653 
       0.515458         355.322          207.41 
       0.521598         350.188         202.289 
       0.527764         343.955         197.342 
       0.533884         340.535         192.666 
           0.54         336.273         188.219 
       0.546137         334.935         183.958 
       0.552299         328.696         179.859 
       0.558452         324.917         175.916 
       0.564573         319.595         172.105 
       0.570708         314.791         168.365 
       0.576825         310.907         164.698 
       0.582926          307.95         161.114 
       0.589034         303.844         157.615 
       0.595184         301.399         154.195 
       0.601379         298.816         150.863 
       0.607522         293.082         147.671 
       0.613639         292.192         144.605 
       0.619772         285.324         141.642 
       0.625918         283.767         138.776 
       0.632068         280.358         135.997 
       0.638161         279.204         133.317 
         0.6443         274.445         130.677 
       0.650464         272.266         128.081 
       0.656582         270.806         125.563 
       0.662703         267.281         123.107 
       0.668861         263.657         120.704 
       0.675024         261.038          118.37 
       0.681124         260.098         116.129 
       0.687237         256.056         113.947 
       0.693381         252.788         111.816 
       0.699536         251.079         109.737 
       0.705665         250.767         107.721 
       0.711789         246.194         105.757 
       0.717957         245.001         103.829 
        0.72409          242.24         101.959 
       0.730186         238.886         100.146 
       0.736317         237.587         98.3668 
       0.742472         236.321          96.623 
       0.748622          234.77         94.9226 
        0.75476         232.719         93.2668 
       0.760888         229.618         91.6535 
       0.767043         228.357         90.0728 
       0.773185         225.994         88.5341 
       0.779291         222.718         87.0415 
       0.785407         221.994         85.5824 
       0.791564         219.985         84.1486 
       0.797719          217.55         82.7491 
       0.803834         216.669         81.3907 
       0.809972         214.155         80.0583 
       0.816124         214.341         78.7527 
       0.822261         211.201         77.4797 
       0.828378         209.656         76.2387 
       0.834502         209.288         75.0238 
       0.840667         206.089         73.8277 
       0.846816          205.23         72.6612 
       0.852925          203.25         71.5276 
       0.859047         201.619          70.416 
       0.865192         200.682         69.3246 
       0.871341         198.444         68.2561 
       0.877463         197.341         67.2152 
       0.883569         195.447         66.1989 
       0.889708         194.409         65.1987 
       0.895864         192.428         64.2169 
       0.902008         191.534         63.2576 
       0.908149         190.511         62.3187 
       0.914301          188.45         61.3976 
       0.920448          187.37         60.4962 
       0.926574         186.399         59.6162 
       0.932687         185.095         58.7558 
       0.938823         183.166         57.9095 
       0.944975         182.029         57.0781 
       0.951105         180.951         56.2661 
       0.957225         178.744         55.4715 
       0.963368         177.754         54.6897 
       0.969511          176.92         53.9231 
       0.975621         176.047         53.1754 
       0.981748         175.279         52.4401 
       0.987916         173.088         51.7142 
        0.99406         172.588         51.0049 
        1.00019         171.409         50.3104 
        1.00632          170.14         49.6295 
        1.01246         169.034         48.9604 
        1.01859         167.315         48.3048 
        1.02471         167.364         47.6622 
        1.03085         165.696         47.0291 
        1.03698         164.134         46.4089 
        1.04314         163.297         45.7974 
        1.04929         162.224         45.1985 
        1.05541         161.388         44.6127 
        1.06154         160.256          44.036 
        1.06769         159.947         43.4687 
        1.07382          159.02         42.9134 
        1.07993         157.872         42.3691 
        1.08607         156.547         41.8321 
        1.09222         155.684         41.3039 
        1.09836         154.501         40.7856 
        1.10449         153.565         40.2768 
        1.11063         152.734         39.7762 
        1.11677         152.042         39.2844 
         1.1229         150.571         38.8019 
        1.12903         149.675          38.327 
        1.13518         149.695         37.8599 
        1.14131         148.165         37.4008 
        1.14745         147.315         36.9496 
        1.15359         146.377         36.5059 
        1.15973         146.038         36.0694 
        1.16584           144.8          35.642 
        1.17197          143.96         35.2209 
        1.17811         143.219         34.8055 
        1.18424         142.101          34.398 
        1.19038         141.501         33.9958 
        1.19652         140.732         33.6004 
        1.20267         139.685         33.2112 
        1.20881         138.955         32.8284 
        1.21495         138.024         32.4522 
        1.22108         137.281          32.082 
         1.2272         136.553         31.7185 
        1.23334         135.693         31.3599 
        1.23949         134.275          31.006 
        1.24562         134.277         30.6585 
        1.25174         133.085          30.317 
        1.25789          132.47         29.9796 
        1.26402          131.95         29.6481 
        1.27014         130.811         29.3224 
        1.27628         130.436         29.0006 
        1.28244         129.483         28.6831 
        1.28858         128.805         28.3707 
        1.29471         127.883         28.0638 
        1.30084         127.233         27.7617 
        1.30697         126.449         27.4637 
        1.31312         126.177         27.1696 
        1.31925         125.314         26.8807 
        1.32537         124.867         26.5964 
        1.33151         123.551         26.3153 
        1.33765         123.046         26.0383 
        1.34378         122.214          25.766 
        1.34992         122.034         25.4974 
        1.35606         121.226          25.232 
         1.3622         120.258         24.9709 
        1.36833         119.909         24.7142 
        1.37445         118.953         24.4613 
        1.38059         118.493         24.2111 
        1.38675         117.794         23.9638 
        1.39288         117.085          23.721 
        1.39901         116.756         23.4818 
        1.40515          116.23         23.2453 
         1.4113         114.876         23.0121 
        1.41742         114.777         22.7831 
        1.42355         113.887         22.5568 
         1.4297         113.336         22.3329 
        1.43585         112.677         22.1121 
        1.44198         112.324         21.8952 
        1.44809         111.371         21.6816 
        1.45423         110.831         21.4701 
        1.46036         110.329         21.2618 
        1.46649         109.803         21.0563 
        1.47263         109.371         20.8532 
        1.47877          108.81          20.653 
        1.48491         108.042         20.4551 
        1.49104         107.411         20.2602 
        1.49718         106.931         20.0677 
        1.50333         106.244         19.8775 
        1.50947         105.468         19.6901 
         1.5156         105.416         19.5054 
        1.52172         104.518         19.3231 
        1.52787         104.356         19.1428 
          1.534         103.826          18.965 
        1.54013         102.926         18.7896 
        1.54627         102.383         18.6162 
        1.55241         101.816         18.4449 
        1.55855         101.442         18.2761 
        1.56467         100.765         18.1098 
         1.5708         100.216         17.9452 
        1.57695         99.9684         17.7824 
        1.58308         99.0991         17.6219 
        1.58922          98.911         17.4634 
        1.59535         98.4306         17.3069 
         1.6015         97.8019          17.152 
        1.60764         97.4056         16.9992 
        1.61376         96.7487         16.8487 
        1.61989         96.3515         16.6998 
        1.62604         95.6252         16.5525 
        1.63218         95.5155          16.407 
        1.63831         94.8986         16.2636 
        1.64444         94.4828         16.1219 
        1.65059         93.5901         15.9816 
        1.65673         93.3125          15.843 
        1.66285         92.9219         15.7066 
        1.66898         92.4318         15.5717 
        1.67512         91.7572         15.4381 
        1.68127         91.3082         15.3059 
         1.6874         90.9303         15.1757 
        1.69353         90.5345          15.047 
        1.69967         89.9592         14.9195 
        1.70581         89.6348         14.7936 
        1.71193         89.2481         14.6695 
        1.71806          88.527         14.5467 
        1.72421         88.3819          14.425 
        1.73035         87.7039         14.3049 
        1.73649         87.2775         14.1861 
        1.74262         86.9129         14.0688 
        1.74876         86.4763         13.9528 
        1.75489         85.9027         13.8383 
        1.76101         85.6091         13.7252 
        1.76715         85.0954         13.6131 
        1.77329         84.7158         13.5022 
        1.77943         84.4032         13.3925 
        1.78557         83.9639         13.2841 
        1.79171         83.4483          13.177 
        1.79785         83.2022          13.071 
        1.80399         82.5593         12.9662 
        1.81012         82.3319         12.8627 
        1.81625         81.7225         12.7604 
        1.82239          81.294          12.659 
        1.82853         80.9385         12.5588 
        1.83466          80.529         12.4598 
        1.84078         79.9559          12.362 
        1.84692         79.7581          12.265 
        1.85306         79.3883          12.169 
         1.8592         78.7841         12.0742 
        1.86533         78.4059         11.9804 
        1.87147         78.0295         11.8876 
        1.87761         77.6389         11.7956 
        1.88375         77.5706         11.7048 
        1.88988         77.0879          11.615 
        1.89601          76.543         11.5261 
        1.90215         76.2397         11.4381 
        1.90829         75.9174         11.3511 
        1.91442         75.3802         11.2649 
        1.92056         75.0978         11.1798 
         1.9267         74.6284         11.0954 
        1.93284         74.1598         11.0118 
        1.93897         73.9277         10.9293 
        1.94509         73.3579         10.8478 
        1.95123         73.1737         10.7669 
        1.95737         72.9574         10.6868 
        1.96349         72.5547         10.6077 
        1.96964          72.124         10.5292 
        1.97578          71.757         10.4515 
        1.98192         71.5469         10.3747 
        1.98805         71.2044         10.2986 
        1.99419         70.7273         10.2234 
        2.00033         70.4107         10.1488 
        2.00647         70.0919          10.075 
         2.0126         69.5909         10.0021 
        2.01874         69.2835         9.92979 
        2.02488         69.1085         9.85813 
        2.03101         68.6563         9.78732 
        2.03714         68.2357         9.71727 
        2.04328         67.9518         9.64783 
        2.04941         67.5855         9.57912 
        2.05554         67.1921         9.51114 
        2.06167          67.117         9.44373 
        2.06781         66.5942         9.37696 
        2.07396         66.2758         9.31075 
        2.08009         66.0667          9.2453 
        2.08622         65.5693         9.18055 
        2.09237         65.3916         9.11629 
        2.09851         65.0127         9.05264 
        2.10464         64.6549         8.98971 
        2.11077         64.4448         8.92745 
        2.11691         64.0094         8.86565 
        2.12305          63.661         8.80443 
        2.12918          63.347         8.74394 
        2.13531          63.092         8.68401 
        2.14145         62.7878         8.62451 
         2.1476         62.6379          8.5655 
        2.15372         62.1887         8.50734 
        2.15985         61.9085         8.44967 
        2.16599         61.6391         8.39236 
        2.17213         61.4032         8.33565 
        2.17827         61.0161         8.27948 
         2.1844         60.5402         8.22388 
        2.19054         60.3976         8.16878 
        2.19666         60.1788         8.11426 
         2.2028         59.9291         8.06019 
        2.20893         59.6076         8.00658 
        2.21508         59.3732         7.95341 
        2.22122         59.0592         7.90071 
        2.22736         58.6595         7.84859 
        2.23349         58.4285         7.79696 
        2.23962         58.1236         7.74576 
        2.24577         57.8299         7.69499 
         2.2519         57.6241         7.64474 
        2.25802         57.3786         7.59502 
        2.26417          56.972          7.5456 
        2.27031         56.7495         7.49658 
        2.27644         56.3959         7.44814 
        2.28257         56.2441         7.40014 
        2.28872         55.8338         7.35246 
        2.29486         55.6284         7.30522 
        2.30099         55.3702         7.25849 
        2.30712         55.1633         7.21215 
        2.31326         54.8283         7.16614 
         2.3194         54.5977         7.12056 
        2.32553         54.3526         7.07545 
        2.33166         54.0147         7.03075 
         2.3378         53.7199         6.98638 
        2.34394         53.3848         6.94238 
        2.35007         53.2526         6.89882 
        2.35619         53.1084         6.85569 
        2.36233         52.8151         6.81283 
        2.36848         52.4378         6.77025 
        2.37462          52.298         6.72812 
        2.38075         51.9833         6.68639 
        2.38689         51.7537         6.64499 
        2.39303         51.5891         6.60394 
        2.39916         51.3803         6.56328 
        2.40529         51.0169         6.52297 
        2.41143         50.7548         6.48297 
        2.41757         50.5498         6.44329 
         2.4237         50.3403         6.40401 
        2.42983         50.0223         6.36507 
        2.43598         49.8472         6.32635 
        2.44211         49.6324         6.28801 
        2.44823         49.3179         6.25008 
        2.45437         49.0706         6.21236 
        2.46052          48.821         6.17492 
        2.46665          48.632         6.13785 
        2.47279         48.4533         6.10111 
        2.47892         48.1508         6.06464 
        2.48507          47.946         6.02843 
         2.4912         47.7627         5.99259 
