# k  (h/Mpc)    Pcb(k)  (Mpc/h)^3    Pcb_linear(k)  (Mpc/h)^3
     0.00783031         674.304         679.838 
       0.013688         909.797         911.286 
       0.019231          989.59         990.146 
      0.0249154         973.303         978.893 
      0.0312784         904.063         905.901 
      0.0375637          813.49         812.616 
      0.0433917         729.122         730.905 
      0.0492413         663.968          663.77 
      0.0555754          606.89         609.477 
      0.0619321         571.508         569.596 
       0.067871         537.101         539.036 
      0.0738098         506.842         509.185 
      0.0800417         471.188           474.8 
      0.0862327         434.722         436.791 
      0.0921407         397.685         398.775 
      0.0982031         359.408         361.118 
       0.104506         327.418         326.605 
       0.110769         299.699         298.954 
       0.116806         278.086         278.832 
       0.122832         264.467         264.064 
       0.129052         251.455         252.415 
       0.135211         240.999         242.246 
       0.141259         231.435         231.786 
       0.147318         220.285         219.858 
       0.153489         205.886         206.175 
       0.159709         191.733         191.595 
       0.165845         179.342         177.589 
       0.171974         165.662         165.049 
       0.178125         155.596         154.586 
       0.184229         147.986          146.45 
        0.19034         140.422         140.221 
       0.196428         136.377         135.286 
       0.202534         132.791         130.864 
       0.208729         127.496         126.249 
       0.214876         121.662         121.137 
       0.220989         117.328         115.453 
       0.227147         110.058         109.341 
        0.23329          104.24          103.25 
       0.239377         99.1478         97.6201 
       0.245482         93.6659         92.6709 
       0.251667         90.4664          88.494 
       0.257832         86.9724         85.1141 
       0.263955         84.1754         82.3332 
       0.270079         81.7199         79.8627 
        0.27624         79.8535         77.4357 
       0.282372         77.1583         74.8903 
        0.28843         74.1006         72.1802 
       0.294538         71.2757         69.2818 
       0.300721         68.8834         66.2977 
        0.30691         65.6058         63.4075 
       0.313033         63.1587         60.7746 
       0.319153         60.1723         58.4445 
       0.325316         59.0561         56.4152 
        0.33145         57.0976         54.6655 
       0.337538         55.6198         53.1116 
       0.343633         53.9698         51.6423 
       0.349808         52.6032         50.1625 
       0.355968         51.0912         48.6403 
       0.362074         49.4929          47.082 
       0.368217          48.004          45.484 
       0.374374         46.2857         43.9028 
       0.380519         45.0049          42.394 
       0.386598          43.713         41.0067 
       0.392688         42.6345         39.7449 
        0.39888          41.394         38.5837 
       0.405048         40.4431         37.5304 
       0.411186         39.5444          36.551 
       0.417313         38.2916         35.6059 
       0.423458         37.4362         34.6678 
       0.429607         36.3955         33.7244 
       0.435692         35.3725          32.785 
       0.441815         34.6074         31.8474 
       0.447964         33.9562         30.9294 
       0.454126         32.7354         30.0477 
       0.460267         32.0124         29.2211 
       0.466387         31.0828         28.4535 
        0.47254         30.5741         27.7317 
       0.478662         29.9795         27.0557 
       0.484765         29.1952         26.4129 
       0.490885         28.5176         25.7868 
       0.497035         28.1514         25.1666 
       0.503198         27.4368         24.5524 
       0.509342         26.7846         23.9485 
       0.515458         26.1685         23.3582 
       0.521598         25.6766         22.7814 
       0.527764         25.0803         22.2242 
       0.533884         24.6398         21.6977 
           0.54         24.1299         21.1969 
       0.546137         23.6932          20.717 
       0.552299         23.2714         20.2554 
       0.558452         22.5867         19.8114 
       0.564573         22.3066         19.3822 
       0.570708         21.9021         18.9609 
       0.576825          21.344         18.5481 
       0.582926         21.0078         18.1444 
       0.589034           20.42         17.7503 
       0.595184         20.1283         17.3651 
       0.601379         19.7339         16.9899 
       0.607522         19.4447         16.6304 
       0.613639         19.2118         16.2851 
       0.619772          18.716         15.9515 
       0.625918         18.5501         15.6287 
       0.632068         18.2521         15.3158 
       0.638161         17.8427         15.0139 
         0.6443         17.4889         14.7165 
       0.650464         17.1559         14.4243 
       0.656582         17.0146         14.1407 
       0.662703         16.7148         13.8641 
       0.668861         16.4255         13.5935 
       0.675024         16.1073         13.3306 
       0.681124         15.8373         13.0783 
       0.687237          15.612         12.8326 
       0.693381         15.4149         12.5925 
       0.699536         15.0028         12.3584 
       0.705665         14.8512         12.1313 
       0.711789         14.6185         11.9102 
       0.717957         14.3885         11.6931 
        0.72409         14.1602         11.4825 
       0.730186         13.9745         11.2783 
       0.736317         13.8339         11.0779 
       0.742472         13.6188         10.8815 
       0.748622         13.3998           10.69 
        0.75476         13.1198         10.5036 
       0.760888         12.9889         10.3219 
       0.767043         12.8333         10.1439 
       0.773185         12.5791         9.97057 
       0.779291         12.4777         9.80248 
       0.785407         12.2851         9.63816 
       0.791564         12.0888         9.47669 
       0.797719         11.9143         9.31907 
       0.803834         11.8092          9.1661 
       0.809972         11.6908         9.01604 
       0.816124         11.4524         8.86901 
       0.822261         11.3003         8.72565 
       0.828378         11.1681         8.58588 
       0.834502         11.0648         8.44907 
       0.840667         10.8719         8.31437 
       0.846816          10.704           8.183 
       0.852925         10.6116         8.05533 
       0.859047         10.4799         7.93014 
       0.865192         10.3873         7.80724 
       0.871341         10.2702          7.6869 
       0.877463         10.1252         7.56967 
       0.883569         9.95963         7.45522 
       0.889708         9.80533         7.34258 
       0.895864         9.74168         7.23201 
       0.902008          9.6174         7.12398 
       0.908149         9.51397         7.01824 
       0.914301         9.37295         6.91451 
       0.920448         9.24562         6.81299 
       0.926574         9.13706         6.71389 
       0.932687         9.06668         6.61699 
       0.938823         8.94947         6.52168 
       0.944975         8.83373         6.42805 
       0.951105         8.75646         6.33661 
       0.957225          8.7074         6.24713 
       0.963368         8.58712         6.15908 
       0.969511         8.49088         6.07274 
       0.975621         8.37689         5.98854 
       0.981748         8.29747         5.90573 
       0.987916         8.21838         5.82398 
        0.99406         8.08954         5.74409 
        1.00019         7.98714         5.66588 
        1.00632         7.95361         5.58921 
        1.01246         7.86913         5.51385 
        1.01859         7.76822         5.44002 
        1.02471         7.69051         5.36765 
        1.03085         7.61867         5.29635 
        1.03698         7.51719         5.22651 
        1.04314         7.46031         5.15764 
        1.04929         7.36204         5.09019 
        1.05541         7.28889         5.02422 
        1.06154         7.22549         4.95927 
        1.06769         7.18515         4.89538 
        1.07382         7.07679         4.83284 
        1.07993         7.00087         4.77155 
        1.08607         6.96169         4.71107 
        1.09222         6.88957         4.65159 
        1.09836         6.83183         4.59321 
        1.10449         6.75652         4.53592 
        1.11063          6.6962         4.47954 
        1.11677         6.63673         4.42416 
         1.1229         6.57294         4.36981 
        1.12903         6.50657         4.31634 
        1.13518           6.448         4.26372 
        1.14131         6.36624         4.21202 
        1.14745         6.29085         4.16122 
        1.15359         6.26475         4.11125 
        1.15973         6.19596         4.06208 
        1.16584         6.14362         4.01395 
        1.17197         6.08996         3.96653 
        1.17811         6.03882         3.91974 
        1.18424         6.00479         3.87385 
        1.19038         5.95061         3.82857 
        1.19652         5.89547         3.78403 
        1.20267         5.83232          3.7402 
        1.20881         5.78799         3.69709 
        1.21495         5.74444         3.65472 
        1.22108         5.68849         3.61303 
         1.2272         5.66379          3.5721 
        1.23334         5.58828         3.53171 
        1.23949         5.53946         3.49185 
        1.24562         5.51619         3.45272 
        1.25174         5.44683         3.41426 
        1.25789         5.41167         3.37627 
        1.26402         5.35967         3.33893 
        1.27014         5.31145         3.30224 
        1.27628         5.28793         3.26601 
        1.28244         5.22144         3.23025 
        1.28858         5.19966         3.19507 
        1.29471          5.1491         3.16051 
        1.30084         5.10218         3.12649 
        1.30697         5.09342         3.09292 
        1.31312         5.00185          3.0598 
        1.31925          4.9892         3.02727 
        1.32537         4.94908         2.99526 
        1.33151         4.92133         2.96359 
        1.33765          4.8593          2.9324 
        1.34378         4.82248         2.90173 
        1.34992         4.80966         2.87148 
        1.35606         4.75044          2.8416 
         1.3622         4.73028          2.8122 
        1.36833         4.69269         2.78328 
        1.37445         4.65797          2.7548 
        1.38059         4.63011         2.72662 
        1.38675         4.60209         2.69878 
        1.39288         4.55311         2.67143 
        1.39901         4.51584         2.64449 
        1.40515         4.49013         2.61785 
         1.4113         4.45825          2.5916 
        1.41742         4.42944          2.5658 
        1.42355         4.40257         2.54032 
         1.4297         4.35402          2.5151 
        1.43585         4.34126         2.49024 
        1.44198         4.31766         2.46581 
        1.44809         4.26407         2.44176 
        1.45423         4.23706         2.41794 
        1.46036         4.20839         2.39448 
        1.46649         4.17288         2.37133 
        1.47263         4.14456         2.34847 
        1.47877         4.10917         2.32592 
        1.48491         4.08483         2.30363 
        1.49104         4.06807         2.28168 
        1.49718         4.03896            2.26 
        1.50333         4.01142         2.23858 
        1.50947         3.98635         2.21747 
         1.5156         3.96024         2.19667 
        1.52172         3.93561         2.17614 
        1.52787         3.90668         2.15583 
          1.534          3.8836         2.13581 
        1.54013          3.8561         2.11606 
        1.54627         3.82117         2.09653 
        1.55241         3.79777         2.07725 
        1.55855         3.78365         2.05823 
        1.56467         3.75742         2.03951 
         1.5708         3.72168         2.02097 
        1.57695         3.70518         2.00263 
        1.58308         3.67976         1.98456 
        1.58922         3.66444          1.9667 
        1.59535         3.63886         1.94908 
         1.6015         3.61677         1.93164 
        1.60764         3.59602         1.91443 
        1.61376         3.57257         1.89748 
        1.61989         3.54829         1.88072 
        1.62604         3.52393         1.86412 
        1.63218         3.51472         1.84774 
        1.63831         3.48015         1.83159 
        1.64444         3.45905         1.81563 
        1.65059         3.44276         1.79982 
        1.65673         3.42245         1.78422 
        1.66285         3.39569         1.76885 
        1.66898         3.38318         1.75366 
        1.67512         3.35476         1.73862 
        1.68127         3.33715         1.72374 
         1.6874         3.32428         1.70906 
        1.69353         3.28953         1.69457 
        1.69967         3.27703         1.68022 
        1.70581         3.26847         1.66603 
        1.71193         3.24361         1.65207 
        1.71806         3.22876         1.63823 
        1.72421         3.20818         1.62453 
        1.73035         3.18994           1.611 
        1.73649         3.16867         1.59763 
        1.74262         3.15064         1.58442 
        1.74876         3.14166         1.57135 
        1.75489         3.11539         1.55846 
        1.76101         3.09599         1.54571 
        1.76715         3.08122         1.53309 
        1.77329         3.06411          1.5206 
        1.77943         3.04243         1.50824 
        1.78557         3.03077         1.49604 
        1.79171         3.01679         1.48398 
        1.79785         2.99536         1.47204 
        1.80399         2.98304         1.46024 
        1.81012         2.97309         1.44858 
        1.81625          2.9476         1.43706 
        1.82239         2.93052         1.42564 
        1.82853         2.90974         1.41436 
        1.83466           2.904         1.40321 
        1.84078         2.88599         1.39219 
        1.84692         2.87277         1.38127 
        1.85306         2.85225         1.37046 
         1.8592         2.84033         1.35978 
        1.86533         2.82459         1.34922 
        1.87147         2.81403         1.33876 
        1.87761         2.79908         1.32841 
        1.88375         2.77475         1.31818 
        1.88988          2.7679         1.30807 
        1.89601         2.75087         1.29806 
        1.90215         2.73266         1.28815 
        1.90829         2.72106         1.27835 
        1.91442         2.70855         1.26864 
        1.92056         2.69383         1.25905 
         1.9267         2.68394         1.24955 
        1.93284         2.67092         1.24014 
        1.93897         2.65556         1.23085 
        1.94509         2.63762         1.22167 
        1.95123         2.62341         1.21256 
        1.95737         2.61153         1.20354 
        1.96349         2.60048         1.19463 
        1.96964         2.59156         1.18579 
        1.97578         2.57635         1.17703 
        1.98192         2.56585         1.16838 
        1.98805         2.54935         1.15982 
        1.99419         2.53809         1.15134 
        2.00033         2.53461         1.14295 
        2.00647         2.51454         1.13464 
         2.0126         2.50679         1.12643 
        2.01874          2.4879         1.11828 
        2.02488         2.47916         1.11021 
        2.03101         2.46313         1.10224 
        2.03714         2.44843         1.09435 
        2.04328         2.44302         1.08653 
        2.04941         2.42634         1.07879 
        2.05554          2.4214         1.07113 
        2.06167          2.4049         1.06354 
        2.06781         2.39845         1.05602 
        2.07396         2.38655         1.04857 
        2.08009         2.37405         1.04119 
        2.08622         2.35827          1.0339 
        2.09237         2.35775         1.02667 
        2.09851         2.34478          1.0195 
        2.10464         2.33373         1.01241 
        2.11077         2.32072          1.0054 
        2.11691         2.30814         0.99844 
        2.12305         2.30265        0.991545 
        2.12918         2.29062        0.984733 
        2.13531         2.28159        0.977984 
        2.14145         2.26786        0.971283 
         2.1476         2.25857        0.964637 
        2.15372         2.24815        0.958087 
        2.15985         2.23818        0.951592 
        2.16599         2.22668        0.945138 
        2.17213         2.21762        0.938752 
        2.17827         2.21031        0.932426 
         2.1844         2.20071        0.926165 
        2.19054         2.19331        0.919959 
        2.19666         2.17989        0.913819 
         2.2028          2.1717        0.907729 
        2.20893         2.15847        0.901693 
        2.21508         2.15452        0.895705 
        2.22122          2.1402        0.889769 
        2.22736         2.12928          0.8839 
        2.23349         2.12709        0.878085 
        2.23962         2.11308         0.87232 
        2.24577         2.10383        0.866601 
         2.2519         2.09522        0.860942 
        2.25802         2.09179        0.855343 
        2.26417         2.07708        0.849778 
        2.27031         2.07273        0.844257 
        2.27644         2.06296        0.838802 
        2.28257          2.0539        0.833396 
        2.28872         2.04332        0.828027 
        2.29486         2.03912        0.822706 
        2.30099         2.02696        0.817444 
        2.30712         2.01925        0.812225 
        2.31326         2.01469        0.807043 
         2.3194         2.00372         0.80191 
        2.32553         1.99711         0.79683 
        2.33166         1.98597        0.791796 
         2.3378         1.97774        0.786799 
        2.34394         1.96853        0.781844 
        2.35007         1.96135        0.776938 
        2.35619         1.95787        0.772081 
        2.36233         1.94553        0.767254 
        2.36848         1.93979        0.762458 
        2.37462         1.93165        0.757714 
        2.38075         1.92428        0.753015 
        2.38689         1.91642        0.748352 
        2.39303         1.91036        0.743729 
        2.39916         1.90002         0.73915 
        2.40529         1.89582         0.73461 
        2.41143         1.88671        0.730106 
        2.41757         1.87821        0.725637 
         2.4237         1.87262        0.721213 
        2.42983          1.8635        0.716828 
        2.43598         1.86016        0.712467 
        2.44211         1.85064         0.70815 
        2.44823         1.84382        0.703878 
        2.45437         1.83747         0.69963 
        2.46052         1.83115        0.695413 
        2.46665         1.82504        0.691239 
        2.47279         1.81705        0.687101 
        2.47892         1.80875        0.682993 
        2.48507         1.80355        0.678916 
         2.4912         1.79538         0.67488 
