# k  (h/Mpc)    Pcb(k)  (Mpc/h)^3    Pcb_linear(k)  (Mpc/h)^3
     0.00783031         11063.7         11209.5 
       0.013688         15123.6         15016.8 
       0.019231         16295.7         16312.1 
      0.0249154         15762.3         16124.4 
      0.0312784           14685         14920.6 
      0.0375637           13272         13383.4 
      0.0433917         11708.2         12037.2 
      0.0492413         10737.4         10931.2 
      0.0555754         9617.92         10036.9 
      0.0619321         9257.29         9379.97 
       0.067871         8497.08         8876.62 
      0.0738098          8005.1         8384.95 
      0.0800417         7343.64         7818.66 
      0.0862327         6825.52         7192.71 
      0.0921407         6318.65         6566.66 
      0.0982031          5699.9         5946.53 
       0.104506         5320.52         5378.18 
       0.110769         4885.08         4922.83 
       0.116806         4547.56         4591.49 
       0.122832         4327.73         4348.28 
       0.129052         4044.85         4156.46 
       0.135211          3882.3         3988.99 
       0.141259         3760.44         3816.74 
       0.147318         3590.64         3620.33 
       0.153489         3327.45         3395.01 
       0.159709         3162.31         3154.93 
       0.165845         3042.12          2924.3 
       0.171974         2850.32         2717.79 
       0.178125         2701.15          2545.5 
       0.184229         2585.18         2411.53 
        0.19034         2443.46         2308.96 
       0.196428         2410.03         2227.69 
       0.202534         2332.63         2154.87 
       0.208729         2246.15         2078.88 
       0.214876         2161.39          1994.7 
       0.220989          2102.1          1901.1 
       0.227147         2008.55         1800.47 
        0.23329         1931.82         1700.16 
       0.239377         1904.99         1607.46 
       0.245482         1787.57         1525.96 
       0.251667         1778.77         1457.18 
       0.257832         1712.99         1401.53 
       0.263955         1660.78         1355.74 
       0.270079         1611.08         1315.06 
        0.27624         1598.12         1275.09 
       0.282372         1531.88         1233.18 
        0.28843         1527.62         1188.55 
       0.294538         1456.54         1140.82 
       0.300721         1451.07         1091.69 
        0.30691          1394.4          1044.1 
       0.313033         1368.51         1000.74 
       0.319153          1349.1         962.372 
       0.325316         1304.49         928.957 
        0.33145         1277.37         900.146 
       0.337538         1260.69         874.559 
       0.343633         1232.07         850.365 
       0.349808         1195.19         825.997 
       0.355968         1188.77         800.932 
       0.362074         1176.16         775.272 
       0.368217         1142.16         748.958 
       0.374374         1101.83         722.922 
       0.380519         1102.33         698.077 
       0.386598         1076.94         675.233 
       0.392688         1072.75         654.455 
        0.39888          1043.1         635.334 
       0.405048         1031.66         617.991 
       0.411186         1016.88         601.864 
       0.417313         996.671         586.301 
       0.423458         982.557         570.854 
       0.429607         967.543         555.319 
       0.435692         950.167          539.85 
       0.441815         945.602         524.412 
       0.447964         924.771         509.295 
       0.454126         914.821         494.777 
       0.460267         897.259         481.167 
       0.466387         886.312         468.527 
        0.47254          878.03         456.642 
       0.478662         871.776          445.51 
       0.484765         851.141         434.924 
       0.490885         845.387         424.615 
       0.497035         827.462         414.403 
       0.503198         822.909         404.289 
       0.509342         813.362         394.346 
       0.515458         809.867         384.625 
       0.521598          792.68         375.127 
       0.527764         775.632         365.953 
       0.533884         777.096         357.282 
           0.54         767.781         349.036 
       0.546137         762.849         341.135 
       0.552299          752.33         333.533 
       0.558452         747.949         326.222 
       0.564573         736.658         319.155 
       0.570708         730.143         312.218 
       0.576825         710.665          305.42 
       0.582926           714.2         298.773 
       0.589034         707.779         292.283 
       0.595184         700.473         285.941 
       0.601379         692.336         279.762 
       0.607522         683.046         273.843 
       0.613639         684.594         268.157 
       0.619772         667.283         262.663 
       0.625918         664.386         257.348 
       0.632068         656.983         252.196 
       0.638161         654.836         247.225 
         0.6443         641.963         242.328 
       0.650464         640.789         237.515 
       0.656582         638.559         232.845 
       0.662703         633.533         228.291 
       0.668861         622.502         223.835 
       0.675024         618.306         219.507 
       0.681124         615.212         215.352 
       0.687237         609.892         211.306 
       0.693381          603.03         207.352 
       0.699536         593.489         203.498 
       0.705665         593.934         199.759 
       0.711789         588.381         196.118 
       0.717957         583.181         192.543 
        0.72409         579.716         189.075 
       0.730186         572.621         185.713 
       0.736317         568.947         182.413 
       0.742472         566.668         179.179 
       0.748622         560.488         176.026 
        0.75476         552.841         172.955 
       0.760888         547.719         169.964 
       0.767043          547.77         167.033 
       0.773185          541.43         164.179 
       0.779291         536.914         161.411 
       0.785407         532.355         158.705 
       0.791564         526.919         156.047 
       0.797719          524.44         153.451 
       0.803834           520.6         150.932 
       0.809972         517.088         148.461 
       0.816124         516.872          146.04 
       0.822261         508.679          143.68 
       0.828378         506.309         141.378 
       0.834502         501.485         139.125 
       0.840667         496.897         136.907 
       0.846816         494.805         134.744 
       0.852925         489.678         132.642 
       0.859047          490.21         130.581 
       0.865192         484.585         128.557 
       0.871341         480.481         126.575 
       0.877463         478.658         124.645 
       0.883569         474.094          122.76 
       0.889708         471.642         120.906 
       0.895864         467.561         119.085 
       0.902008         465.114         117.306 
       0.908149         461.424         115.565 
       0.914301         457.205         113.857 
       0.920448         454.138         112.185 
       0.926574         448.461         110.553 
       0.932687         448.645         108.958 
       0.938823          443.32         107.388 
       0.944975           443.8         105.847 
       0.951105         437.715         104.341 
       0.957225         434.678         102.867 
       0.963368         430.939         101.418 
       0.969511         429.102         99.9959 
       0.975621         425.771         98.6094 
       0.981748         424.647         97.2459 
       0.987916         421.287         95.8997 
        0.99406         414.487         94.5843 
        1.00019          414.33         93.2964 
        1.00632         411.697         92.0339 
        1.01246         408.303         90.7931 
        1.01859         408.427         89.5774 
        1.02471         402.842         88.3856 
        1.03085         400.535         87.2116 
        1.03698         399.268         86.0615 
        1.04314         395.624         84.9276 
        1.04929         391.433         83.8168 
        1.05541         391.165         82.7306 
        1.06154         386.288         81.6611 
        1.06769         383.824         80.6091 
        1.07382         382.088         79.5793 
        1.07993         379.668           78.57 
        1.08607         378.617         77.5741 
        1.09222         375.115         76.5947 
        1.09836         372.625         75.6335 
        1.10449          368.81           74.69 
        1.11063         365.839         73.7618 
        1.11677          365.63         72.8497 
         1.1229         363.528         71.9549 
        1.12903         359.936         71.0744 
        1.13518         356.854          70.208 
        1.14131         355.566         69.3567 
        1.14745          353.07         68.5201 
        1.15359         350.643         67.6972 
        1.15973         348.746         66.8877 
        1.16584         346.101         66.0951 
        1.17197         345.183         65.3143 
        1.17811         342.051         64.5439 
        1.18424         338.969         63.7882 
        1.19038         337.278         63.0425 
        1.19652         335.008         62.3091 
        1.20267         333.926         61.5875 
        1.20881         332.111         60.8775 
        1.21495         329.006         60.1799 
        1.22108         327.469         59.4934 
         1.2272          325.04         58.8194 
        1.23334         322.756         58.1543 
        1.23949         321.457          57.498 
        1.24562         319.392         56.8537 
        1.25174         316.194         56.2204 
        1.25789         313.956         55.5948 
        1.26402         312.612         54.9799 
        1.27014         310.181         54.3759 
        1.27628         308.556         53.7792 
        1.28244         307.806         53.1904 
        1.28858         304.462         52.6112 
        1.29471         301.882          52.042 
        1.30084         300.963         51.4818 
        1.30697         298.715         50.9291 
        1.31312         296.207         50.3837 
        1.31925         296.118         49.8481 
        1.32537         294.547         49.3209 
        1.33151         291.172         48.7995 
        1.33765         289.352          48.286 
        1.34378         288.226         47.7809 
        1.34992         286.234         47.2828 
        1.35606         285.414         46.7907 
         1.3622         283.234         46.3066 
        1.36833         281.062         45.8305 
        1.37445         279.546         45.3614 
        1.38059         276.765         44.8975 
        1.38675         276.102          44.439 
        1.39288         273.805         43.9887 
        1.39901         272.963          43.545 
        1.40515         271.031         43.1064 
         1.4113         269.367         42.6741 
        1.41742          267.85         42.2494 
        1.42355         265.158         41.8297 
         1.4297         264.056         41.4145 
        1.43585         262.394         41.0051 
        1.44198          261.01         40.6029 
        1.44809         259.589         40.2068 
        1.45423         257.234         39.8146 
        1.46036           256.5         39.4283 
        1.46649         254.146         39.0471 
        1.47263         252.465         38.6706 
        1.47877         251.309         38.2993 
        1.48491         249.579         37.9323 
        1.49104         248.694         37.5709 
        1.49718         246.264          37.214 
        1.50333         245.041         36.8612 
        1.50947         243.585         36.5136 
         1.5156         241.558         36.1711 
        1.52172         240.881         35.8331 
        1.52787         238.981         35.4987 
          1.534         237.996          35.169 
        1.54013         235.728         34.8438 
        1.54627         235.216         34.5222 
        1.55241         233.064         34.2046 
        1.55855         231.865         33.8915 
        1.56467         230.304         33.5832 
         1.5708         230.084         33.2779 
        1.57695         227.458         32.9759 
        1.58308         226.547         32.6784 
        1.58922         224.207         32.3844 
        1.59535         222.916         32.0942 
         1.6015         222.615         31.8071 
        1.60764          220.72         31.5236 
        1.61376         218.866         31.2445 
        1.61989         217.823         30.9685 
        1.62604         216.769         30.6952 
        1.63218         215.496         30.4255 
        1.63831         214.151         30.1596 
        1.64444         213.188         29.8968 
        1.65059         211.261         29.6365 
        1.65673         210.532         29.3796 
        1.66285         209.184         29.1265 
        1.66898          207.65         28.8764 
        1.67512         207.109         28.6286 
        1.68127         204.678         28.3836 
         1.6874         203.686          28.142 
        1.69353         202.706         27.9034 
        1.69967         201.355          27.667 
        1.70581         200.148         27.4334 
        1.71193         198.871         27.2035 
        1.71806         198.105         26.9757 
        1.72421         196.505           26.75 
        1.73035         195.781         26.5272 
        1.73649         194.599          26.307 
        1.74262         193.277         26.0895 
        1.74876         192.323         25.8743 
        1.75489         190.631          25.662 
        1.76101         189.666         25.4522 
        1.76715         188.902         25.2444 
        1.77329         187.949         25.0387 
        1.77943         186.733         24.8352 
        1.78557         185.534         24.6343 
        1.79171         184.265         24.4356 
        1.79785         182.971         24.2391 
        1.80399         182.031         24.0447 
        1.81012         180.904         23.8528 
        1.81625          180.18         23.6631 
        1.82239         178.772         23.4751 
        1.82853         178.148         23.2893 
        1.83466         176.859         23.1057 
        1.84078         176.029         22.9243 
        1.84692         174.485         22.7445 
        1.85306         173.979         22.5664 
         1.8592         172.564         22.3906 
        1.86533         171.686         22.2167 
        1.87147         170.443         22.0445 
        1.87761         170.043          21.874 
        1.88375         168.048         21.7056 
        1.88988         167.321         21.5391 
        1.89601         166.552         21.3743 
        1.90215         165.364         21.2111 
        1.90829         164.642         21.0496 
        1.91442          163.66         20.8899 
        1.92056         162.825         20.7319 
         1.9267           161.7         20.5755 
        1.93284         160.988         20.4205 
        1.93897         159.839         20.2675 
        1.94509         159.155         20.1163 
        1.95123         158.274         19.9664 
        1.95737         157.677         19.8178 
        1.96349         156.467         19.6712 
        1.96964         155.256         19.5256 
        1.97578         154.384         19.3814 
        1.98192         153.539          19.239 
        1.98805         152.436          19.098 
        1.99419         151.729         18.9584 
        2.00033         150.955         18.8202 
        2.00647         150.267         18.6833 
         2.0126         148.875         18.5481 
        2.01874         148.487          18.414 
        2.02488         147.705         18.2811 
        2.03101          146.47         18.1498 
        2.03714         145.611         18.0199 
        2.04328         144.918         17.8911 
        2.04941         144.025         17.7637 
        2.05554         143.204         17.6376 
        2.06167         142.912         17.5126 
        2.06781         141.929         17.3888 
        2.07396         140.848          17.266 
        2.08009         140.056         17.1446 
        2.08622         139.252         17.0246 
        2.09237         138.396         16.9054 
        2.09851          137.65         16.7874 
        2.10464         137.128         16.6707 
        2.11077          136.23         16.5552 
        2.11691          135.53         16.4406 
        2.12305          134.29         16.3271 
        2.12918          133.86         16.2149 
        2.13531         133.161         16.1038 
        2.14145         132.176         15.9935 
         2.1476         131.492          15.884 
        2.15372         130.976         15.7762 
        2.15985         130.472         15.6692 
        2.16599         129.294         15.5629 
        2.17213         128.651         15.4578 
        2.17827         128.085         15.3536 
         2.1844         127.317         15.2505 
        2.19054          126.54         15.1483 
        2.19666         125.853         15.0472 
         2.2028         125.107          14.947 
        2.20893          124.51         14.8476 
        2.21508         123.667         14.7489 
        2.22122         123.021         14.6512 
        2.22736         122.271         14.5546 
        2.23349         121.718         14.4588 
        2.23962         120.997         14.3639 
        2.24577         120.467         14.2697 
         2.2519         119.716         14.1765 
        2.25802         118.872         14.0843 
        2.26417         118.276         13.9927 
        2.27031         117.467         13.9018 
        2.27644          116.88          13.812 
        2.28257          116.57         13.7229 
        2.28872         115.814         13.6345 
        2.29486         115.097         13.5469 
        2.30099         114.595         13.4603 
        2.30712         113.861         13.3743 
        2.31326         113.166          13.289 
         2.3194         112.567         13.2045 
        2.32553          111.96         13.1208 
        2.33166         111.636          13.038 
         2.3378          110.89         12.9557 
        2.34394         110.483         12.8741 
        2.35007         109.734         12.7933 
        2.35619         108.947         12.7133 
        2.36233         108.519         12.6338 
        2.36848         107.765         12.5549 
        2.37462         107.395         12.4767 
        2.38075         106.889         12.3994 
        2.38689         106.025         12.3226 
        2.39303         105.441         12.2465 
        2.39916         104.855         12.1711 
        2.40529          104.63         12.0963 
        2.41143         104.069         12.0221 
        2.41757         103.312         11.9486 
         2.4237         102.713         11.8757 
        2.42983         102.171         11.8035 
        2.43598         101.575         11.7317 
        2.44211         101.215         11.6606 
        2.44823         100.756         11.5903 
        2.45437         100.047         11.5203 
        2.46052         99.4379         11.4509 
        2.46665         98.9042         11.3821 
        2.47279         98.4821          11.314 
        2.47892         97.9687         11.2464 
        2.48507         97.3046         11.1792 
         2.4912         96.9503         11.1128 
