# k  (h/Mpc)    Pcb(k)  (Mpc/h)^3    Pcb_linear(k)  (Mpc/h)^3
     0.00783031         10622.4         10764.5 
       0.013688         13975.7         13879.8 
       0.019231           14557         14548.8 
      0.0249154         13622.4         13890.8 
      0.0312784         12262.2         12405.1 
      0.0375637         10770.2         10802.5 
      0.0433917         9335.09         9517.39 
      0.0492413         8444.03          8527.6 
      0.0555754         7529.03         7769.06 
      0.0619321         7207.36         7228.91 
       0.067871          6606.3          6809.7 
      0.0738098          6184.1         6384.81 
      0.0800417         5629.58         5884.88 
      0.0862327         5162.68         5336.54 
      0.0921407         4718.12         4803.22 
      0.0982031         4205.11         4295.37 
       0.104506         3890.63         3851.77 
       0.110769         3559.16         3514.71 
       0.116806          3313.2         3281.28 
       0.122832         3157.38         3114.69 
       0.129052         2955.28            2980 
       0.135211         2830.76         2852.49 
       0.141259         2727.92          2711.8 
       0.147318         2586.16         2548.19 
       0.153489         2381.45         2364.26 
       0.159709         2244.34          2176.3 
       0.165845         2138.44         2004.77 
       0.171974         1998.28          1859.3 
       0.178125         1891.69         1744.07 
       0.184229         1810.16         1657.85 
        0.19034          1704.9         1592.09 
       0.196428         1680.75         1537.12 
       0.202534         1628.77         1483.18 
       0.208729         1559.32         1422.96 
       0.214876         1490.62         1355.43 
       0.220989          1444.2         1282.41 
       0.227147         1372.69         1207.54 
        0.23329         1315.61         1136.79 
       0.239377         1289.35         1074.64 
       0.245482         1205.52         1022.25 
       0.251667         1196.86         979.037 
       0.257832         1152.36          943.66 
       0.263955         1116.78         913.025 
       0.270079          1080.2         883.755 
        0.27624         1070.36         853.325 
       0.282372         1025.38         821.047 
        0.28843         1011.96         787.418 
       0.294538         962.225         752.976 
       0.300721         957.968         719.193 
        0.30691         916.438         687.916 
       0.313033         899.041          660.36 
       0.319153         878.698         636.309 
       0.325316         851.126         615.137 
        0.33145         830.637         596.175 
       0.337538         819.571         578.444 
       0.343633         797.238         560.943 
       0.349808         771.247         542.968 
       0.355968         766.693         524.713 
       0.362074         755.626          506.53 
       0.368217         734.109         488.634 
       0.374374         704.823         471.529 
       0.380519          702.76         455.661 
       0.386598         685.632         441.273 
       0.392688         683.276         428.079 
        0.39888         663.119         415.707 
       0.405048         652.531         404.081 
       0.411186          642.23         392.913 
       0.417313         629.886         381.964 
       0.423458         619.687         371.054 
       0.429607         608.913         360.256 
       0.435692         595.763         349.791 
       0.441815         591.776         339.596 
       0.447964         579.389         329.826 
       0.454126          567.73         320.594 
       0.460267         558.051         311.928 
       0.466387         552.036         303.782 
        0.47254         542.731         296.004 
       0.478662         541.017          288.57 
       0.484765         524.816         281.366 
       0.490885         520.476         274.311 
       0.497035         510.505         267.374 
       0.503198          504.54         260.579 
       0.509342         500.252         253.989 
       0.515458         495.979         247.656 
       0.521598         485.152         241.556 
       0.527764         475.751         235.686 
       0.533884         474.199         230.105 
           0.54         467.932         224.757 
       0.546137         466.096         219.592 
       0.552299         457.247         214.573 
       0.558452          454.75           209.7 
       0.564573         447.681         204.973 
       0.570708         441.486          200.36 
       0.576825         431.837         195.888 
       0.582926         430.894         191.557 
       0.589034         426.942         187.352 
       0.595184         423.018         183.255 
       0.601379          417.94         179.271 
       0.607522         411.581         175.457 
       0.613639         410.575         171.783 
       0.619772         400.349         168.211 
       0.625918         399.369         164.732 
       0.632068         393.601         161.342 
       0.638161         392.148         158.073 
         0.6443         384.944         154.867 
       0.650464         382.381         151.737 
       0.656582         380.905         148.716 
       0.662703         378.312         145.777 
       0.668861         371.529         142.903 
       0.675024         368.262         140.108 
       0.681124         366.241         137.419 
       0.687237         362.471           134.8 
       0.693381         357.506         132.241 
       0.699536         353.779         129.745 
       0.705665         351.773         127.325 
       0.711789         348.759         124.967 
       0.717957         346.133         122.652 
        0.72409          342.93         120.407 
       0.730186         339.353         118.232 
       0.736317         336.096         116.098 
       0.742472         334.719         114.011 
       0.748622         331.358         111.979 
        0.75476         328.245         110.002 
       0.760888         324.264         108.078 
       0.767043          324.64         106.194 
       0.773185         320.097          104.36 
       0.779291           315.4         102.579 
       0.785407         314.481         100.838 
       0.791564         310.944         99.1266 
       0.797719         308.452         97.4555 
       0.803834         306.249         95.8337 
       0.809972         304.537         94.2433 
       0.816124         304.635         92.6858 
       0.822261         299.579         91.1683 
       0.828378         297.866         89.6899 
       0.834502         296.399         88.2437 
       0.840667         292.398         86.8205 
       0.846816          291.13         85.4334 
       0.852925         289.102         84.0857 
       0.859047         287.304         82.7648 
       0.865192         284.483         81.4682 
       0.871341         282.108         80.1989 
       0.877463         280.329         78.9626 
       0.883569         278.846         77.7558 
       0.889708         276.282         76.5683 
       0.895864         272.947         75.4027 
       0.902008         272.259         74.2641 
       0.908149         270.871         73.1499 
       0.914301         267.525          72.057 
       0.920448         265.567         70.9877 
       0.926574         263.705         69.9441 
       0.932687         263.716         68.9239 
       0.938823         260.392         67.9206 
       0.944975         259.055         66.9352 
       0.951105         257.455         65.9731 
       0.957225         255.236         65.0318 
       0.963368         252.205         64.1059 
       0.969511         250.977         63.1982 
       0.975621         248.914         62.3132 
       0.981748         249.095          61.443 
       0.987916         246.363         60.5842 
        0.99406         243.551         59.7452 
        1.00019         243.675         58.9239 
        1.00632          241.56          58.119 
        1.01246         239.591         57.3281 
        1.01859         239.388         56.5534 
        1.02471         236.454         55.7941 
        1.03085          234.13         55.0463 
        1.03698         233.366         54.3139 
        1.04314         231.371          53.592 
        1.04929         229.658         52.8849 
        1.05541         229.559         52.1936 
        1.06154         226.896         51.5131 
        1.06769         226.483         50.8437 
        1.07382         224.766         50.1887 
        1.07993         222.873         49.5467 
        1.08607         222.102         48.9134 
        1.09222         220.605         48.2907 
        1.09836         218.667         47.6797 
        1.10449         216.574           47.08 
        1.11063         214.842         46.4901 
        1.11677         214.627         45.9106 
         1.1229         212.829         45.3421 
        1.12903         211.624         44.7828 
        1.13518         210.482         44.2325 
        1.14131         208.672         43.6919 
        1.14745         208.325         43.1607 
        1.15359         206.432         42.6383 
        1.15973         205.701         42.1244 
        1.16584         203.453         41.6213 
        1.17197         203.069         41.1258 
        1.17811         201.431          40.637 
        1.18424          200.28         40.1576 
        1.19038         199.646         39.6846 
        1.19652         198.137         39.2194 
        1.20267         197.328         38.7619 
        1.20881         195.484         38.3117 
        1.21495         194.529         37.8695 
        1.22108         193.626         37.4344 
         1.2272         191.897         37.0073 
        1.23334         191.013         36.5858 
        1.23949         189.647           36.17 
        1.24562         188.743         35.7619 
        1.25174         186.602         35.3608 
        1.25789         185.699         34.9646 
        1.26402          184.84         34.5753 
        1.27014         183.544         34.1929 
        1.27628         182.668         33.8152 
        1.28244         182.273         33.4426 
        1.28858         180.605         33.0761 
        1.29471         178.843         32.7159 
        1.30084         178.236         32.3615 
        1.30697         177.065         32.0119 
        1.31312          176.12         31.6669 
        1.31925         175.247         31.3282 
        1.32537         174.215         30.9948 
        1.33151         172.564         30.6651 
        1.33765         171.984         30.3404 
        1.34378         170.948         30.0211 
        1.34992         170.158         29.7062 
        1.35606         169.529         29.3952 
         1.3622         168.154         29.0892 
        1.36833           166.8         28.7883 
        1.37445          165.76         28.4919 
        1.38059         165.033         28.1988 
        1.38675         164.023         27.9092 
        1.39288         163.247         27.6247 
        1.39901         162.975         27.3445 
        1.40515         161.432         27.0674 
         1.4113         160.001         26.7944 
        1.41742         159.485         26.5262 
        1.42355         158.276         26.2612 
         1.4297         157.462         25.9991 
        1.43585         156.155         25.7406 
        1.44198         155.781         25.4867 
        1.44809          154.85         25.2367 
        1.45423         153.675         24.9892 
        1.46036         152.985         24.7454 
        1.46649         152.005         24.5049 
        1.47263         151.226         24.2674 
        1.47877         150.438         24.0331 
        1.48491         148.986         23.8016 
        1.49104          148.73         23.5737 
        1.49718          147.07         23.3486 
        1.50333         146.671         23.1261 
        1.50947         146.088          22.907 
         1.5156         144.976         22.6911 
        1.52172         144.132         22.4779 
        1.52787         143.246         22.2671 
          1.534         142.615         22.0593 
        1.54013         141.453         21.8544 
        1.54627         140.967         21.6517 
        1.55241         139.868         21.4516 
        1.55855         139.158         21.2543 
        1.56467         138.586         21.0601 
         1.5708         137.586         20.8677 
        1.57695         136.876         20.6775 
        1.58308         136.201         20.4901 
        1.58922         135.582          20.305 
        1.59535          134.45         20.1221 
         1.6015         133.998         19.9413 
        1.60764         133.142         19.7629 
        1.61376         132.529         19.5871 
        1.61989         131.533         19.4133 
        1.62604         130.962         19.2412 
        1.63218         130.226         19.0714 
        1.63831         129.314          18.904 
        1.64444         128.859         18.7386 
        1.65059          128.18         18.5747 
        1.65673         126.931         18.4131 
        1.66285         126.811         18.2538 
        1.66898         125.928         18.0963 
        1.67512          125.36         17.9404 
        1.68127         124.335         17.7862 
         1.6874         123.341         17.6342 
        1.69353         123.018         17.4841 
        1.69967         122.451         17.3353 
        1.70581         121.639         17.1884 
        1.71193          121.08         17.0438 
        1.71806         120.289         16.9005 
        1.72421         119.636         16.7586 
        1.73035         119.145         16.6185 
        1.73649         118.348           16.48 
        1.74262         117.689         16.3432 
        1.74876         117.248         16.2079 
        1.75489         116.108         16.0744 
        1.76101         115.708         15.9425 
        1.76715         114.815         15.8119 
        1.77329         114.612         15.6826 
        1.77943         113.634         15.5547 
        1.78557          113.09         15.4284 
        1.79171          112.41         15.3035 
        1.79785          111.84           15.18 
        1.80399         111.197         15.0579 
        1.81012         110.664         14.9373 
        1.81625         109.971         14.8181 
        1.82239         109.679            14.7 
        1.82853         109.101         14.5832 
        1.83466         108.188         14.4679 
        1.84078         107.957         14.3539 
        1.84692         107.015          14.241 
        1.85306         106.447         14.1291 
         1.8592         105.847         14.0187 
        1.86533         105.245         13.9095 
        1.87147         104.481         13.8013 
        1.87761         104.188         13.6943 
        1.88375         103.375         13.5885 
        1.88988         102.829         13.4839 
        1.89601         102.288         13.3804 
        1.90215         101.899         13.2779 
        1.90829         101.201         13.1765 
        1.91442         100.843         13.0762 
        1.92056         100.122         12.9771 
         1.9267         99.7141         12.8788 
        1.93284         99.1317         12.7816 
        1.93897         98.4923         12.6855 
        1.94509         98.1766         12.5906 
        1.95123         97.5693         12.4965 
        1.95737         97.1045         12.4032 
        1.96349         96.4642         12.3112 
        1.96964         95.6954         12.2198 
        1.97578         95.4938         12.1293 
        1.98192         94.9582           12.04 
        1.98805         94.1008         11.9515 
        1.99419         93.8246         11.8639 
        2.00033         93.3519         11.7771 
        2.00647          92.805         11.6913 
         2.0126         92.2907         11.6064 
        2.01874         91.7163         11.5223 
        2.02488          91.217         11.4389 
        2.03101         90.7977         11.3566 
        2.03714         90.2028         11.2751 
        2.04328         89.8022         11.1943 
        2.04941         89.2792         11.1144 
        2.05554         88.8753         11.0353 
        2.06167         88.3487         10.9569 
        2.06781         87.8432         10.8793 
        2.07396         87.3364         10.8022 
        2.08009         86.8714         10.7261 
        2.08622         86.5397         10.6508 
        2.09237         85.9079         10.5761 
        2.09851         85.6585         10.5021 
        2.10464          85.047         10.4289 
        2.11077         84.6628         10.3565 
        2.11691         84.3017         10.2847 
        2.12305         83.7022         10.2135 
        2.12918         83.2484         10.1432 
        2.13531         82.9773         10.0735 
        2.14145         82.1618         10.0044 
         2.1476         81.9162         9.93577 
        2.15372         81.4746         9.86816 
        2.15985         81.0704         9.80112 
        2.16599         80.7083         9.73452 
        2.17213         80.1623          9.6686 
        2.17827         79.7945         9.60332 
         2.1844         79.2918          9.5387 
        2.19054         79.1088         9.47465 
        2.19666         78.5086         9.41129 
         2.2028          78.314         9.34845 
        2.20893         77.6602         9.28616 
        2.21508          77.209         9.22437 
        2.22122         76.9717         9.16312 
        2.22736         76.4871         9.10257 
        2.23349         76.1741         9.04257 
        2.23962         75.6285         8.98309 
        2.24577         75.2349         8.92409 
         2.2519         75.0454         8.86571 
        2.25802         74.5074         8.80795 
        2.26417         74.0369         8.75054 
        2.27031         73.7401         8.69359 
        2.27644         73.3759         8.63732 
        2.28257         72.8505         8.58155 
        2.28872         72.5312         8.52618 
        2.29486           72.17          8.4713 
        2.30099          71.714         8.41702 
        2.30712          71.485          8.3632 
        2.31326         71.0756         8.30976 
         2.3194         70.7331         8.25682 
        2.32553         70.2747         8.20443 
        2.33166         69.8531         8.15252 
         2.3378         69.5093         8.10098 
        2.34394         69.2293         8.04989 
        2.35007         68.7147          7.9993 
        2.35619         68.3377         7.94922 
        2.36233         68.0729         7.89944 
        2.36848         67.7679         7.84999 
        2.37462         67.4021         7.80108 
        2.38075         67.1481         7.75262 
        2.38689         66.6757         7.70454 
        2.39303         66.4332         7.65688 
        2.39916         66.0553         7.60968 
        2.40529         65.7387         7.56287 
        2.41143         65.3337         7.51643 
        2.41757         65.0839         7.47037 
         2.4237         64.7843         7.42477 
        2.42983         64.3279         7.37956 
        2.43598         64.0369         7.33461 
        2.44211         63.6956         7.29011 
        2.44823         63.4096         7.24608 
        2.45437         62.9888         7.20229 
        2.46052          62.652         7.15884 
        2.46665         62.3761         7.11582 
        2.47279         62.0249         7.07317 
        2.47892         61.7586         7.03084 
        2.48507         61.3627         6.98882 
         2.4912          61.191         6.94722 
