# k  (h/Mpc)    P(k)  (Mpc/h)^3    P_linear(k)  (Mpc/h)^3
     0.00783031          2984.3         3015.88 
       0.013688         3416.88         3467.85 
       0.019231         3290.26         3312.73 
      0.0249154         2910.82         2903.89 
      0.0312784          2388.9         2389.72 
      0.0375637         1954.22         1960.22 
      0.0433917            1676         1671.11 
      0.0492413         1474.31          1476.1 
      0.0555754         1343.43         1337.22 
      0.0619321         1218.41         1231.81 
       0.067871         1133.14         1134.99 
      0.0738098         1027.73         1027.06 
      0.0800417         908.716         904.275 
      0.0862327         786.805         784.977 
      0.0921407         689.265         685.975 
      0.0982031         614.272         606.811 
       0.104506         550.394          549.19 
       0.110769         513.873         511.503 
       0.116806         492.138         485.688 
       0.122832         464.687         462.439 
       0.129052         439.599         435.356 
       0.135211         410.632         403.457 
       0.141259         373.845         368.822 
       0.147318         337.507         334.356 
       0.153489         308.575         303.101 
       0.159709          285.85         277.802 
       0.165845          263.05         259.269 
       0.171974         254.557         245.882 
       0.178125         243.338         235.475 
       0.184229         231.102          225.97 
        0.19034         222.966         215.696 
       0.196428          211.62         204.091 
       0.202534         195.877         191.407 
       0.208729         186.385          178.41 
       0.214876         175.758         166.426 
       0.220989          162.97         156.135 
       0.227147         157.127         147.651 
        0.23329         150.401         140.846 
       0.239377          145.55         135.215 
       0.245482         139.094         130.078 
       0.251667         132.803         124.899 
       0.257832         129.672         119.496 
       0.263955          122.11         113.895 
       0.270079         116.417         108.257 
        0.27624         110.636         102.815 
       0.282372         106.185         97.8595 
        0.28843         103.763         93.5232 
       0.294538         99.0804         89.7037 
       0.300721         94.7336         86.2902 
        0.30691         92.7144         83.1624 
       0.313033         88.9227         80.2024 
       0.319153          87.017         77.2759 
       0.325316         83.1463         74.3301 
        0.33145         80.0203         71.4235 
       0.337538          77.224         68.6236 
       0.343633         74.8383         65.9683 
       0.349808         72.0977         63.4694 
       0.355968         69.8213         61.1827 
       0.362074         68.3445         59.0961 
       0.368217         66.2637         57.1429 
       0.374374         64.5983         55.2857 
       0.380519         61.8929         53.4966 
       0.386598         60.1054         51.7726 
       0.392688         58.1669         50.0848 
        0.39888         57.0063         48.4205 
       0.405048         55.5289         46.8286 
       0.411186         53.9868         45.3205 
       0.417313         52.4008         43.8989 
       0.423458         50.8427          42.554 
       0.429607          49.887         41.2798 
       0.435692         49.0266         40.0796 
       0.441815         47.1459         38.9206 
       0.447964         45.6621          37.796 
       0.454126         44.8281         36.7053 
       0.460267         44.3007          35.654 
       0.466387         43.0128         34.6423 
        0.47254         42.3399         33.6638 
       0.478662         40.8978         32.7312 
       0.484765         40.0384         31.8417 
       0.490885         38.8482         30.9872 
       0.497035         38.2716         30.1636 
       0.503198         37.4259         29.3704 
       0.509342         36.3561         28.6081 
       0.515458         35.8324         27.8743 
       0.521598         34.9598         27.1614 
       0.527764         34.4243         26.4694 
       0.533884         33.7144          25.806 
           0.54         32.9943         25.1662 
       0.546137         32.0041         24.5466 
       0.552299         31.4122         23.9467 
       0.558452         30.7158         23.3692 
       0.564573         30.4339         22.8146 
       0.570708         29.6226         22.2772 
       0.576825         29.2184         21.7586 
       0.582926         28.6957         21.2574 
       0.589034         28.0989         20.7711 
       0.595184         27.7396         20.2968 
       0.601379         26.9896         19.8343 
       0.607522         26.4992           19.39 
       0.613639         26.1137         18.9613 
       0.619772         25.6148         18.5449 
       0.625918         25.1357         18.1404 
       0.632068         24.8862         17.7481 
       0.638161          24.367          17.371 
         0.6443         23.9937         17.0023 
       0.650464         23.3809          16.643 
       0.656582         23.2333         16.2967 
       0.662703         22.9102         15.9601 
       0.668861         22.3103         15.6311 
       0.675024         22.0181         15.3112 
       0.681124         21.8986         15.0036 
       0.687237         21.4342         14.7039 
       0.693381         20.9843         14.4112 
       0.699536         20.8607          14.126 
       0.705665         20.4526         13.8499 
       0.711789          20.111         13.5815 
       0.717957         19.6964         13.3184 
        0.72409         19.5057         13.0638 
       0.730186         19.4029         12.8174 
       0.736317          18.984          12.576 
       0.742472         18.7501         12.3401 
       0.748622         18.4549         12.1104 
        0.75476         17.9964         11.8872 
       0.760888         17.9436           11.67 
       0.767043         17.6122         11.4574 
       0.773185         17.4011         11.2506 
       0.779291         17.2102         11.0502 
       0.785407         16.9422         10.8543 
       0.791564          16.819         10.6621 
       0.797719         16.4305         10.4746 
       0.803834         16.3651         10.2929 
       0.809972         16.0399         10.1148 
       0.816124         15.8701         9.94066 
       0.822261         15.6853         9.77107 
       0.828378         15.5185         9.60598 
       0.834502         15.3456          9.4446 
       0.840667         15.1696          9.2859 
       0.846816         14.8367         9.13132 
       0.852925          14.794         8.98126 
       0.859047         14.6069         8.83428 
       0.865192         14.3977         8.69012 
       0.871341          14.217         8.54911 
       0.877463         14.0387         8.41188 
       0.883569         13.9507         8.27804 
       0.889708         13.7201         8.14643 
       0.895864         13.5432         8.01737 
       0.902008         13.3973         7.89139 
       0.908149         13.2065         7.76821 
       0.914301         13.1246         7.64746 
       0.920448         12.9448         7.52942 
       0.926574         12.8558         7.41429 
       0.932687         12.6584         7.30183 
       0.938823         12.4836         7.19131 
       0.944975         12.4126         7.08284 
       0.951105         12.2653         6.97702 
       0.957225         12.1766         6.87355 
       0.963368         11.9841         6.77184 
       0.969511         11.8621          6.6722 
       0.975621         11.7559         6.57511 
       0.981748         11.6016         6.47972 
       0.987916         11.5217         6.38564 
        0.99406         11.3734         6.29379 
        1.00019         11.2944         6.20394 
        1.00632         11.2057         6.11594 
        1.01246         11.0623         6.02953 
        1.01859          10.947         5.94494 
        1.02471         10.8213         5.86208 
        1.03085         10.7667         5.78053 
        1.03698         10.6674         5.70072 
        1.04314         10.5282         5.62208 
        1.04929         10.3991         5.54512 
        1.05541         10.3385         5.46992 
        1.06154         10.2422         5.39593 
        1.06769         10.1605         5.32321 
        1.07382         10.0128         5.25208 
        1.07993         9.93059         5.18241 
        1.08607         9.87328         5.11373 
        1.09222         9.74926         5.04623 
        1.09836         9.68927         4.98003 
        1.10449         9.57987          4.9151 
        1.11063         9.53191         4.85126 
        1.11677         9.46103         4.78857 
         1.1229         9.36321         4.72711 
        1.12903          9.2791         4.66668 
        1.13518         9.17204         4.60726 
        1.14131         9.11171         4.54891 
        1.14745         8.97929         4.49161 
        1.15359         8.90383         4.43528 
        1.15973         8.84069         4.37991 
        1.16584         8.76217         4.32573 
        1.17197         8.67929         4.27239 
        1.17811         8.61665          4.2198 
        1.18424         8.55551         4.16825 
        1.19038         8.50823         4.11741 
        1.19652         8.41693         4.06744 
        1.20267         8.36762         4.01831 
        1.20881          8.2577            3.97 
        1.21495         8.20669         3.92256 
        1.22108         8.14614         3.87592 
         1.2272         8.07423         3.83014 
        1.23334         8.04158           3.785 
        1.23949         7.95572         3.74049 
        1.24562         7.89153         3.69682 
        1.25174          7.8483         3.65391 
        1.25789         7.75278         3.61156 
        1.26402         7.71597         3.56996 
        1.27014         7.67611         3.52912 
        1.27628         7.57942          3.4888 
        1.28244         7.56433         3.44904 
        1.28858         7.48622         3.40995 
        1.29471         7.40048         3.37155 
        1.30084         7.34609         3.33379 
        1.30697          7.3297         3.29655 
        1.31312         7.25629         3.25983 
        1.31925         7.21347         3.22378 
        1.32537          7.1531         3.18832 
        1.33151         7.09835         3.15326 
        1.33765         7.04729         3.11876 
        1.34378         7.03173         3.08484 
        1.34992         6.95833          3.0514 
        1.35606         6.89602         3.01839 
         1.3622         6.84182         2.98593 
        1.36833         6.81486         2.95402 
        1.37445         6.76092          2.9226 
        1.38059         6.70269         2.89153 
        1.38675         6.66747         2.86085 
        1.39288         6.61378         2.83073 
        1.39901         6.55919         2.80106 
        1.40515         6.52116         2.77175 
         1.4113         6.47232         2.74287 
        1.41742         6.44609         2.71452 
        1.42355         6.38225         2.68651 
         1.4297         6.34256         2.65882 
        1.43585         6.31464         2.63153 
        1.44198          6.2757         2.60473 
        1.44809         6.22553         2.57835 
        1.45423         6.17955         2.55224 
        1.46036         6.14449         2.52654 
        1.46649         6.10417         2.50119 
        1.47263         6.06919         2.47617 
        1.47877         6.02361          2.4515 
        1.48491         6.00396         2.42713 
        1.49104         5.95081         2.40314 
        1.49718         5.92405         2.37946 
        1.50333         5.87883         2.35607 
        1.50947         5.83872         2.33303 
         1.5156         5.81309         2.31034 
        1.52172         5.76875         2.28796 
        1.52787         5.74721         2.26582 
          1.534         5.70055         2.24401 
        1.54013         5.67952         2.22251 
        1.54627         5.63157         2.20125 
        1.55241          5.5872         2.18027 
        1.55855         5.57561         2.15959 
        1.56467         5.55044         2.13923 
         1.5708         5.49896         2.11908 
        1.57695         5.46058         2.09916 
        1.58308         5.42621         2.07955 
        1.58922         5.40877         2.06017 
        1.59535         5.38112         2.04104 
         1.6015         5.32228         2.02213 
        1.60764         5.30252         2.00347 
        1.61376         5.28043          1.9851 
        1.61989          5.2358         1.96694 
        1.62604         5.22112         1.94898 
        1.63218         5.19104         1.93124 
        1.63831         5.15908         1.91377 
        1.64444         5.11742         1.89651 
        1.65059         5.09523         1.87942 
        1.65673         5.07737         1.86256 
        1.66285         5.04466         1.84596 
        1.66898         5.02338         1.82955 
        1.67512          4.9918         1.81331 
        1.68127         4.94637         1.79725 
         1.6874         4.93124         1.78143 
        1.69353         4.89386          1.7658 
        1.69967          4.8778         1.75033 
        1.70581         4.84494         1.73505 
        1.71193         4.82137         1.72001 
        1.71806         4.79313         1.70511 
        1.72421         4.76656         1.69036 
        1.73035         4.74875         1.67581 
        1.73649         4.72467         1.66143 
        1.74262         4.68498         1.64723 
        1.74876         4.67873         1.63318 
        1.75489         4.65065         1.61933 
        1.76101           4.609         1.60565 
        1.76715         4.60772          1.5921 
        1.77329         4.57652          1.5787 
        1.77943         4.53938         1.56544 
        1.78557         4.53809         1.55236 
        1.79171         4.50722         1.53942 
        1.79785         4.49214         1.52663 
        1.80399         4.45378         1.51398 
        1.81012         4.43883          1.5015 
        1.81625          4.4098         1.48916 
        1.82239         4.39484         1.47695 
        1.82853         4.36247         1.46487 
        1.83466          4.3319         1.45295 
        1.84078         4.31873         1.44117 
        1.84692          4.2994          1.4295 
        1.85306         4.27785         1.41794 
         1.8592         4.26394         1.40653 
        1.86533         4.24342         1.39526 
        1.87147          4.2252         1.38409 
        1.87761         4.20261         1.37304 
        1.88375         4.17806         1.36213 
        1.88988         4.15913         1.35135 
        1.89601         4.13568         1.34067 
        1.90215         4.11337         1.33011 
        1.90829         4.10366         1.31966 
        1.91442          4.0795         1.30933 
        1.92056         4.07063         1.29911 
         1.9267         4.03944           1.289 
        1.93284          4.0289         1.27898 
        1.93897         4.00144          1.2691 
        1.94509         3.96794         1.25933 
        1.95123         3.97012         1.24965 
        1.95737         3.95099         1.24006 
        1.96349         3.92626          1.2306 
        1.96964         3.90458          1.2212 
        1.97578         3.89234          1.2119 
        1.98192         3.87106         1.20272 
        1.98805         3.85792         1.19363 
        1.99419         3.84119         1.18464 
        2.00033          3.8129         1.17573 
        2.00647         3.80712         1.16692 
         2.0126          3.7906         1.15821 
        2.01874          3.7689         1.14958 
        2.02488         3.75924         1.14103 
        2.03101         3.73025         1.13258 
        2.03714         3.71321         1.12423 
        2.04328         3.70333         1.11595 
        2.04941         3.68211         1.10776 
        2.05554         3.67123         1.09966 
        2.06167         3.66017         1.09163 
        2.06781         3.63709         1.08368 
        2.07396         3.61997          1.0758 
        2.08009         3.60602         1.06801 
        2.08622         3.59889          1.0603 
        2.09237         3.58305         1.05266 
        2.09851         3.55773         1.04509 
        2.10464         3.54726          1.0376 
        2.11077         3.53305          1.0302 
        2.11691         3.51798         1.02286 
        2.12305         3.50014         1.01558 
        2.12918         3.48899          1.0084 
        2.13531         3.47433         1.00128 
        2.14145         3.45708        0.994217 
         2.1476         3.44074        0.987213 
        2.15372         3.42449        0.980311 
        2.15985         3.41847        0.973469 
        2.16599         3.40372        0.966672 
        2.17213          3.3987        0.959948 
        2.17827         3.36797         0.95329 
         2.1844         3.36113          0.9467 
        2.19054         3.35101        0.940171 
        2.19666           3.336        0.933712 
         2.2028          3.3107        0.927309 
        2.20893         3.31385        0.920963 
        2.21508         3.29118        0.914669 
        2.22122         3.27228        0.908431 
        2.22736         3.25982        0.902265 
        2.23349         3.24888        0.896158 
        2.23962         3.24034        0.890104 
        2.24577         3.22064        0.884101 
         2.2519         3.22265        0.878162 
        2.25802         3.18681        0.872286 
        2.26417         3.18457        0.866448 
        2.27031         3.17257        0.860658 
        2.27644         3.16052        0.854938 
        2.28257         3.14793        0.849271 
        2.28872         3.13421        0.843644 
        2.29486         3.12062        0.838069 
        2.30099         3.11284        0.832556 
        2.30712         3.09764         0.82709 
        2.31326         3.09013        0.821664 
         2.3194         3.07115         0.81629 
        2.32553         3.06317        0.810973 
        2.33166         3.05252        0.805706 
         2.3378         3.04337        0.800478 
        2.34394         3.02422        0.795296 
        2.35007         3.01597        0.790166 
        2.35619         3.01069        0.785088 
        2.36233         2.99214        0.780043 
        2.36848         2.98317        0.775032 
        2.37462         2.97441        0.770075 
        2.38075         2.96388        0.765167 
        2.38689         2.95435        0.760297 
        2.39303         2.93895         0.75547 
        2.39916         2.93093        0.750691 
        2.40529         2.91598        0.745953 
        2.41143         2.91165        0.741253 
        2.41757         2.90159        0.736591 
         2.4237         2.88875        0.731978 
        2.42983         2.87839        0.727404 
        2.43598         2.87037        0.722858 
        2.44211         2.85366        0.718358 
        2.44823         2.84611        0.713906 
        2.45437         2.83299         0.70948 
        2.46052         2.82723        0.705088 
        2.46665         2.81519        0.700741 
        2.47279         2.80276        0.696432 
        2.47892          2.7969        0.692156 
        2.48507         2.78702        0.687912 
         2.4912         2.77486        0.683712 
