# k  (h/Mpc)    P(k)  (Mpc/h)^3    P_linear(k)  (Mpc/h)^3
     0.00783031         913.402          924.04 
       0.013688         1075.24         1077.73 
       0.019231         1041.73         1041.74 
      0.0249154         919.407         923.371 
      0.0312784         770.478          770.06 
      0.0375637         643.447           641.2 
      0.0433917         554.498          554.46 
      0.0492413         496.373         495.532 
      0.0555754         450.448         451.972 
      0.0619321         417.937         416.255 
       0.067871         380.767         381.673 
      0.0738098         342.367         343.232 
      0.0800417         299.754         300.949 
      0.0862327         261.679          261.66 
      0.0921407         231.068         230.486 
      0.0982031         206.559         206.546 
       0.104506         190.882         189.552 
       0.110769         179.011         178.115 
       0.116806         169.245         169.271 
       0.122832         160.691         160.152 
       0.129052         148.967         149.128 
       0.135211         136.654         136.717 
       0.141259         124.837         124.193 
       0.147318         113.773         112.665 
       0.153489         103.775         102.968 
       0.159709         96.4763         95.6032 
       0.165845         91.7645         90.3605 
       0.171974         87.0349         86.3769 
       0.178125         83.5646          82.788 
       0.184229         79.8941         78.9847 
        0.19034         74.9473         74.6616 
       0.196428         70.7471         69.9491 
       0.202534         66.5087         65.1709 
       0.208729         61.7642         60.6833 
       0.214876         57.7227         56.8782 
       0.220989         55.0871          53.819 
       0.227147         52.1805         51.3632 
        0.23329         50.1146         49.3132 
       0.239377         48.3507         47.4314 
       0.245482         46.0928         45.5077 
       0.251667         44.4123         43.4376 
       0.257832         42.2076         41.2811 
       0.263955         40.1429         39.1496 
       0.270079         38.1669         37.1415 
        0.27624         36.6148         35.3348 
       0.282372         35.0568         33.7765 
        0.28843          33.546          32.446 
       0.294538         32.2992          31.254 
       0.300721         31.3641         30.1255 
        0.30691         30.0372         29.0163 
       0.313033         28.9454         27.9082 
       0.319153         27.5571         26.7954 
       0.325316         26.8517         25.6922 
        0.33145         25.7263         24.6455 
       0.337538         24.8032         23.6812 
       0.343633         23.8253         22.8013 
       0.349808         23.0901         21.9916 
       0.355968         22.3507         21.2477 
       0.362074         21.6025         20.5533 
       0.368217         20.9262         19.8778 
       0.374374         20.1825         19.2145 
       0.380519         19.6116         18.5637 
       0.386598         19.0145         17.9357 
       0.392688         18.4843         17.3314 
        0.39888         17.8457         16.7485 
       0.405048         17.3329         16.2034 
       0.411186         16.8417         15.6961 
       0.417313         16.2808          15.219 
       0.423458         15.8442          14.764 
       0.429607         15.3632         14.3268 
       0.435692         14.9085         13.9075 
       0.441815         14.5284         13.4971 
       0.447964         14.2106         13.0978 
       0.454126         13.6967         12.7118 
       0.460267          13.369         12.3427 
       0.466387          12.943         11.9917 
        0.47254         12.6669         11.6557 
       0.478662         12.3903         11.3366 
       0.484765         12.0067         11.0316 
       0.490885         11.7116         10.7374 
       0.497035         11.5246          10.452 
       0.503198         11.1904         10.1751 
       0.509342         10.9134         9.90762 
       0.515458         10.6289         9.65022 
       0.521598         10.3989         9.40106 
       0.527764         10.1234         9.16027 
       0.533884         9.94111         8.93025 
           0.54          9.6946         8.70892 
       0.546137         9.49351          8.4949 
       0.552299         9.29581         8.28756 
       0.558452         9.01844         8.08753 
       0.564573         8.86932         7.89481 
       0.570708         8.67601         7.70754 
       0.576825         8.45096         7.52662 
       0.582926         8.29206         7.35194 
       0.589034         8.05485         7.18272 
       0.595184         7.91772         7.01798 
       0.601379         7.73565         6.85749 
       0.607522         7.61364         6.70344 
       0.613639         7.49474         6.55483 
       0.619772         7.28453         6.41037 
       0.625918         7.19516         6.26998 
       0.632068         7.07383         6.13372 
       0.638161         6.89336         6.00273 
         0.6443         6.74955         5.87463 
       0.650464         6.60094         5.74981 
       0.656582         6.52776         5.62953 
       0.662703           6.398         5.51267 
       0.668861         6.28302         5.39849 
       0.675024         6.14751          5.2875 
       0.681124         6.02933         5.18078 
       0.687237         5.93552         5.07682 
       0.693381         5.83607         4.97527 
       0.699536         5.67852         4.87633 
       0.705665         5.60055         4.78053 
       0.711789         5.50625          4.6874 
       0.717957         5.40079         4.59612 
        0.72409         5.30617         4.50778 
       0.730186         5.22204         4.42231 
       0.736317         5.16397          4.3386 
       0.742472         5.07451         4.25676 
       0.748622         4.97778         4.17711 
        0.75476         4.87337         4.09968 
       0.760888         4.80144         4.02434 
       0.767043         4.74186         3.95061 
       0.773185         4.64016         3.87888 
       0.779291         4.58921         3.80935 
       0.785407         4.50922         3.74144 
       0.791564         4.44154         3.67476 
       0.797719         4.36702         3.60974 
       0.803834         4.31974         3.54672 
       0.809972         4.25756         3.48498 
       0.816124         4.17133         3.42459 
       0.822261         4.09573          3.3658 
       0.828378          4.0448         3.30857 
       0.834502         4.00542         3.25262 
       0.840667         3.91858         3.19762 
       0.846816         3.85505         3.14405 
       0.852925          3.8203         3.09204 
       0.859047         3.76252         3.04111 
       0.865192         3.71442         2.99116 
       0.871341         3.66845         2.94231 
       0.877463         3.61367         2.89477 
       0.883569         3.54779         2.84841 
       0.889708         3.49237         2.80284 
       0.895864         3.44816         2.75814 
       0.902008         3.40005         2.71452 
       0.908149         3.36224         2.67187 
       0.914301         3.30012         2.63007 
       0.920448         3.25712         2.58921 
       0.926574         3.20931         2.54936 
       0.932687         3.17216         2.51044 
       0.938823         3.13473          2.4722 
       0.944975          3.0911         2.43466 
       0.951105         3.05526         2.39805 
       0.957225         3.03472         2.36225 
       0.963368         2.98745         2.32706 
       0.969511          2.9422         2.29259 
       0.975621         2.89916           2.259 
       0.981748         2.87073           2.226 
       0.987916         2.83256         2.19346 
        0.99406         2.78457         2.16169 
        1.00019         2.75505         2.13061 
        1.00632         2.72481         2.10018 
        1.01246         2.69185         2.07029 
        1.01859         2.65857         2.04104 
        1.02471         2.62465         2.01238 
        1.03085         2.59353         1.98418 
        1.03698         2.55825         1.95658 
        1.04314         2.53376         1.92939 
        1.04929         2.50104         1.90278 
        1.05541         2.47168         1.87678 
        1.06154         2.44395          1.8512 
        1.06769         2.42335         1.82606 
        1.07382         2.38578         1.80147 
        1.07993          2.3531         1.77739 
        1.08607         2.34005         1.75366 
        1.09222         2.30728         1.73033 
        1.09836         2.28764         1.70746 
        1.10449         2.26093         1.68503 
        1.11063         2.22919         1.66297 
        1.11677         2.20718         1.64132 
         1.1229         2.18299          1.6201 
        1.12903         2.15556         1.59923 
        1.13518         2.13654         1.57871 
        1.14131         2.10587         1.55857 
        1.14745         2.07384         1.53878 
        1.15359         2.06259         1.51934 
        1.15973         2.03183         1.50023 
        1.16584         2.02097         1.48153 
        1.17197          1.9972         1.46313 
        1.17811         1.97992         1.44498 
        1.18424         1.96083         1.42719 
        1.19038         1.93834         1.40965 
        1.19652         1.91714         1.39241 
        1.20267         1.90057         1.37546 
        1.20881         1.87679          1.3588 
        1.21495         1.86159         1.34244 
        1.22108         1.84245         1.32635 
         1.2272         1.82886         1.31056 
        1.23334         1.80399           1.295 
        1.23949          1.7844         1.27965 
        1.24562         1.77216         1.26459 
        1.25174         1.75072          1.2498 
        1.25789           1.736         1.23519 
        1.26402         1.71437         1.22085 
        1.27014         1.69802         1.20677 
        1.27628         1.68959         1.19287 
        1.28244         1.66521         1.17916 
        1.28858         1.65309         1.16569 
        1.29471         1.63451         1.15245 
        1.30084         1.61723         1.13944 
        1.30697         1.60827          1.1266 
        1.31312         1.58244         1.11395 
        1.31925         1.57446         1.10152 
        1.32537          1.5592         1.08931 
        1.33151          1.5476         1.07723 
        1.33765         1.52847         1.06534 
        1.34378         1.51473         1.05366 
        1.34992         1.50671         1.04214 
        1.35606         1.48447         1.03077 
         1.3622         1.47744         1.01959 
        1.36833         1.46243          1.0086 
        1.37445         1.44623        0.997785 
        1.38059         1.43715        0.987091 
        1.38675         1.43019        0.976529 
        1.39288         1.41134        0.966164 
        1.39901         1.39706        0.955953 
        1.40515         1.38636        0.945868 
         1.4113         1.37482        0.935932 
        1.41742         1.36326        0.926176 
        1.42355         1.35613        0.916542 
         1.4297         1.33865        0.907015 
        1.43585         1.33008        0.897628 
        1.44198         1.32198        0.888409 
        1.44809         1.30496        0.879337 
        1.45423          1.2949        0.870358 
        1.46036         1.28366         0.86152 
        1.46649         1.27336        0.852802 
        1.47263         1.26152        0.844197 
        1.47877         1.24951        0.835714 
        1.48491         1.23988        0.827335 
        1.49104         1.23102        0.819088 
        1.49718         1.22286        0.810947 
        1.50333         1.21004        0.802903 
        1.50947         1.20289        0.794985 
         1.5156         1.19157        0.787185 
        1.52172         1.18174         0.77949 
        1.52787         1.17118        0.771883 
          1.534         1.16325        0.764386 
        1.54013         1.15237        0.756996 
        1.54627         1.14218        0.749691 
        1.55241         1.13283        0.742481 
        1.55855         1.12572        0.735375 
        1.56467         1.11831        0.728383 
         1.5708          1.1056        0.721461 
        1.57695         1.10052        0.714619 
        1.58308         1.09147        0.707881 
        1.58922         1.08293        0.701226 
        1.59535          1.0746        0.694659 
         1.6015          1.0661        0.688166 
        1.60764         1.05996        0.681759 
        1.61376         1.05113        0.675452 
        1.61989         1.04251         0.66922 
        1.62604         1.03331        0.663052 
        1.63218         1.02952        0.656965 
        1.63831         1.01848        0.650969 
        1.64444         1.01074        0.645046 
        1.65059         1.00534        0.639182 
        1.65673        0.995946        0.633397 
        1.66285        0.988684          0.6277 
        1.66898        0.984173        0.622071 
        1.67512        0.973018          0.6165 
        1.68127        0.966587        0.610992 
         1.6874        0.962977        0.605564 
        1.69353        0.951944        0.600204 
        1.69967         0.94494        0.594897 
        1.70581        0.941862        0.589656 
        1.71193          0.9329        0.584498 
        1.71806        0.928655         0.57939 
        1.72421        0.920659        0.574333 
        1.73035        0.912889        0.569342 
        1.73649        0.908342        0.564411 
        1.74262        0.901547        0.559543 
        1.74876        0.895067        0.554729 
        1.75489        0.886252        0.549981 
        1.76101        0.881503         0.54529 
        1.76715        0.876138        0.540647 
        1.77329        0.870789        0.536053 
        1.77943        0.862672         0.53151 
        1.78557        0.856693        0.527026 
        1.79171        0.853676        0.522593 
        1.79785        0.845913        0.518211 
        1.80399        0.840861        0.513879 
        1.81012        0.836152        0.509602 
        1.81625        0.829336        0.505376 
        1.82239        0.824084        0.501192 
        1.82853        0.815516        0.497057 
        1.83466        0.812412        0.492972 
        1.84078        0.806227        0.488938 
        1.84692        0.803171        0.484942 
        1.85306        0.796962        0.480986 
         1.8592        0.792118         0.47708 
        1.86533        0.785888         0.47322 
        1.87147        0.781811        0.469398 
        1.87761        0.776158        0.465616 
        1.88375        0.769533         0.46188 
        1.88988        0.766931         0.45819 
        1.89601        0.760767        0.454537 
        1.90215        0.755307        0.450922 
        1.90829         0.74969        0.447347 
        1.91442        0.746161        0.443811 
        1.92056        0.741659        0.440316 
         1.9267        0.736184        0.436856 
        1.93284        0.734049         0.43343 
        1.93897          0.7276        0.430047 
        1.94509        0.723115        0.426708 
        1.95123         0.71778        0.423395 
        1.95737        0.714008        0.420116 
        1.96349        0.708481        0.416879 
        1.96964         0.70521        0.413667 
        1.97578        0.700514        0.410487 
        1.98192        0.697295        0.407348 
        1.98805        0.691231         0.40424 
        1.99419        0.688993        0.401165 
        2.00033        0.686015         0.39812 
        2.00647        0.679045        0.395107 
         2.0126        0.676062        0.392131 
        2.01874        0.671876        0.389181 
        2.02488        0.668793        0.386258 
        2.03101        0.662452        0.383371 
        2.03714        0.657722        0.380516 
        2.04328         0.65683        0.377687 
        2.04941        0.651778        0.374889 
        2.05554         0.64764        0.372121 
        2.06167        0.643333        0.369377 
        2.06781        0.639702         0.36666 
        2.07396        0.635169        0.363967 
        2.08009        0.632466        0.361306 
        2.08622        0.628051        0.358674 
        2.09237        0.626269        0.356063 
        2.09851        0.622553        0.353477 
        2.10464        0.619386        0.350922 
        2.11077        0.615036        0.348395 
        2.11691        0.610715        0.345887 
        2.12305        0.607855        0.343403 
        2.12918        0.604326         0.34095 
        2.13531        0.600723         0.33852 
        2.14145        0.597352        0.336109 
         2.1476        0.593195        0.333718 
        2.15372        0.591154        0.331362 
        2.15985        0.586481        0.329027 
        2.16599        0.583148        0.326707 
        2.17213        0.580166        0.324413 
        2.17827        0.578293         0.32214 
         2.1844         0.57498        0.319892 
        2.19054        0.572207        0.317664 
        2.19666        0.568189        0.315461 
         2.2028        0.564992        0.313276 
        2.20893        0.562225        0.311111 
        2.21508        0.559791        0.308964 
        2.22122        0.554189        0.306837 
        2.22736        0.552014        0.304734 
        2.23349        0.551501        0.302651 
        2.23962        0.546961        0.300586 
        2.24577         0.54335        0.298539 
         2.2519         0.54046        0.296514 
        2.25802        0.537882         0.29451 
        2.26417        0.534268         0.29252 
        2.27031        0.531931        0.290546 
        2.27644        0.529357        0.288596 
        2.28257        0.527035        0.286664 
        2.28872        0.523744        0.284745 
        2.29486        0.520904        0.282845 
        2.30099        0.517651        0.280966 
        2.30712        0.515207        0.279103 
        2.31326          0.5132        0.277254 
         2.3194        0.511468        0.275423 
        2.32553        0.508544        0.273611 
        2.33166        0.505223        0.271816 
         2.3378        0.502464        0.270035 
        2.34394        0.499097        0.268269 
        2.35007        0.496963        0.266522 
        2.35619        0.495155        0.264792 
        2.36233        0.491247        0.263073 
        2.36848        0.489598        0.261366 
        2.37462        0.486506        0.259678 
        2.38075        0.485386        0.258006 
        2.38689        0.482306        0.256348 
        2.39303        0.480296        0.254704 
        2.39916        0.476582        0.253077 
        2.40529        0.475414        0.251463 
        2.41143        0.472971        0.249863 
        2.41757        0.470709        0.248276 
         2.4237        0.468638        0.246705 
        2.42983        0.466292        0.245148 
        2.43598        0.463954        0.243601 
        2.44211        0.462045        0.242069 
        2.44823        0.459333        0.240554 
        2.45437        0.457051        0.239047 
        2.46052         0.45579        0.237553 
        2.46665        0.452788        0.236073 
        2.47279        0.450492        0.234607 
        2.47892        0.447605        0.233152 
        2.48507        0.446054        0.231708 
         2.4912           0.444        0.230279 
