# k  (h/Mpc)    P(k)  (Mpc/h)^3    P_linear(k)  (Mpc/h)^3
     0.00783031          5084.6         5115.86 
       0.013688         6701.65          6826.2 
       0.019231         7287.21         7362.19 
      0.0249154         7214.08         7221.18 
      0.0312784         6578.71         6631.84 
      0.0375637         5841.25         5919.34 
      0.0433917         5288.29         5315.04 
      0.0492413         4771.91         4830.79 
      0.0555754         4418.51         4445.99 
      0.0619321         4043.37          4162.5 
       0.067871         3867.36         3937.84 
      0.0738098         3653.69          3709.4 
      0.0800417         3396.75         3441.52 
      0.0862327         3092.57         3147.77 
      0.0921407         2813.84         2860.52 
      0.0982031         2565.96         2584.16 
       0.104506         2300.26         2339.09 
       0.110769         2121.38         2149.03 
       0.116806         2020.52         2013.97 
       0.122832         1898.48         1914.78 
       0.129052         1821.62         1832.89 
       0.135211          1763.9         1755.63 
       0.141259         1660.91         1672.01 
       0.147318         1547.24         1576.37 
       0.153489         1459.47         1469.72 
       0.159709         1379.57         1360.75 
       0.165845         1257.16         1260.75 
       0.171974         1213.18         1175.05 
       0.178125         1156.21         1106.15 
       0.184229         1078.43          1053.6 
        0.19034         1055.62         1012.68 
       0.196428         1023.91         978.046 
       0.202534         966.483         944.125 
       0.208729         948.403         906.724 
       0.214876          913.74         865.263 
       0.220989         854.447         820.738 
       0.227147          833.32         775.169 
        0.23329         799.149         732.013 
       0.239377         778.112         693.932 
       0.245482         738.211         661.618 
       0.251667         709.364         634.722 
       0.257832         702.117         612.502 
       0.263955         666.798         593.138 
       0.270079         647.212         574.564 
        0.27624         621.062         555.296 
       0.282372         607.679         534.887 
        0.28843         603.147         513.659 
       0.294538         573.452         491.946 
       0.300721         553.311         470.627 
        0.30691         544.347         450.888 
       0.313033         521.948          433.45 
       0.319153         513.013         418.234 
       0.325316         501.054         404.786 
        0.33145         490.142         392.731 
       0.337538          474.18         381.408 
       0.343633         460.436          370.21 
       0.349808         448.831         358.664 
       0.355968         439.834         346.912 
       0.362074         428.892         335.194 
       0.368217         423.502         323.637 
       0.374374         414.735         312.612 
       0.380519         398.428         302.372 
       0.386598         392.698          293.11 
       0.392688         384.573         284.627 
        0.39888         375.248         276.659 
       0.405048         369.256         269.178 
       0.411186          365.97         261.964 
       0.417313         359.369         254.855 
       0.423458         349.801         247.767 
       0.429607         342.725         240.712 
       0.435692         336.341         233.862 
       0.441815         330.493         227.198 
       0.447964         322.335         220.809 
       0.454126          317.55          214.77 
       0.460267         313.954         209.128 
       0.466387         308.487         203.825 
        0.47254         304.853         198.754 
       0.478662         296.241         193.904 
       0.484765         293.042         189.203 
       0.490885         289.257         184.573 
       0.497035         285.978         180.003 
       0.503198         282.454         175.526 
       0.509342         275.029          171.18 
       0.515458         272.511         166.997 
       0.521598         266.592         162.963 
       0.527764         263.562         159.096 
       0.533884         263.267         155.426 
           0.54         257.369         151.906 
       0.546137         251.815         148.499 
       0.552299         250.475         145.187 
       0.558452         246.315         141.972 
       0.564573         244.731         138.848 
       0.570708         239.706         135.786 
       0.576825         236.441         132.811 
       0.582926         233.997         129.929 
       0.589034          231.21         127.136 
       0.595184         229.604         124.418 
       0.601379         224.567         121.772 
       0.607522         221.378         119.235 
       0.613639         219.672         116.791 
       0.619772         217.583         114.416 
       0.625918          215.81         112.104 
       0.632068         211.286         109.852 
       0.638161         208.944         107.674 
         0.6443         208.222         105.532 
       0.650464         204.706         103.437 
       0.656582         203.593         101.414 
       0.662703         201.718         99.4482 
       0.668861         197.973         97.5285 
       0.675024         197.987         95.6624 
       0.681124         195.012          93.867 
       0.687237           192.2         92.1158 
       0.693381         191.375         90.4015 
       0.699536         188.895         88.7275 
       0.705665         186.491         87.1028 
       0.711789         184.573         85.5203 
       0.717957         182.734         83.9663 
        0.72409         181.779         82.4599 
       0.730186         180.982              81 
       0.736317         177.895          79.568 
       0.742472         175.917         78.1659 
       0.748622         173.477         76.7995 
        0.75476         173.606         75.4693 
       0.760888         172.153         74.1733 
       0.767043         169.592         72.9033 
       0.773185         167.808         71.6663 
       0.779291         166.062         70.4656 
       0.785407          164.52         69.2913 
       0.791564         163.859         68.1367 
       0.797719         162.093         67.0094 
       0.803834          161.31         65.9152 
       0.809972         160.631         64.8417 
       0.816124          158.59           63.79 
       0.822261         156.813         62.7649 
       0.828378         156.726         61.7656 
       0.834502         153.989         60.7875 
       0.840667          153.57         59.8246 
       0.846816         152.334         58.8855 
       0.852925         150.811         57.9728 
       0.859047         149.724         57.0778 
       0.865192         148.455          56.199 
       0.871341         146.827         55.3384 
       0.877463         146.015         54.4999 
       0.883569         145.735         53.6813 
       0.889708         144.646         52.8755 
       0.895864          143.17         52.0844 
       0.902008         142.179         51.3114 
       0.908149         140.383         50.5547 
       0.914301           140.5         49.8124 
       0.920448         139.436         49.0858 
       0.926574         137.417         48.3765 
       0.932687         137.095         47.6829 
       0.938823         135.966         47.0006 
       0.944975         134.489         46.3302 
       0.951105         133.651         45.6756 
       0.957225         133.684         45.0348 
       0.963368         132.082         44.4044 
       0.969511         130.945         43.7861 
       0.975621         130.126         43.1831 
       0.981748         129.051         42.5901 
       0.987916         128.247         42.0046 
        0.99406         127.737         41.4324 
        1.00019         126.414         40.8722 
        1.00632         125.894          40.323 
        1.01246         124.944         39.7831 
        1.01859         124.352         39.2542 
        1.02471         123.232         38.7356 
        1.03085         122.302         38.2248 
        1.03698         121.672         37.7243 
        1.04314         120.891         37.2308 
        1.04929         120.451         36.7473 
        1.05541         119.635         36.2745 
        1.06154         118.921          35.809 
        1.06769         117.739          35.351 
        1.07382         116.966         34.9027 
        1.07993         116.579         34.4632 
        1.08607         115.523         34.0296 
        1.09222         115.303          33.603 
        1.09836         114.053         33.1844 
        1.10449          113.52         32.7735 
        1.11063         112.717         32.3691 
        1.11677         112.191         31.9718 
         1.1229         111.322          31.582 
        1.12903         111.078         31.1983 
        1.13518         110.504         30.8208 
        1.14131         109.746         30.4499 
        1.14745         108.735         30.0853 
        1.15359         107.829         29.7267 
        1.15973          107.58         29.3738 
        1.16584         106.862         29.0284 
        1.17197         106.089          28.688 
        1.17811         105.544         28.3522 
        1.18424         104.693         28.0227 
        1.19038         104.696         27.6976 
        1.19652         103.962         27.3778 
        1.20267         103.176         27.0632 
        1.20881         102.546         26.7536 
        1.21495         102.167         26.4494 
        1.22108         101.506           26.15 
         1.2272         100.738          25.856 
        1.23334         100.336         25.5659 
        1.23949         99.8142         25.2796 
        1.24562         98.9698         24.9986 
        1.25174         98.4155         24.7223 
        1.25789         98.5596         24.4493 
        1.26402          97.606          24.181 
        1.27014         97.1022         23.9174 
        1.27628         96.2799          23.657 
        1.28244         95.9717         23.4001 
        1.28858         95.4723         23.1473 
        1.29471         94.9747         22.8988 
        1.30084          94.264         22.6543 
        1.30697         94.2714          22.413 
        1.31312         93.3785         22.1749 
        1.31925         92.9245         21.9411 
        1.32537         92.3897         21.7109 
        1.33151          92.154         21.4832 
        1.33765         91.4245         21.2589 
        1.34378         91.2212         21.0383 
        1.34992         90.5992         20.8207 
        1.35606         90.0619         20.6058 
         1.3622         89.5869         20.3943 
        1.36833         88.9681         20.1863 
        1.37445         88.3358         19.9813 
        1.38059         88.1619         19.7786 
        1.38675         87.3486         19.5783 
        1.39288         87.3128         19.3815 
        1.39901         86.5149         19.1876 
        1.40515         86.2814         18.9959 
         1.4113         85.9606         18.8069 
        1.41742         85.5057         18.6212 
        1.42355         84.8244         18.4378 
         1.4297         84.4084         18.2562 
        1.43585         83.8961         18.0773 
        1.44198         83.4771         17.9014 
        1.44809          83.048         17.7282 
        1.45423         82.6239         17.5567 
        1.46036         82.0856         17.3877 
        1.46649         82.0189          17.221 
        1.47263         81.4475         17.0564 
        1.47877         81.1375         16.8939 
        1.48491         80.7272         16.7334 
        1.49104         80.1068         16.5753 
        1.49718         79.7684         16.4192 
        1.50333         79.4512         16.2648 
        1.50947         78.9995         16.1128 
         1.5156         78.6631         15.9629 
        1.52172           78.15          15.815 
        1.52787         77.7234         15.6686 
          1.534         77.4961         15.5243 
        1.54013         77.1398          15.382 
        1.54627         76.5062         15.2412 
        1.55241           76.11         15.1022 
        1.55855         75.9539         14.9651 
        1.56467         75.3125         14.8302 
         1.5708         75.1417         14.6965 
        1.57695         74.7484         14.5642 
        1.58308         74.2563          14.434 
        1.58922         73.9832         14.3052 
        1.59535         73.7371         14.1781 
         1.6015         73.5882         14.0523 
        1.60764         73.1243         13.9282 
        1.61376         72.6519         13.8059 
        1.61989         72.1024          13.685 
        1.62604          71.896         13.5652 
        1.63218         71.5999          13.447 
        1.63831         71.3698         13.3305 
        1.64444         70.8774         13.2153 
        1.65059         70.6943         13.1013 
        1.65673          70.078         12.9887 
        1.66285         69.9495         12.8778 
        1.66898         69.2628         12.7681 
        1.67512         69.2846         12.6595 
        1.68127         68.8378         12.5521 
         1.6874         68.4332         12.4462 
        1.69353         68.2246         12.3416 
        1.69967         67.9246         12.2379 
        1.70581         67.4932         12.1355 
        1.71193         67.1876         12.0347 
        1.71806         66.8697         11.9348 
        1.72421         66.6235         11.8358 
        1.73035         66.2979         11.7381 
        1.73649         65.9285         11.6415 
        1.74262         65.4456         11.5461 
        1.74876         65.1863         11.4517 
        1.75489         64.8497         11.3586 
        1.76101         64.5699         11.2665 
        1.76715          64.539         11.1754 
        1.77329         63.8956         11.0851 
        1.77943         63.8887         10.9958 
        1.78557         63.5814         10.9077 
        1.79171         63.1678         10.8205 
        1.79785         62.8697         10.7342 
        1.80399          62.575         10.6489 
        1.81012          62.288         10.5647 
        1.81625         61.9358         10.4814 
        1.82239         61.6951         10.3989 
        1.82853         61.5204         10.3173 
        1.83466         61.0923         10.2367 
        1.84078         60.7792          10.157 
        1.84692         60.4813          10.078 
        1.85306         60.2276         9.99986 
         1.8592         60.0573         9.92262 
        1.86533         59.6848         9.84626 
        1.87147         59.4398         9.77061 
        1.87761         59.0534         9.69573 
        1.88375         58.9582         9.62173 
        1.88988          58.635         9.54859 
        1.89601         58.2909         9.47618 
        1.90215         58.0866         9.40446 
        1.90829         57.7843         9.33353 
        1.91442         57.5016         9.26333 
        1.92056         57.1997         9.19392 
         1.9267         56.9858         9.12515 
        1.93284         56.7327         9.05705 
        1.93897         56.4999         8.98978 
        1.94509         56.0708         8.92335 
        1.95123         55.8447         8.85742 
        1.95737         55.5279         8.79211 
        1.96349         55.3307         8.72764 
        1.96964         55.1323         8.66363 
        1.97578         54.9186         8.60024 
        1.98192         54.6305         8.53762 
        1.98805         54.3718         8.47562 
        1.99419         54.1865         8.41424 
        2.00033         53.9359         8.35344 
        2.00647         53.6746         8.29326 
         2.0126         53.3767         8.23378 
        2.01874         53.0463         8.17479 
        2.02488         52.8964         8.11634 
        2.03101         52.6145         8.05857 
        2.03714         52.3781         8.00143 
        2.04328         52.1995         7.94477 
        2.04941         51.9006         7.88872 
        2.05554         51.7768         7.83325 
        2.06167         51.5239         7.77824 
        2.06781         51.2148         7.72375 
        2.07396         51.0262         7.66972 
        2.08009         50.8439         7.61629 
        2.08622         50.5485         7.56344 
        2.09237         50.3589         7.51099 
        2.09851         50.0477         7.45904 
        2.10464         49.7993         7.40766 
        2.11077         49.6476         7.35683 
        2.11691         49.3462         7.30638 
        2.12305         49.2021         7.25639 
        2.12918         48.9274           7.207 
        2.13531         48.7515         7.15806 
        2.14145         48.5366         7.10947 
         2.1476         48.2516         7.06128 
        2.15372         48.1333         7.01378 
        2.15985         47.7919         6.96667 
        2.16599         47.6718         6.91986 
        2.17213         47.4067         6.87354 
        2.17827         47.1656         6.82766 
         2.1844         46.9377         6.78223 
        2.19054         46.7371         6.73721 
        2.19666         46.5011         6.69267 
         2.2028         46.3267         6.64848 
        2.20893         46.0977         6.60468 
        2.21508         45.9182         6.56123 
        2.22122         45.6837         6.51816 
        2.22736         45.4491         6.47556 
        2.23349         45.2529         6.43336 
        2.23962         45.1029         6.39151 
        2.24577         44.9066            6.35 
         2.2519         44.6625         6.30893 
        2.25802         44.4902         6.26828 
        2.26417         44.2554         6.22788 
        2.27031         44.1675          6.1878 
        2.27644         43.9395         6.14819 
        2.28257         43.5867         6.10893 
        2.28872         43.5365         6.06995 
        2.29486         43.3088         6.03131 
        2.30099         43.0496          5.9931 
        2.30712         42.9262          5.9552 
        2.31326          42.703         5.91756 
         2.3194         42.5415         5.88028 
        2.32553         42.3345         5.84338 
        2.33166         42.0888         5.80681 
         2.3378         42.0084         5.77051 
        2.34394          41.752         5.73452 
        2.35007         41.5535         5.69888 
        2.35619         41.4571         5.66359 
        2.36233         41.2275         5.62851 
        2.36848         41.0219         5.59367 
        2.37462         40.8994         5.55919 
        2.38075          40.718         5.52504 
        2.38689         40.5171         5.49115 
        2.39303         40.4249         5.45755 
        2.39916         40.0714         5.42427 
        2.40529         39.8573         5.39127 
        2.41143         39.8089         5.35853 
        2.41757         39.6391         5.32604 
         2.4237         39.4394         5.29388 
        2.42983          39.283           5.262 
        2.43598         39.1666         5.23029 
        2.44211         38.9612          5.1989 
        2.44823           38.72         5.16784 
        2.45437         38.6192         5.13694 
        2.46052         38.4085         5.10628 
        2.46665         38.1921         5.07593 
        2.47279         37.9769         5.04583 
        2.47892         37.9442         5.01596 
        2.48507         37.7245          4.9863 
         2.4912         37.6246         4.95694 
