# k  (h/Mpc)    Pcb(k)  (Mpc/h)^3    Pcb_linear(k)  (Mpc/h)^3
     0.00783031         12986.5         13169.5 
       0.013688         16889.1         16756.1 
       0.019231         17367.3         17357.6 
      0.0249154         16046.3         16394.6 
      0.0312784         14354.3         14540.1 
      0.0375637         12641.4         12686.9 
      0.0433917         11042.6         11288.9 
      0.0492413         10129.1         10257.1 
      0.0555754          9119.5         9461.06 
      0.0619321         8768.36         8826.52 
       0.067871         7955.59          8242.7 
      0.0738098         7331.01         7596.95 
      0.0800417          6541.9         6856.31 
      0.0862327          5922.5         6117.44 
      0.0921407         5405.55         5479.71 
      0.0982031         4858.38         4943.78 
       0.104506         4585.48         4528.71 
       0.110769         4275.42         4237.56 
       0.116806         4037.99         4028.42 
       0.122832         3858.52         3843.16 
       0.129052         3579.95         3638.95 
       0.135211         3376.73         3407.11 
       0.141259         3208.86          3156.8 
       0.147318         3007.86         2903.92 
       0.153489         2754.84         2667.99 
       0.159709          2610.1         2469.73 
       0.165845         2523.01         2318.17 
       0.171974         2390.91          2204.3 
       0.178125         2283.78         2114.09 
       0.184229         2194.65         2033.01 
        0.19034         2070.59         1947.97 
       0.196428         2027.32         1853.54 
       0.202534         1946.93         1750.24 
       0.208729         1854.51         1643.05 
       0.214876         1772.83          1542.4 
       0.220989         1715.26         1454.33 
       0.227147         1641.03         1380.55 
        0.23329         1580.84         1320.84 
       0.239377            1559         1271.57 
       0.245482         1463.47         1227.08 
       0.251667         1455.79         1182.45 
       0.257832         1399.31         1135.68 
       0.263955         1353.11         1086.63 
       0.270079          1307.4         1036.42 
        0.27624          1292.9           987.3 
       0.282372         1238.28         942.108 
        0.28843         1229.41         902.477 
       0.294538         1169.45         867.756 
       0.300721         1165.01         837.027 
        0.30691         1117.86          809.18 
       0.313033         1096.95         782.853 
       0.319153         1077.86         756.625 
       0.325316         1042.65         729.759 
        0.33145         1018.83         702.819 
       0.337538         1003.23         676.486 
       0.343633         979.132         651.313 
       0.349808          946.86         627.641 
       0.355968         941.263         606.081 
       0.362074          930.84         586.663 
       0.368217          903.03         568.621 
       0.374374         868.061         551.552 
       0.380519         868.864         535.039 
       0.386598         846.231         518.911 
       0.392688         843.371          502.94 
        0.39888         819.112         486.957 
       0.405048          807.68          471.54 
       0.411186         796.361         456.926 
       0.417313         780.207         443.165 
       0.423458         767.324         430.242 
       0.429607         756.356         418.107 
       0.435692         740.254         406.708 
       0.441815         735.365         395.688 
       0.447964         719.708         384.962 
       0.454126         710.577         374.456 
       0.460267         695.517         364.219 
       0.466387          687.94         354.309 
        0.47254         679.523         344.693 
       0.478662         675.607         335.509 
       0.484765         656.057         326.763 
       0.490885         651.496         318.411 
       0.497035         638.571         310.388 
       0.503198         633.441         302.657 
       0.509342         627.222         295.207 
       0.515458         623.311         288.017 
       0.521598         608.627         281.002 
       0.527764          596.66         274.149 
       0.533884         595.719         267.545 
           0.54         588.463         261.163 
       0.546137         585.044         254.991 
       0.552299         575.554         249.024 
       0.558452         572.587         243.282 
       0.564573         564.226         237.765 
       0.570708         557.716         232.414 
       0.576825         542.958         227.246 
       0.582926          544.68         222.246 
       0.589034         539.721         217.381 
       0.595184         534.448         212.618 
       0.601379         527.408         207.959 
       0.607522         520.179         203.476 
       0.613639         519.975          199.15 
       0.619772         507.133          194.95 
       0.625918         505.682         190.874 
       0.632068         498.603         186.918 
       0.638161         496.908         183.112 
         0.6443         487.659         179.384 
       0.650464         485.418         175.743 
       0.656582         483.054         172.227 
       0.662703         480.367         168.806 
       0.668861         471.861         165.458 
       0.675024         468.244         162.202 
       0.681124         465.198         159.068 
       0.687237         460.915         156.013 
       0.693381         455.179         153.026 
       0.699536         448.915         150.113 
       0.705665         447.428          147.29 
       0.711789         444.511         144.542 
       0.717957         440.478         141.845 
        0.72409         437.661         139.233 
       0.730186         432.013         136.703 
       0.736317         428.745         134.223 
       0.742472         427.074         131.796 
       0.748622         421.914         129.432 
        0.75476          416.83         127.132 
       0.760888         412.631         124.892 
       0.767043          413.37         122.698 
       0.773185         408.153         120.561 
       0.779291         403.222         118.489 
       0.785407          401.21         116.462 
       0.791564         396.385         114.471 
       0.797719         394.172         112.528 
       0.803834         390.801         110.642 
       0.809972         389.342         108.793 
       0.816124         388.583         106.983 
       0.822261          382.72          105.22 
       0.828378         380.523         103.502 
       0.834502         377.406         101.821 
       0.840667         373.627         100.167 
       0.846816         372.026         98.5551 
       0.852925          368.93         96.9892 
       0.859047         367.626         95.4545 
       0.865192         363.417         93.9483 
       0.871341         360.571          92.474 
       0.877463         359.162         91.0384 
       0.883569          356.64         89.6372 
       0.889708         353.612         88.2587 
       0.895864         350.659         86.9058 
       0.902008         348.689         85.5845 
       0.908149         345.972         84.2917 
       0.914301         342.509         83.0238 
       0.920448         340.428         81.7834 
       0.926574         336.244         80.5729 
       0.932687         336.877         79.3897 
       0.938823         332.836         78.2262 
       0.944975         332.523         77.0836 
       0.951105         328.944         75.9681 
       0.957225         326.706         74.8767 
       0.963368         322.927         73.8033 
       0.969511           321.7          72.751 
       0.975621         319.103         71.7251 
       0.981748         318.698         70.7165 
       0.987916         316.177         69.7212 
        0.99406         311.168         68.7488 
        1.00019         310.945         67.7972 
        1.00632         309.134         66.8645 
        1.01246         306.507         65.9481 
        1.01859         306.989         65.0505 
        1.02471         302.317         64.1709 
        1.03085         300.193         63.3046 
        1.03698         299.404         62.4563 
        1.04314         296.329           61.62 
        1.04929         294.081         60.8012 
        1.05541         294.423         60.0006 
        1.06154         289.764         59.2127 
        1.06769         288.994         58.4378 
        1.07382          287.22         57.6795 
        1.07993         285.131         56.9364 
        1.08607         284.287         56.2035 
        1.09222         281.901         55.4829 
        1.09836         279.884         54.7759 
        1.10449         276.972         54.0821 
        1.11063         274.716         53.3997 
        1.11677         274.434         52.7293 
         1.1229         272.565         52.0718 
        1.12903         270.567          51.425 
        1.13518         268.641         50.7887 
        1.14131         266.869         50.1637 
        1.14745         266.191         49.5495 
        1.15359         263.849         48.9457 
        1.15973         262.321         48.3517 
        1.16584          260.16         47.7703 
        1.17197         259.918         47.1977 
        1.17811         257.068         46.6328 
        1.18424         255.376         46.0788 
        1.19038         254.458         45.5323 
        1.19652         252.454         44.9949 
        1.20267         251.888         44.4662 
        1.20881         249.638         43.9462 
        1.21495         247.928         43.4354 
        1.22108         246.605         42.9329 
         1.2272         244.863         42.4395 
        1.23334         243.509         41.9528 
        1.23949         242.195         41.4727 
        1.24562         240.934         41.0014 
        1.25174         238.646         40.5382 
        1.25789         236.968         40.0808 
        1.26402         235.589         39.6313 
        1.27014         234.108         39.1899 
        1.27628         232.918         38.7539 
        1.28244         232.511         38.3237 
        1.28858         229.951         37.9007 
        1.29471         228.151          37.485 
        1.30084         227.282          37.076 
        1.30697          225.72         36.6726 
        1.31312         223.768         36.2746 
        1.31925         223.554         35.8838 
        1.32537         222.216         35.4992 
        1.33151         220.014         35.1189 
        1.33765         218.622         34.7444 
        1.34378         217.832         34.3761 
        1.34992         216.639          34.013 
        1.35606          216.48         33.6544 
         1.3622          214.42         33.3016 
        1.36833         212.186         32.9548 
        1.37445         211.343          32.613 
        1.38059         209.686         32.2752 
        1.38675         208.962         31.9413 
        1.39288         207.419         31.6135 
        1.39901         207.134         31.2905 
        1.40515         205.034         30.9713 
         1.4113         203.843         30.6567 
        1.41742          202.57         30.3477 
        1.42355         201.242         30.0424 
         1.4297         199.947         29.7404 
        1.43585         198.842         29.4427 
        1.44198          197.73         29.1503 
        1.44809         196.961         28.8623 
        1.45423          195.49         28.5773 
        1.46036         194.546         28.2965 
        1.46649         192.961         28.0195 
        1.47263         191.666          27.746 
        1.47877         190.818         27.4763 
        1.48491         189.165         27.2098 
        1.49104          188.74         26.9473 
        1.49718         186.751         26.6882 
        1.50333         186.165         26.4321 
        1.50947          185.28         26.1798 
         1.5156         183.573         25.9313 
        1.52172         182.766          25.686 
        1.52787         181.288         25.4434 
          1.534         180.893         25.2042 
        1.54013         179.409         24.9684 
        1.54627         178.538         24.7352 
        1.55241          177.29          24.505 
        1.55855         176.234          24.278 
        1.56467         175.022         24.0545 
         1.5708         174.535         23.8332 
        1.57695         173.175         23.6144 
        1.58308         172.431         23.3989 
        1.58922         171.096         23.1859 
        1.59535          169.79         22.9757 
         1.6015         169.458         22.7678 
        1.60764         168.141         22.5626 
        1.61376         166.977         22.3604 
        1.61989         166.163         22.1607 
        1.62604         165.166         21.9629 
        1.63218         164.315         21.7676 
        1.63831         163.214         21.5752 
        1.64444          162.55         21.3851 
        1.65059         161.315         21.1968 
        1.65673         160.146          21.011 
        1.66285         159.703          20.828 
        1.66898         158.459         20.6471 
        1.67512          158.16         20.4679 
        1.68127         156.423         20.2908 
         1.6874         155.412         20.1162 
        1.69353         155.047         19.9437 
        1.69967         153.765         19.7728 
        1.70581         153.043         19.6041 
        1.71193         151.867         19.4379 
        1.71806         151.496         19.2733 
        1.72421         150.369         19.1103 
        1.73035         149.972         18.9494 
        1.73649         148.992         18.7904 
        1.74262         147.758         18.6334 
        1.74876          147.22          18.478 
        1.75489          146.05         18.3247 
        1.76101          145.17         18.1733 
        1.76715         144.676         18.0233 
        1.77329         144.135         17.8749 
        1.77943         142.853         17.7281 
        1.78557         142.193         17.5831 
        1.79171         141.384         17.4398 
        1.79785         140.341          17.298 
        1.80399         139.612         17.1579 
        1.81012         138.822         17.0194 
        1.81625         138.147         16.8826 
        1.82239         137.444         16.7471 
        1.82853          136.77         16.6132 
        1.83466         135.772         16.4808 
        1.84078         135.258         16.3501 
        1.84692         133.955         16.2205 
        1.85306         133.768         16.0922 
         1.8592         132.692         15.9655 
        1.86533         131.743         15.8402 
        1.87147         131.005         15.7162 
        1.87761         130.604         15.5934 
        1.88375         129.282         15.4721 
        1.88988          128.82         15.3522 
        1.89601         128.009         15.2335 
        1.90215         127.381          15.116 
        1.90829         126.802         14.9998 
        1.91442         126.059         14.8848 
        1.92056         125.294         14.7711 
         1.9267         124.789         14.6585 
        1.93284         124.031          14.547 
        1.93897         123.129         14.4369 
        1.94509         122.665         14.3282 
        1.95123         122.004         14.2203 
        1.95737         121.401         14.1134 
        1.96349          120.65          14.008 
        1.96964          119.61         13.9033 
        1.97578         118.941         13.7996 
        1.98192         118.656         13.6972 
        1.98805          117.61         13.5958 
        1.99419         117.224         13.4955 
        2.00033         116.478         13.3961 
        2.00647         116.036         13.2977 
         2.0126         115.019         13.2005 
        2.01874         114.547         13.1042 
        2.02488         114.084         13.0087 
        2.03101         113.101         12.9143 
        2.03714         112.585          12.821 
        2.04328         112.051         12.7285 
        2.04941         111.325          12.637 
        2.05554         110.588         12.5465 
        2.06167         110.318         12.4567 
        2.06781         109.626         12.3678 
        2.07396         108.763         12.2796 
        2.08009         108.347         12.1925 
        2.08622         107.818         12.1063 
        2.09237         106.966         12.0207 
        2.09851         106.521          11.936 
        2.10464         105.958         11.8523 
        2.11077         105.533         11.7694 
        2.11691         104.965         11.6872 
        2.12305         103.978         11.6057 
        2.12918         103.522         11.5252 
        2.13531         103.075         11.4455 
        2.14145         102.301         11.3663 
         2.1476         101.639         11.2879 
        2.15372         101.313         11.2105 
        2.15985         100.901         11.1338 
        2.16599         100.277         11.0576 
        2.17213         99.5384         10.9822 
        2.17827         99.2343         10.9075 
         2.1844         98.4426         10.8336 
        2.19054         98.1071         10.7603 
        2.19666         97.6464         10.6879 
         2.2028         97.0256          10.616 
        2.20893          96.458         10.5448 
        2.21508         95.8501         10.4741 
        2.22122         95.3924         10.4041 
        2.22736         94.9851         10.3348 
        2.23349         94.5061         10.2662 
        2.23962         93.7986         10.1982 
        2.24577         93.5064         10.1307 
         2.2519         93.0813          10.064 
        2.25802         92.1687         9.99796 
        2.26417         91.9188         9.93233 
        2.27031         91.3908         9.86723 
        2.27644         90.8764         9.80291 
        2.28257         90.3456         9.73917 
        2.28872         89.8873         9.67587 
        2.29486         89.3555         9.61315 
        2.30099         89.0045         9.55112 
        2.30712         88.5136         9.48961 
        2.31326         87.9814         9.42854 
         2.3194         87.4189         9.36804 
        2.32553         87.0802         9.30818 
        2.33166         86.5598         9.24887 
         2.3378         86.1003         9.18999 
        2.34394         85.6955         9.13162 
        2.35007         85.1941         9.07383 
        2.35619         84.7708         9.01661 
        2.36233         84.2901         8.95976 
        2.36848         83.7286         8.90328 
        2.37462         83.3251          8.8474 
        2.38075         82.9946         8.79206 
        2.38689         82.4737         8.73715 
        2.39303          81.891         8.68272 
        2.39916         81.5487         8.62881 
        2.40529         81.2583         8.57536 
        2.41143           80.72         8.52233 
        2.41757         80.3581         8.46972 
         2.4237         79.9494         8.41766 
        2.42983          79.427         8.36604 
        2.43598         79.0595         8.31471 
        2.44211         78.7725         8.26391 
        2.44823          78.266         8.21364 
        2.45437         77.6838         8.16366 
        2.46052         77.2825         8.11405 
        2.46665         77.0223         8.06494 
        2.47279         76.5663         8.01625 
        2.47892         76.2419         7.96794 
        2.48507         75.7297         7.91998 
         2.4912          75.456         7.87251 
