# k  (h/Mpc)    Pcb(k)  (Mpc/h)^3    Pcb_linear(k)  (Mpc/h)^3
     0.00783031         821.056         828.421 
       0.013688         1043.39         1044.95 
       0.019231         1087.35         1087.56 
      0.0249154         1034.34         1039.79 
      0.0312784         935.729         936.968 
      0.0375637         828.203         826.836 
      0.0433917           736.1         737.574 
      0.0492413         667.207         666.734 
      0.0555754         606.472         609.093 
      0.0619321          566.42          564.19 
       0.067871         525.224         526.959 
      0.0738098         487.575         489.476 
      0.0800417         444.969         447.907 
      0.0862327         404.181         405.397 
      0.0921407         366.014          366.34 
      0.0982031         329.597         330.585 
       0.104506         301.372         299.955 
       0.110769         277.607         276.438 
       0.116806         258.911         259.227 
       0.122832         246.278         245.555 
       0.129052         232.468         233.041 
       0.135211         219.937         220.584 
       0.141259         207.816          207.48 
       0.147318         194.699         193.551 
       0.153489         179.794         179.248 
       0.159709         166.589         165.685 
       0.165845         156.186         153.934 
       0.171974          145.31         144.193 
       0.178125          137.74         136.343 
       0.184229         131.781         130.031 
        0.19034         125.103         124.589 
       0.196428          120.82         119.458 
       0.202534         116.382         114.191 
       0.208729         110.236         108.561 
       0.214876         103.952         102.772 
       0.220989         99.3205         97.0605 
       0.227147         92.9963         91.6395 
        0.23329         88.2886         86.7851 
       0.239377         84.4986         82.6163 
       0.245482         80.3131         79.0428 
       0.251667         77.9731         75.9061 
       0.257832         75.0188          73.077 
       0.263955         72.3401         70.3901 
       0.270079         69.6929         67.7047 
        0.27624          67.497         64.9613 
       0.282372          64.703         62.2153 
        0.28843         61.7737         59.5526 
       0.294538         59.2539              57 
       0.300721          57.338         54.6133 
        0.30691         54.7554         52.4532 
       0.313033          52.929         50.5304 
       0.319153         50.5864         48.7839 
       0.325316         49.6874         47.1468 
        0.33145         47.9472         45.5888 
       0.337538         46.5249         44.0748 
       0.343633         44.8837         42.5778 
       0.349808          43.536         41.0823 
       0.355968         42.1126         39.6303 
       0.362074         40.6866         38.2509 
       0.368217         39.4417         36.9413 
       0.374374          38.083         35.7158 
       0.380519         37.0839         34.5767 
       0.386598         36.0808         33.5228 
       0.392688         35.2107         32.5235 
        0.39888         34.1576         31.5502 
       0.405048         33.2983         30.6119 
       0.411186         32.4552         29.7016 
       0.417313         31.3598         28.8163 
       0.423458         30.5622         27.9552 
       0.429607         29.6623         27.1247 
       0.435692         28.7934          26.339 
       0.441815         28.1629         25.5864 
       0.447964         27.6342         24.8679 
       0.454126         26.6492         24.1832 
       0.460267         26.0818         23.5311 
       0.466387         25.3023         22.9062 
        0.47254           24.86         22.2989 
       0.478662          24.352         21.7137 
       0.484765         23.6525         21.1474 
       0.490885         23.0767         20.5968 
       0.497035         22.7557          20.062 
       0.503198         22.1446         19.5459 
       0.509342          21.601         19.0509 
       0.515458         21.1012         18.5772 
       0.521598         20.6954         18.1201 
       0.527764         20.2041         17.6782 
       0.533884         19.8493          17.255 
           0.54         19.4134         16.8456 
       0.546137         19.0492         16.4473 
       0.552299         18.6946         16.0597 
       0.558452         18.1296         15.6846 
       0.564573         17.8813         15.3228 
       0.570708         17.5355         14.9715 
       0.576825         17.0822         14.6326 
       0.582926         16.7953         14.3057 
       0.589034         16.3289         13.9892 
       0.595184         16.0863         13.6807 
       0.601379         15.7529         13.3796 
       0.607522         15.5183         13.0901 
       0.613639         15.3184         12.8102 
       0.619772         14.9094         12.5377 
       0.625918         14.7712         12.2726 
       0.632068          14.525         12.0148 
       0.638161          14.186         11.7668 
         0.6443         13.8961         11.5239 
       0.650464         13.6229         11.2872 
       0.656582         13.5029          11.059 
       0.662703         13.2548         10.8372 
       0.668861         13.0214         10.6204 
       0.675024         12.7612         10.4095 
       0.681124         12.5383         10.2065 
       0.687237         12.3541         10.0085 
       0.693381         12.1872         9.81475 
       0.699536         11.8564         9.62579 
       0.705665         11.7315         9.44262 
       0.711789         11.5387         9.26442 
       0.717957         11.3495         9.08966 
        0.72409         11.1609         8.92046 
       0.730186         11.0053         8.75665 
       0.736317         10.8917         8.59612 
       0.742472         10.7164         8.43907 
       0.748622         10.5373         8.28612 
        0.75476         10.3196         8.13731 
       0.760888         10.2014         7.99239 
       0.767043         10.0778         7.85044 
       0.773185         9.87328         7.71226 
       0.779291           9.789         7.57821 
       0.785407         9.63168         7.44717 
       0.791564         9.48053         7.31844 
       0.797719         9.32854         7.19284 
       0.803834         9.24876         7.07102 
       0.809972         9.14779          6.9516 
       0.816124         8.95924         6.83471 
       0.822261         8.82709         6.72084 
       0.828378         8.72094         6.60993 
       0.834502         8.64257         6.50144 
       0.840667         8.48176          6.3947 
       0.846816         8.34633         6.29066 
       0.852925         8.27301         6.18961 
       0.859047         8.16587         6.09058 
       0.865192         8.08757         5.99341 
       0.871341         7.99435          5.8983 
       0.877463         7.87471         5.80569 
       0.883569         7.74443         5.71532 
       0.889708         7.62309         5.62643 
       0.895864         7.56252          5.5392 
       0.902008         7.46502         5.45402 
       0.908149         7.38467         5.37069 
       0.914301         7.26888         5.28897 
       0.920448         7.17044         5.20904 
       0.926574         7.08075         5.13106 
       0.932687         7.01866         5.05484 
       0.938823         6.92869         4.97991 
       0.944975         6.83707         4.90633 
       0.951105         6.77216         4.83451 
       0.957225         6.73371         4.76426 
       0.963368         6.63691         4.69518 
       0.969511         6.55598         4.62747 
       0.975621         6.46666         4.56147 
       0.981748         6.40369         4.49659 
       0.987916         6.33819         4.43258 
        0.99406         6.23473         4.37006 
        1.00019         6.15796         4.30887 
        1.00632         6.12446         4.24892 
        1.01246         6.05572         4.19003 
        1.01859         5.97784         4.13235 
        1.02471          5.9145         4.07584 
        1.03085         5.85395         4.02019 
        1.03698          5.7761         3.96571 
        1.04314         5.73148         3.91201 
        1.04929         5.65568         3.85943 
        1.05541         5.59479         3.80804 
        1.06154         5.54528         3.75746 
        1.06769         5.51041         3.70772 
        1.07382         5.42499         3.65906 
        1.07993         5.36298         3.61138 
        1.08607         5.33382         3.56435 
        1.09222          5.2735         3.51812 
        1.09836         5.22752         3.47277 
        1.10449         5.16914         3.42827 
        1.11063         5.11742          3.3845 
        1.11677          5.0731         3.34152 
         1.1229         5.02248         3.29936 
        1.12903         4.96596         3.25789 
        1.13518         4.92135          3.2171 
        1.14131         4.85677         3.17704 
        1.14745         4.79675         3.13768 
        1.15359         4.77474         3.09899 
        1.15973         4.71803         3.06093 
        1.16584         4.67854         3.02369 
        1.17197         4.63518         2.98701 
        1.17811          4.5977         2.95084 
        1.18424         4.56551         2.91537 
        1.19038         4.52411         2.88038 
        1.19652         4.47936         2.84598 
        1.20267          4.4336         2.81215 
        1.20881         4.39605         2.77887 
        1.21495         4.36025         2.74619 
        1.22108         4.31743         2.71404 
         1.2272         4.29499         2.68248 
        1.23334         4.23774         2.65135 
        1.23949         4.19726         2.62065 
        1.24562         4.17791         2.59052 
        1.25174         4.12548         2.56091 
        1.25789          4.0976         2.53167 
        1.26402         4.05582         2.50295 
        1.27014         4.01873         2.47474 
        1.27628         3.99869         2.44688 
        1.28244         3.94734          2.4194 
        1.28858         3.92874         2.39238 
        1.29471         3.88705         2.36583 
        1.30084         3.85056         2.33972 
        1.30697         3.84265         2.31396 
        1.31312         3.77376         2.28855 
        1.31925         3.76123          2.2636 
        1.32537         3.72903         2.23905 
        1.33151         3.70756         2.21477 
        1.33765         3.65944         2.19087 
        1.34378         3.63231         2.16738 
        1.34992          3.6207         2.14421 
        1.35606         3.57124         2.12132 
         1.3622         3.55742         2.09882 
        1.36833         3.52686         2.07669 
        1.37445          3.4976          2.0549 
        1.38059         3.47776         2.03335 
        1.38675         3.45722         2.01206 
        1.39288         3.41881         1.99116 
        1.39901         3.38814         1.97057 
        1.40515         3.36588         1.95023 
         1.4113         3.34251         1.93018 
        1.41742          3.3196         1.91048 
        1.42355          3.2987         1.89103 
         1.4297         3.26209         1.87179 
        1.43585          3.2498         1.85283 
        1.44198         3.23048          1.8342 
        1.44809         3.19107         1.81586 
        1.45423         3.16911         1.79771 
        1.46036          3.1457         1.77983 
        1.46649         3.12045          1.7622 
        1.47263         3.09756         1.74479 
        1.47877         3.06924         1.72762 
        1.48491         3.05021         1.71066 
        1.49104         3.03535         1.69397 
        1.49718         3.01392         1.67748 
        1.50333          2.9914         1.66119 
        1.50947         2.97241         1.64514 
         1.5156         2.95007         1.62934 
        1.52172         2.93029         1.61374 
        1.52787         2.90915         1.59831 
          1.534         2.89026         1.58311 
        1.54013         2.86917         1.56812 
        1.54627         2.84287         1.55329 
        1.55241         2.82348         1.53866 
        1.55855          2.8112         1.52423 
        1.56467         2.79233         1.51003 
         1.5708         2.76492         1.49597 
        1.57695         2.75086         1.48207 
        1.58308         2.73163         1.46838 
        1.58922         2.71844         1.45485 
        1.59535          2.6987         1.44149 
         1.6015         2.68147         1.42829 
        1.60764         2.66528         1.41526 
        1.61376         2.64769         1.40242 
        1.61989         2.62819         1.38974 
        1.62604         2.60894         1.37718 
        1.63218         2.60189         1.36479 
        1.63831         2.57485         1.35258 
        1.64444         2.55837         1.34051 
        1.65059         2.54675         1.32856 
        1.65673         2.52983         1.31677 
        1.66285         2.51007         1.30516 
        1.66898         2.49914         1.29368 
        1.67512         2.47736         1.28232 
        1.68127         2.46323         1.27109 
         1.6874         2.45401         1.26001 
        1.69353         2.42667         1.24908 
        1.69967         2.41534         1.23824 
        1.70581         2.40944         1.22755 
        1.71193         2.38923         1.21701 
        1.71806         2.37917         1.20658 
        1.72421          2.3628         1.19625 
        1.73035         2.34796         1.18606 
        1.73649         2.33232         1.17598 
        1.74262         2.31851         1.16603 
        1.74876         2.31004         1.15619 
        1.75489         2.28901         1.14648 
        1.76101         2.27553         1.13689 
        1.76715          2.2643         1.12739 
        1.77329         2.25142         1.11799 
        1.77943         2.23376          1.1087 
        1.78557         2.22362         1.09952 
        1.79171         2.21487         1.09045 
        1.79785         2.19669         1.08147 
        1.80399         2.18677          1.0726 
        1.81012          2.1785         1.06384 
        1.81625         2.15995         1.05518 
        1.82239         2.14697         1.04661 
        1.82853         2.12973         1.03813 
        1.83466         2.12546         1.02976 
        1.84078         2.11122         1.02149 
        1.84692          2.1019          1.0133 
        1.85306         2.08605         1.00518 
         1.8592         2.07648        0.997169 
        1.86533         2.06355        0.989248 
        1.87147         2.05577        0.981405 
        1.87761         2.04337        0.973643 
        1.88375         2.02597        0.965974 
        1.88988         2.02063        0.958396 
        1.89601         2.00716        0.950895 
        1.90215         1.99316        0.943468 
        1.90829         1.98249        0.936124 
        1.91442         1.97431        0.928858 
        1.92056         1.96343        0.921675 
         1.9267         1.95422        0.914561 
        1.93284         1.94567        0.907518 
        1.93897         1.93357        0.900563 
        1.94509         1.92021        0.893695 
        1.95123         1.90848        0.886881 
        1.95737         1.89983        0.880134 
        1.96349         1.89045        0.873474 
        1.96964         1.88349        0.866864 
        1.97578         1.87162        0.860319 
        1.98192         1.86348        0.853856 
        1.98805         1.85054        0.847458 
        1.99419         1.84362        0.841125 
        2.00033         1.83955        0.834854 
        2.00647         1.82346        0.828648 
         2.0126         1.81749        0.822516 
        2.01874         1.80435        0.816437 
        2.02488         1.79777        0.810414 
        2.03101         1.78428        0.804462 
        2.03714         1.77388        0.798576 
        2.04328         1.76984        0.792742 
        2.04941         1.75716        0.786972 
        2.05554         1.75192        0.781262 
        2.06167         1.74034        0.775602 
        2.06781         1.73498        0.769997 
        2.07396          1.7246        0.764439 
        2.08009          1.7162        0.758946 
        2.08622         1.70474        0.753513 
        2.09237         1.70265        0.748122 
        2.09851         1.69241        0.742783 
        2.10464         1.68593        0.737505 
        2.11077         1.67496        0.732285 
        2.11691         1.66535        0.727104 
        2.12305         1.66064        0.721972 
        2.12918         1.65144        0.716903 
        2.13531         1.64445        0.711882 
        2.14145         1.63405        0.706897 
         2.1476         1.62595        0.701954 
        2.15372         1.61869        0.697083 
        2.15985          1.6105        0.692254 
        2.16599         1.60315        0.687456 
        2.17213         1.59497        0.682709 
        2.17827         1.58989        0.678008 
         2.1844         1.58278        0.673356 
        2.19054         1.57711        0.668745 
        2.19666         1.56714        0.664185 
         2.2028         1.56019        0.659662 
        2.20893         1.55094         0.65518 
        2.21508         1.54789        0.650734 
        2.22122          1.5355        0.646328 
        2.22736         1.52833        0.641971 
        2.23349         1.52712        0.637656 
        2.23962         1.51576        0.633379 
        2.24577         1.50922        0.629137 
         2.2519         1.50146        0.624939 
        2.25802         1.49856        0.620787 
        2.26417         1.48824         0.61666 
        2.27031         1.48415        0.612568 
        2.27644         1.47711        0.608524 
        2.28257         1.47038        0.604517 
        2.28872         1.46252        0.600539 
        2.29486         1.45838        0.596597 
        2.30099         1.44923        0.592699 
        2.30712         1.44351        0.588834 
        2.31326         1.44014        0.584996 
         2.3194         1.43215        0.581196 
        2.32553         1.42719        0.577435 
        2.33166         1.41823        0.573709 
         2.3378         1.41165        0.570011 
        2.34394         1.40471        0.566344 
        2.35007         1.39915        0.562715 
        2.35619         1.39681        0.559122 
        2.36233         1.38696        0.555551 
        2.36848         1.38255        0.552005 
        2.37462         1.37632        0.548497 
        2.38075         1.37114        0.545022 
        2.38689         1.36534        0.541575 
        2.39303         1.36022        0.538159 
        2.39916         1.35225        0.534775 
        2.40529         1.34942         0.53142 
        2.41143         1.34224        0.528092 
        2.41757         1.33623        0.524791 
         2.4237         1.33275        0.521524 
        2.42983         1.32493        0.518285 
        2.43598         1.32201        0.515066 
        2.44211         1.31535        0.511878 
        2.44823         1.30983        0.508725 
        2.45437         1.30517         0.50559 
        2.46052         1.30082        0.502479 
        2.46665         1.29506        0.499399 
        2.47279         1.28944        0.496346 
        2.47892         1.28283        0.493317 
        2.48507         1.27907         0.49031 
         2.4912         1.27274        0.487333 
