# k  (h/Mpc)    P(k)  (Mpc/h)^3    P_linear(k)  (Mpc/h)^3
     0.00783031         1840.44         1845.36 
       0.013688         2329.93         2309.44 
       0.019231         2380.77         2357.78 
      0.0249154         2204.08         2198.84 
      0.0312784         1943.61         1928.58 
      0.0375637         1690.29          1670.4 
      0.0433917         1489.49         1480.46 
      0.0492413         1354.82         1342.04 
      0.0555754          1237.2         1234.93 
      0.0619321         1163.51         1147.77 
       0.067871         1070.13         1066.37 
      0.0738098         979.816          976.88 
      0.0800417         875.917         876.308 
      0.0862327         782.433          778.54 
      0.0921407         702.739         696.279 
      0.0982031         632.416         628.684 
       0.104506          586.93         577.121 
       0.110769         548.978         540.795 
       0.116806         517.725         513.736 
       0.122832         494.872          488.56 
       0.129052         462.726         460.243 
       0.135211         431.287         428.591 
       0.141259         401.326         395.475 
       0.147318         371.008         363.143 
       0.153489         339.991         333.914 
       0.159709         317.018         309.937 
       0.165845         301.689         291.769 
       0.171974         284.659         277.864 
       0.178125         273.261         266.289 
       0.184229         262.893         255.321 
        0.19034         247.566         243.618 
       0.196428         237.684          230.87 
       0.202534         226.633         217.416 
       0.208729         212.192         203.974 
       0.214876         198.778         191.748 
       0.220989         190.785         181.259 
       0.227147         179.728         172.492 
        0.23329         172.547         165.241 
       0.239377         167.181         158.991 
       0.245482         158.891         153.097 
       0.251667         154.983         147.077 
       0.257832         148.781         140.846 
       0.263955         142.444         134.506 
       0.270079         136.443         128.239 
        0.27624         132.096          122.28 
       0.282372         126.577         116.895 
        0.28843         121.224         112.175 
       0.294538         116.677         107.975 
       0.300721         114.046         104.141 
        0.30691         109.215         100.554 
       0.313033         105.903         97.0992 
       0.319153         101.022         93.6664 
       0.325316         99.1683         90.2152 
        0.33145           95.33         86.8413 
       0.337538         92.7463          83.619 
       0.343633         89.3864          80.587 
       0.349808         86.7172         77.7436 
       0.355968         84.2762         75.1349 
       0.362074         81.6525         72.7387 
       0.368217         79.3584         70.4677 
       0.374374         76.9601         68.2863 
       0.380519         75.0398         66.1658 
       0.386598         72.9871         64.1137 
       0.392688         71.3917          62.108 
        0.39888         69.2648         60.1338 
       0.405048         67.5786         58.2539 
       0.411186         65.9791         56.4801 
       0.417313         63.8354         54.8065 
       0.423458         62.2834         53.2217 
       0.429607         60.6337         51.7141 
       0.435692         58.7682         50.2837 
       0.441815         57.8656         48.8946 
       0.447964         56.8888         47.5426 
       0.454126         54.6255         46.2263 
       0.460267          53.685         44.9566 
       0.466387         52.1815         43.7371 
        0.47254         51.3768          42.559 
       0.478662         50.4746         41.4354 
       0.484765         49.0346         40.3635 
       0.490885         47.9461         39.3331 
       0.497035         47.3294         38.3368 
       0.503198         46.0944         37.3732 
       0.509342         44.9308          36.444 
       0.515458         44.0461         35.5485 
       0.521598          43.337         34.6771 
       0.527764         42.4413         33.8298 
       0.533884         41.7163         33.0168 
           0.54         40.8561          32.233 
       0.546137         40.2162         31.4743 
       0.552299         39.5863         30.7389 
       0.558452          38.376         30.0294 
       0.564573         37.8382         29.3465 
       0.570708         37.2567         28.6835 
       0.576825         36.3624          28.043 
       0.582926         35.7054         27.4234 
       0.589034         34.7926         26.8212 
       0.595184         34.3628         26.2331 
       0.601379          33.761         25.6587 
       0.607522         33.1424         25.1067 
       0.613639         32.8493          24.574 
       0.619772         32.0003         24.0563 
       0.625918         31.8458         23.5529 
       0.632068         31.3226         23.0639 
       0.638161         30.6822         22.5932 
         0.6443         30.0866         22.1322 
       0.650464         29.5788         21.6824 
       0.656582         29.3951         21.2485 
       0.662703         28.8377         20.8265 
       0.668861         28.3322         20.4138 
       0.675024         27.8495         20.0122 
       0.681124         27.3777         19.6257 
       0.687237         26.9378         19.2488 
       0.693381         26.7081         18.8802 
       0.699536         26.0336         18.5207 
       0.705665         25.9505         18.1723 
       0.711789         25.4085         17.8333 
       0.717957         25.0751         17.5007 
        0.72409         24.7068         17.1785 
       0.730186         24.3738         16.8666 
       0.736317          24.129         16.5607 
       0.742472         23.7207         16.2615 
       0.748622         23.4762         15.9701 
        0.75476         23.0538         15.6865 
       0.760888         22.7582         15.4103 
       0.767043         22.5008         15.1398 
       0.773185          22.096         14.8764 
       0.779291         21.9786         14.6208 
       0.785407         21.6986         14.3709 
       0.791564         21.3204         14.1254 
       0.797719         20.8995         13.8858 
       0.803834         20.8552         13.6534 
       0.809972          20.676         13.4255 
       0.816124         20.1949         13.2024 
       0.822261         20.0289          12.985 
       0.828378         19.8108         12.7733 
       0.834502          19.623         12.5661 
       0.840667         19.3581         12.3623 
       0.846816         19.0294         12.1636 
       0.852925         18.8607         11.9706 
       0.859047         18.6541         11.7814 
       0.865192         18.4902         11.5957 
       0.871341         18.3399          11.414 
       0.877463         18.0187          11.237 
       0.883569         17.7911         11.0643 
       0.889708         17.5369         10.8944 
       0.895864         17.4254         10.7276 
       0.902008         17.2865         10.5648 
       0.908149         17.0992         10.4054 
       0.914301          16.964         10.2492 
       0.920448         16.6483         10.0963 
       0.926574         16.5121         9.94708 
       0.932687         16.3517         9.80125 
       0.938823         16.1374         9.65786 
       0.944975          15.956         9.51705 
       0.951105         15.8328         9.37958 
       0.957225         15.6971         9.24509 
       0.963368         15.5398         9.11281 
       0.969511         15.4056         8.98314 
       0.975621         15.2567         8.85673 
       0.981748         15.0732         8.73245 
       0.987916         14.9741          8.6098 
        0.99406         14.7677         8.48999 
        1.00019         14.5586         8.37271 
        1.00632         14.5432         8.25778 
        1.01246         14.3837         8.14487 
        1.01859         14.1729         8.03426 
        1.02471         14.1089         7.92587 
        1.03085         13.9753         7.81912 
        1.03698         13.7689         7.71459 
        1.04314         13.6971         7.61154 
        1.04929         13.5225         7.51064 
        1.05541          13.384         7.41199 
        1.06154         13.2937         7.31488 
        1.06769         13.2334         7.21939 
        1.07382         13.0474         7.12593 
        1.07993         12.9626         7.03435 
        1.08607         12.8399         6.94402 
        1.09222         12.7409          6.8552 
        1.09836         12.5947         6.76806 
        1.10449         12.5046         6.68254 
        1.11063         12.3885         6.59843 
        1.11677         12.3277         6.51581 
         1.1229         12.2437         6.43476 
        1.12903         12.0998         6.35503 
        1.13518         11.9582          6.2766 
        1.14131         11.8856         6.19956 
        1.14745         11.7849         6.12386 
        1.15359         11.7106         6.04943 
        1.15973         11.6138         5.97621 
        1.16584         11.4478         5.90455 
        1.17197          11.391         5.83397 
        1.17811         11.3343         5.76434 
        1.18424         11.2352         5.69606 
        1.19038          11.186          5.6287 
        1.19652         11.0645         5.56247 
        1.20267         10.9518         5.49731 
        1.20881         10.9315         5.43322 
        1.21495         10.8391         5.37026 
        1.22108         10.7127         5.30832 
         1.2272         10.6483         5.24751 
        1.23334         10.5391         5.18751 
        1.23949         10.4578         5.12832 
        1.24562         10.4191         5.07023 
        1.25174         10.3377         5.01313 
        1.25789         10.2637         4.95674 
        1.26402         10.2139         4.90133 
        1.27014         10.1259         4.84691 
        1.27628         10.0046         4.79316 
        1.28244         9.92964         4.74012 
        1.28858         9.92359         4.68797 
        1.29471         9.81533         4.63673 
        1.30084          9.7223          4.5863 
        1.30697         9.71706         4.53656 
        1.31312         9.56893         4.48749 
        1.31925          9.5171          4.4393 
        1.32537         9.46431         4.39187 
        1.33151         9.41931         4.34498 
        1.33765         9.32952          4.2988 
        1.34378         9.26122         4.25339 
        1.34992         9.20057         4.20861 
        1.35606         9.14407         4.16438 
         1.3622         9.09343         4.12087 
        1.36833         9.01973          4.0781 
        1.37445         8.97021         4.03596 
        1.38059         8.93689         3.99428 
        1.38675           8.854         3.95311 
        1.39288         8.80981         3.91268 
        1.39901          8.7156         3.87284 
        1.40515         8.68184         3.83347 
         1.4113         8.63066         3.79467 
        1.41742         8.57295         3.75656 
        1.42355         8.49955          3.7189 
         1.4297         8.45096         3.68165 
        1.43585         8.42031         3.64493 
        1.44198          8.3847         3.60886 
        1.44809         8.30799         3.57334 
        1.45423          8.2474         3.53818 
        1.46036         8.19849         3.50355 
        1.46649         8.15034         3.46938 
        1.47263         8.08226         3.43564 
        1.47877         8.03952         3.40237 
        1.48491         7.99601         3.36949 
        1.49104          7.9475         3.33712 
        1.49718         7.90863         3.30515 
        1.50333         7.86285         3.27356 
        1.50947         7.80614         3.24244 
         1.5156         7.76388         3.21178 
        1.52172         7.72476         3.18152 
        1.52787         7.67517         3.15158 
          1.534         7.62058         3.12207 
        1.54013         7.59175         3.09298 
        1.54627         7.52477          3.0642 
        1.55241          7.4929         3.03579 
        1.55855         7.46282         3.00778 
        1.56467         7.40553          2.9802 
         1.5708         7.38233         2.95289 
        1.57695         7.31316         2.92589 
        1.58308         7.27112         2.89929 
        1.58922         7.25283           2.873 
        1.59535         7.21876         2.84705 
         1.6015         7.16077         2.82139 
        1.60764         7.11212         2.79606 
        1.61376         7.08961         2.77111 
        1.61989         7.05125         2.74645 
        1.62604         7.00183         2.72204 
        1.63218         6.98591         2.69794 
        1.63831          6.9475         2.67419 
        1.64444         6.91102         2.65071 
        1.65059         6.83607         2.62747 
        1.65673         6.83497         2.60453 
        1.66285         6.76749         2.58194 
        1.66898         6.74469          2.5596 
        1.67512         6.71274         2.53749 
        1.68127         6.67323         2.51562 
         1.6874         6.65153         2.49406 
        1.69353         6.60067         2.47276 
        1.69967         6.57149         2.45167 
        1.70581         6.53818         2.43083 
        1.71193         6.50379         2.41032 
        1.71806         6.48387            2.39 
        1.72421         6.43468         2.36988 
        1.73035         6.41933         2.35001 
        1.73649         6.38278         2.33038 
        1.74262         6.33817         2.31098 
        1.74876         6.32015          2.2918 
        1.75489         6.29565         2.27287 
        1.76101         6.24324         2.25417 
        1.76715         6.22664         2.23565 
        1.77329         6.19396         2.21732 
        1.77943         6.14477         2.19919 
        1.78557         6.13886         2.18128 
        1.79171         6.09747         2.16358 
        1.79785         6.06688         2.14607 
        1.80399         6.03011         2.12876 
        1.81012         6.01178         2.11166 
        1.81625         5.97735         2.09476 
        1.82239         5.95617         2.07802 
        1.82853         5.92371         2.06147 
        1.83466         5.90117         2.04512 
        1.84078         5.87173         2.02897 
        1.84692         5.85969         2.01296 
        1.85306         5.81075         1.99711 
         1.8592         5.77897         1.98146 
        1.86533         5.75935         1.96598 
        1.87147         5.73747         1.95065 
        1.87761         5.70629         1.93548 
        1.88375         5.67954         1.92049 
        1.88988         5.65186         1.90568 
        1.89601         5.63181         1.89101 
        1.90215         5.61016         1.87649 
        1.90829         5.57545         1.86213 
        1.91442         5.55461         1.84792 
        1.92056         5.52655         1.83387 
         1.9267          5.4988         1.81995 
        1.93284         5.47779         1.80617 
        1.93897         5.45084         1.79256 
        1.94509         5.42509         1.77912 
        1.95123         5.39966         1.76579 
        1.95737         5.36865         1.75258 
        1.96349         5.35635         1.73955 
        1.96964         5.33675          1.7266 
        1.97578         5.30073         1.71379 
        1.98192         5.28794         1.70113 
        1.98805          5.2669          1.6886 
        1.99419         5.24236          1.6762 
        2.00033         5.22788         1.66391 
        2.00647         5.19686         1.65176 
         2.0126          5.1816         1.63974 
        2.01874         5.14594         1.62783 
        2.02488         5.13625         1.61602 
        2.03101         5.09868         1.60436 
        2.03714         5.08177         1.59282 
        2.04328         5.05915         1.58138 
        2.04941         5.03111         1.57007 
        2.05554         5.01607         1.55887 
        2.06167         5.00222         1.54777 
        2.06781         4.97746         1.53678 
        2.07396         4.96618         1.52587 
        2.08009         4.94031          1.5151 
        2.08622         4.91223         1.50444 
        2.09237         4.90221         1.49386 
        2.09851         4.88029         1.48338 
        2.10464         4.85861         1.47302 
        2.11077         4.83177         1.46278 
        2.11691         4.81722         1.45261 
        2.12305          4.8021         1.44253 
        2.12918         4.79011         1.43258 
        2.13531         4.76534         1.42272 
        2.14145         4.74723         1.41293 
         2.1476         4.71903         1.40322 
        2.15372         4.70375         1.39365 
        2.15985         4.69677         1.38416 
        2.16599         4.66518         1.37473 
        2.17213          4.6501         1.36541 
        2.17827         4.63784         1.35617 
         2.1844         4.61261         1.34702 
        2.19054         4.59929         1.33796 
        2.19666         4.57549         1.32899 
         2.2028         4.55876          1.3201 
        2.20893         4.54608         1.31128 
        2.21508         4.52098         1.30254 
        2.22122         4.50546         1.29387 
        2.22736         4.48937         1.28531 
        2.23349         4.48352         1.27682 
        2.23962         4.45872          1.2684 
        2.24577         4.43748         1.26005 
         2.2519         4.43068         1.25179 
        2.25802         4.40567         1.24362 
        2.26417         4.39153          1.2355 
        2.27031         4.37218         1.22744 
        2.27644         4.35609         1.21948 
        2.28257         4.33903         1.21159 
        2.28872         4.32959         1.20376 
        2.29486         4.30863         1.19599 
        2.30099         4.29103         1.18832 
        2.30712         4.27552          1.1807 
        2.31326         4.25515         1.17314 
         2.3194         4.24623         1.16565 
        2.32553         4.22771         1.15824 
        2.33166         4.21939          1.1509 
         2.3378         4.19977         1.14361 
        2.34394         4.18557         1.13639 
        2.35007         4.16536         1.12923 
        2.35619         4.15903         1.12215 
        2.36233         4.14528         1.11511 
        2.36848         4.12039         1.10811 
        2.37462         4.11516          1.1012 
        2.38075         4.09813         1.09434 
        2.38689         4.08419         1.08754 
        2.39303         4.06901          1.0808 
        2.39916         4.05353         1.07413 
        2.40529         4.03978         1.06751 
        2.41143         4.02687         1.06094 
        2.41757          4.0149         1.05443 
         2.4237         4.00274         1.04798 
        2.42983         3.96903         1.04159 
        2.43598         3.97293         1.03523 
        2.44211         3.95011         1.02894 
        2.44823         3.94264         1.02271 
        2.45437         3.92158         1.01652 
        2.46052         3.91563         1.01038 
        2.46665         3.90352         1.00429 
        2.47279         3.88869        0.998264 
        2.47892         3.87599        0.992279 
        2.48507         3.86356        0.986339 
         2.4912         3.84302        0.980458 
