# k  (h/Mpc)    P(k)  (Mpc/h)^3    P_linear(k)  (Mpc/h)^3
     0.00783031         12504.5         12723.5 
       0.013688         16003.2         15912.7 
       0.019231         16234.3         16239.3 
      0.0249154         14824.6         15140.6 
      0.0312784         13119.2         13277.1 
      0.0375637         11469.5         11498.2 
      0.0433917         9989.82         10189.9 
      0.0492413         9139.86         9236.53 
      0.0555754          8218.4         8498.91 
      0.0619321         7869.79         7898.75 
       0.067871         7113.52         7338.32 
      0.0738098         6519.77         6722.32 
      0.0800417         5790.39         6030.12 
      0.0862327         5220.83         5357.25 
      0.0921407         4754.85         4791.13 
      0.0982031         4273.57         4325.96 
       0.104506         4037.51         3971.11 
       0.110769         3767.54         3721.12 
       0.116806         3555.03          3534.9 
       0.122832         3389.88         3361.65 
       0.129052         3134.65         3166.79 
       0.135211         2945.23         2948.98 
       0.141259         2788.84         2721.11 
       0.147318         2608.43         2498.64 
       0.153489         2388.97         2297.51 
       0.159709         2264.18         2132.53 
       0.165845         2186.94         2007.52 
       0.171974         2073.29         1911.84 
       0.178125         1979.93          1832.2 
       0.184229          1900.5         1756.73 
        0.19034         1786.78          1676.2 
       0.196428         1746.08         1588.49 
       0.202534         1675.67         1495.91 
       0.208729         1592.75         1403.43 
       0.214876         1519.86          1319.3 
       0.220989         1470.66         1247.13 
       0.227147         1406.14         1186.81 
        0.23329         1354.01         1136.92 
       0.239377         1332.83         1093.92 
       0.245482         1249.12         1053.36 
       0.251667         1241.15         1011.94 
       0.257832         1192.49         969.065 
       0.263955         1152.43         925.445 
       0.270079         1112.16         882.323 
        0.27624          1099.6         841.326 
       0.282372         1053.36         804.275 
        0.28843          1042.2         771.802 
       0.294538         990.697         742.898 
       0.300721         987.094         716.524 
        0.30691         945.743         691.842 
       0.313033         927.907         668.071 
       0.319153         908.854         644.452 
       0.325316         879.763         620.707 
        0.33145         858.531         597.493 
       0.337538          845.82         575.322 
       0.343633         823.744         554.461 
       0.349808         795.996         534.898 
       0.355968         791.421         516.949 
       0.362074         781.504         500.462 
       0.368217         758.605         484.837 
       0.374374         728.051         469.828 
       0.380519         727.706         455.238 
       0.386598         708.839         441.119 
       0.392688         706.477         427.319 
        0.39888         685.857         413.736 
       0.405048         675.052         400.802 
       0.411186         665.235         388.597 
       0.417313         651.938         377.083 
       0.423458         641.008         366.179 
       0.429607         631.205         355.806 
       0.435692         617.099         345.964 
       0.441815          612.79         336.407 
       0.447964         600.116         327.105 
       0.454126         590.163         318.048 
       0.460267          578.73         309.313 
       0.466387         572.574         300.922 
        0.47254           563.8         292.816 
       0.478662          561.61         285.085 
       0.484765         544.321          277.71 
       0.490885         540.261         270.621 
       0.497035         529.982         263.766 
       0.503198         524.529         257.136 
       0.509342         520.064         250.743 
       0.515458         516.041         244.582 
       0.521598         503.932         238.587 
       0.527764         494.483         232.757 
       0.533884         493.003         227.163 
           0.54         486.635          221.77 
       0.546137         484.409          216.55 
       0.552299         475.622          211.49 
       0.558452         473.404         206.609 
       0.564573         466.518          201.91 
       0.570708         460.164         197.349 
       0.576825         449.082         192.942 
       0.582926         449.106         188.679 
       0.589034         445.176         184.536 
       0.595184         441.112         180.489 
       0.601379         435.277         176.538 
       0.607522         429.124          172.74 
       0.613639         428.212         169.075 
       0.619772         417.763         165.512 
       0.625918          416.84         162.049 
       0.632068         410.678         158.685 
       0.638161         409.222         155.446 
         0.6443         401.906         152.274 
       0.650464         399.368          149.18 
       0.656582         397.466         146.194 
       0.662703         395.435         143.291 
       0.668861         388.426         140.452 
       0.675024          385.19         137.688 
       0.681124         382.688         135.029 
       0.687237         378.967         132.436 
       0.693381         373.963           129.9 
       0.699536         369.815         127.427 
       0.705665         367.602         125.029 
       0.711789          365.22         122.697 
       0.717957         362.247         120.408 
        0.72409         359.386         118.192 
       0.730186         355.335         116.046 
       0.736317         352.074         113.942 
       0.742472         350.715         111.883 
       0.748622         346.828         109.877 
        0.75476         343.236         107.926 
       0.760888         339.548         106.026 
       0.767043         340.172         104.165 
       0.773185         335.705         102.353 
       0.779291         330.907         100.594 
       0.785407         329.922         98.8752 
       0.791564         326.001         97.1859 
       0.797719         323.673         95.5375 
       0.803834         321.199         93.9383 
       0.809972         319.926         92.3704 
       0.816124         319.594         90.8353 
       0.822261         314.743         89.3398 
       0.828378         312.696         87.8828 
       0.834502         310.857         86.4575 
       0.840667         307.362          85.055 
       0.846816         305.858          83.688 
       0.852925         303.818           82.36 
       0.859047         302.029         81.0584 
       0.865192         298.789         79.7811 
       0.871341         296.503         78.5307 
       0.877463         294.975         77.3132 
       0.883569         293.534         76.1248 
       0.889708         290.671         74.9557 
       0.895864         287.758         73.8084 
       0.902008         286.558         72.6879 
       0.908149         284.912         71.5915 
       0.914301         281.525         70.5163 
       0.920448         279.765         69.4644 
       0.926574         277.177          68.438 
       0.932687         277.587         67.4346 
       0.938823         274.245         66.4481 
       0.944975         273.232         65.4792 
       0.951105         271.234         64.5334 
       0.957225         269.169         63.6081 
       0.963368          265.93          62.698 
       0.969511         264.853         61.8059 
       0.975621         262.527         60.9361 
       0.981748         262.715          60.081 
       0.987916         260.257         59.2372 
        0.99406         256.805         58.4128 
        1.00019          256.88          57.606 
        1.00632         255.046         56.8152 
        1.01246         252.931         56.0383 
        1.01859         253.106         55.2773 
        1.02471          249.54         54.5316 
        1.03085         247.426         53.7971 
        1.03698         246.677         53.0779 
        1.04314         244.322          52.369 
        1.04929         242.787         51.6747 
        1.05541         243.015          50.996 
        1.06154         239.641         50.3279 
        1.06769         239.225         49.6709 
        1.07382          237.55         49.0278 
        1.07993         235.664         48.3978 
        1.08607         235.002         47.7763 
        1.09222         233.375         47.1652 
        1.09836          231.52         46.5656 
        1.10449          229.18         45.9772 
        1.11063         227.341         45.3985 
        1.11677         227.108         44.8301 
         1.1229         225.405         44.2724 
        1.12903         224.109         43.7239 
        1.13518         222.749         43.1843 
        1.14131         220.989         42.6542 
        1.14745         220.786         42.1334 
        1.15359         218.818         41.6213 
        1.15973         217.603         41.1175 
        1.16584         215.668         40.6245 
        1.17197         215.398         40.1389 
        1.17811         213.389         39.6598 
        1.18424         212.213           39.19 
        1.19038         211.507         38.7266 
        1.19652         209.916         38.2709 
        1.20267         209.415         37.8226 
        1.20881         207.348         37.3816 
        1.21495         206.312         36.9485 
        1.22108         205.193         36.5223 
         1.2272         203.553         36.1039 
        1.23334         202.752         35.6911 
        1.23949         201.466         35.2839 
        1.24562         200.554         34.8842 
        1.25174         198.548         34.4913 
        1.25789         197.361         34.1034 
        1.26402         196.265         33.7221 
        1.27014         194.945         33.3477 
        1.27628          194.13         32.9779 
        1.28244         193.877          32.613 
        1.28858         191.835         32.2542 
        1.29471         190.234         31.9016 
        1.30084         189.695         31.5547 
        1.30697          188.26         31.2124 
        1.31312         187.046         30.8748 
        1.31925         186.478         30.5432 
        1.32537         185.406         30.2169 
        1.33151         183.636         29.8943 
        1.33765         182.826         29.5766 
        1.34378          181.99         29.2641 
        1.34992         181.154          28.956 
        1.35606         180.874         28.6517 
         1.3622         179.181         28.3524 
        1.36833         177.446         28.0581 
        1.37445         176.692         27.7682 
        1.38059         175.618         27.4815 
        1.38675         174.907         27.1981 
        1.39288         173.883           26.92 
        1.39901         173.709         26.6459 
        1.40515         171.861          26.375 
         1.4113         170.712         26.1081 
        1.41742         169.835         25.8458 
        1.42355         168.788         25.5868 
         1.4297         167.906         25.3305 
        1.43585         166.764         25.0778 
        1.44198         166.055         24.8296 
        1.44809         165.313         24.5853 
        1.45423         164.212         24.3433 
        1.46036         163.306         24.1051 
        1.46649         162.187           23.87 
        1.47263         161.263         23.6379 
        1.47877         160.599          23.409 
        1.48491          158.98         23.1828 
        1.49104         158.947           22.96 
        1.49718         157.168         22.7401 
        1.50333         156.702         22.5227 
        1.50947         156.094         22.3086 
         1.5156         154.871         22.0977 
        1.52172         154.033         21.8894 
        1.52787         152.926         21.6835 
          1.534         152.422         21.4805 
        1.54013         151.348         21.2803 
        1.54627         150.689         21.0823 
        1.55241         149.606         20.8868 
        1.55855         148.811         20.6941 
        1.56467          148.02         20.5043 
         1.5708         147.186         20.3165 
        1.57695         146.444         20.1307 
        1.58308         145.766         19.9476 
        1.58922         144.969         19.7668 
        1.59535         143.812         19.5883 
         1.6015         143.433         19.4117 
        1.60764         142.531         19.2374 
        1.61376         141.714         19.0658 
        1.61989         140.769         18.8961 
        1.62604         140.059         18.7281 
        1.63218         139.443         18.5623 
        1.63831         138.436         18.3989 
        1.64444         138.032         18.2374 
        1.65059          137.31         18.0775 
        1.65673         135.976         17.9197 
        1.66285         135.792         17.7642 
        1.66898         134.881         17.6105 
        1.67512         134.451         17.4584 
        1.68127         133.234         17.3079 
         1.6874         132.166         17.1596 
        1.69353          132.02         17.0131 
        1.69967         131.222          16.868 
        1.70581         130.465         16.7246 
        1.71193         129.684         16.5835 
        1.71806         129.146         16.4437 
        1.72421         128.255         16.3052 
        1.73035         128.093         16.1685 
        1.73649         127.156         16.0334 
        1.74262         126.251            15.9 
        1.74876           125.9          15.768 
        1.75489          124.77         15.6378 
        1.76101         124.204         15.5091 
        1.76715         123.524         15.3817 
        1.77329         123.307         15.2556 
        1.77943         122.131         15.1308 
        1.78557         121.604         15.0076 
        1.79171         120.891         14.8858 
        1.79785         120.196         14.7653 
        1.80399         119.531         14.6462 
        1.81012         118.976         14.5286 
        1.81625          118.29         14.4123 
        1.82239         117.974         14.2971 
        1.82853         117.225         14.1833 
        1.83466         116.397         14.0708 
        1.84078         116.013         13.9597 
        1.84692         115.061         13.8495 
        1.85306         114.717         13.7405 
         1.8592         113.952         13.6328 
        1.86533          113.13         13.5263 
        1.87147         112.631         13.4208 
        1.87761         112.155         13.3165 
        1.88375         111.188         13.2133 
        1.88988         110.795         13.1114 
        1.89601         110.099         13.0105 
        1.90215         109.696         12.9106 
        1.90829         109.048         12.8118 
        1.91442         108.555          12.714 
        1.92056          107.84         12.6174 
         1.9267          107.49         12.5216 
        1.93284         106.899         12.4268 
        1.93897         106.196         12.3332 
        1.94509         105.836         12.2407 
        1.95123         105.174         12.1489 
        1.95737         104.665         12.0581 
        1.96349         104.044         11.9684 
        1.96964          103.24         11.8793 
        1.97578         102.803         11.7912 
        1.98192         102.539         11.7041 
        1.98805         101.573         11.6179 
        1.99419         101.319         11.5325 
        2.00033         100.758          11.448 
        2.00647          100.24         11.3644 
         2.0126         99.6142         11.2817 
        2.01874         99.0519         11.1997 
        2.02488         98.5537         11.1185 
        2.03101         97.9276         11.0383 
        2.03714         97.4183         10.9589 
        2.04328         97.0301         10.8802 
        2.04941         96.4763         10.8023 
        2.05554         95.9154         10.7253 
        2.06167         95.4811         10.6489 
        2.06781          94.928         10.5733 
        2.07396         94.3759         10.4983 
        2.08009         94.0121         10.4241 
        2.08622         93.5345         10.3508 
        2.09237         92.8839          10.278 
        2.09851         92.5711         10.2059 
        2.10464         91.9396         10.1347 
        2.11077         91.6906         10.0642 
        2.11691         91.2582         9.99418 
        2.12305         90.4847         9.92487 
        2.12918         90.0006         9.85638 
        2.13531         89.7611         9.78854 
        2.14145         88.8957         9.72118 
         2.1476         88.5453         9.65438 
        2.15372         88.2239         9.58855 
        2.15985         87.7706         9.52327 
        2.16599         87.3505         9.45841 
        2.17213           86.76         9.39423 
        2.17827         86.4276         9.33066 
         2.1844         85.8332         9.26774 
        2.19054         85.6741         9.20539 
        2.19666         85.0708         9.14369 
         2.2028         84.8178         9.08251 
        2.20893         84.1736         9.02187 
        2.21508         83.7059         8.96171 
        2.22122         83.3401         8.90208 
        2.22736         82.9274         8.84313 
        2.23349         82.5648         8.78472 
        2.23962         82.0276         8.72681 
        2.24577         81.6963         8.66938 
         2.2519         81.3696         8.61255 
        2.25802         80.7782         8.55632 
        2.26417         80.3561         8.50044 
        2.27031         80.0349         8.44501 
        2.27644         79.5721         8.39024 
        2.28257         79.0705         8.33596 
        2.28872         78.6928         8.28206 
        2.29486         78.2156         8.22865 
        2.30099         77.8703         8.17582 
        2.30712         77.5691         8.12344 
        2.31326         77.2232         8.07142 
         2.3194         76.7299          8.0199 
        2.32553         76.3431         7.96892 
        2.33166         75.9233          7.9184 
         2.3378         75.4502         7.86825 
        2.34394         75.1756         7.81853 
        2.35007         74.6973          7.7693 
        2.35619          74.327         7.72056 
        2.36233         74.0218         7.67213 
        2.36848         73.6038         7.62401 
        2.37462         73.1564         7.57641 
        2.38075         72.9835         7.52927 
        2.38689         72.4776         7.48249 
        2.39303         72.1577         7.43611 
        2.39916         71.7041         7.39018 
        2.40529         71.5486         7.34464 
        2.41143         71.0548         7.29946 
        2.41757         70.7565         7.25464 
         2.4237         70.4795         7.21027 
        2.42983         69.9748         7.16629 
        2.43598         69.7218         7.12256 
        2.44211         69.3426         7.07927 
        2.44823         69.0113         7.03643 
        2.45437         68.5186         6.99384 
        2.46052         68.2198         6.95156 
        2.46665         67.9698         6.90971 
        2.47279         67.5687         6.86822 
        2.47892         67.2501         6.82705 
        2.48507         66.8133         6.78617 
         2.4912         66.5773         6.74571 
