# k  (h/Mpc)    P(k)  (Mpc/h)^3    P_linear(k)  (Mpc/h)^3
     0.00783031         462.899         467.814 
       0.013688         583.795         585.777 
       0.019231         597.738         598.183 
      0.0249154         555.606         557.935 
      0.0312784         489.258         489.405 
      0.0375637         424.862         423.912 
      0.0433917         375.595         375.724 
      0.0492413         341.038         340.603 
      0.0555754         312.608         313.426 
      0.0619321         292.215          291.31 
       0.067871         270.094         270.652 
      0.0738098         247.351         247.941 
      0.0800417         221.554         222.417 
      0.0862327         197.427         197.604 
      0.0921407         176.843         176.726 
      0.0982031         159.419          159.57 
       0.104506         147.111         146.483 
       0.110769         137.697         137.263 
       0.116806         130.215         130.395 
       0.122832         124.201         124.005 
       0.129052         116.573         116.818 
       0.135211         108.537         108.785 
       0.141259         100.545         100.379 
       0.147318         92.6675          92.173 
       0.153489         85.0425         84.7542 
       0.159709         79.0073         78.6685 
       0.165845         74.8223         74.0571 
       0.171974         70.8044         70.5279 
       0.178125         67.9286           67.59 
       0.184229         65.2627         64.8061 
        0.19034         61.8785         61.8356 
       0.196428         58.9434            58.6 
       0.202534         55.8782          55.185 
       0.208729         52.2881         51.7732 
       0.214876         49.0178         48.6699 
       0.220989         46.7185         46.0075 
       0.227147         44.1419         43.7824 
        0.23329         42.3096         41.9418 
       0.239377         40.8018         40.3557 
       0.245482         39.1145         38.8595 
       0.251667         37.8494         37.3316 
       0.257832         36.2071         35.7498 
       0.263955         34.6444         34.1407 
       0.270079         33.0863         32.5499 
        0.27624         31.7656         31.0375 
       0.282372         30.3924         29.6707 
        0.28843         29.0727         28.4727 
       0.294538         28.0006         27.4065 
       0.300721         27.1706         26.4335 
        0.30691         26.0952          25.523 
       0.313033         25.2417         24.6461 
       0.319153         24.1542         23.7747 
       0.325316         23.5826         22.8988 
        0.33145          22.677         22.0424 
       0.337538         21.8747         21.2245 
       0.343633         21.0467         20.4549 
       0.349808         20.3891         19.7332 
       0.355968         19.7302          19.071 
       0.362074         19.0911         18.4628 
       0.368217         18.5284         17.8864 
       0.374374         17.8984         17.3327 
       0.380519         17.4292         16.7945 
       0.386598         16.9373         16.2736 
       0.392688          16.476         15.7645 
        0.39888         15.9429         15.2634 
       0.405048         15.4935         14.7862 
       0.411186         15.0636          14.336 
       0.417313         14.5702         13.9112 
       0.423458         14.1996          13.509 
       0.429607         13.7757         13.1263 
       0.435692         13.3959         12.7632 
       0.441815         13.0665         12.4106 
       0.447964         12.7932         12.0674 
       0.454126         12.3653         11.7334 
       0.460267         12.0626         11.4111 
       0.466387         11.7051         11.1015 
        0.47254         11.4534         10.8025 
       0.478662         11.1963         10.5173 
       0.484765         10.8778         10.2452 
       0.490885         10.6137         9.98369 
       0.497035         10.4446         9.73081 
       0.503198         10.1577         9.48622 
       0.509342         9.92259         9.25038 
       0.515458         9.67304         9.02306 
       0.521598         9.46697         8.80189 
       0.527764         9.22375         8.58681 
       0.533884          9.0588         8.38047 
           0.54         8.84461         8.18151 
       0.546137         8.66454         7.98893 
       0.552299         8.48217         7.80227 
       0.558452         8.24489          7.6222 
       0.564573         8.11052         7.44885 
       0.570708         7.94006         7.28058 
       0.576825         7.74361         7.11799 
       0.582926         7.60883         6.96072 
       0.589034         7.39549         6.80789 
       0.595184         7.26904         6.65859 
       0.601379         7.11209         6.51281 
       0.607522          7.0027         6.37269 
       0.613639         6.89607         6.23749 
       0.619772         6.71095         6.10607 
       0.625918         6.61673         5.97829 
       0.632068         6.50845         5.85417 
       0.638161          6.3544          5.7347 
         0.6443         6.22601         5.61769 
       0.650464         6.09257         5.50353 
       0.656582         6.01811         5.39339 
       0.662703         5.90534         5.28628 
       0.668861         5.80953         5.18153 
       0.675024         5.68524         5.07959 
       0.681124         5.57498         4.98148 
       0.687237         5.49606         4.88582 
       0.693381         5.40393         4.79226 
       0.699536         5.26306         4.70102 
       0.705665         5.18827         4.61257 
       0.711789         5.10818         4.52652 
       0.717957         5.01249          4.4421 
        0.72409         4.92916         4.36033 
       0.730186         4.84863         4.28114 
       0.736317          4.7989         4.20352 
       0.742472         4.71632         4.12757 
       0.748622          4.6267         4.05359 
        0.75476         4.53177         3.98161 
       0.760888          4.4679         3.91151 
       0.767043         4.41764         3.84284 
       0.773185         4.32557         3.77599 
       0.779291         4.27325         3.71112 
       0.785407         4.20249          3.6477 
       0.791564         4.13976         3.58538 
       0.797719         4.08035         3.52457 
       0.803834         4.02776         3.46557 
       0.809972         3.96943         3.40773 
       0.816124         3.89483          3.3511 
       0.822261         3.82788         3.29592 
       0.828378         3.78202         3.24217 
       0.834502         3.74204         3.18959 
       0.840667         3.66313         3.13785 
       0.846816         3.60912         3.08741 
       0.852925         3.57671         3.03842 
       0.859047         3.52467         2.99041 
       0.865192         3.47643         2.94328 
       0.871341         3.43096         2.89715 
       0.877463         3.38883         2.85224 
       0.883569         3.32725          2.8084 
       0.889708          3.2776         2.76527 
       0.895864         3.23931         2.72294 
       0.902008         3.18832          2.6816 
       0.908149          3.1523         2.64115 
       0.914301         3.09359         2.60149 
       0.920448         3.05763         2.56268 
       0.926574         3.01408         2.52481 
       0.932687         2.98001          2.4878 
       0.938823         2.94999          2.4514 
       0.944975          2.9081         2.41566 
       0.951105         2.87487         2.38077 
       0.957225          2.8517         2.34663 
       0.963368         2.80923         2.31306 
       0.969511         2.76805         2.28014 
       0.975621         2.72592         2.24806 
       0.981748         2.70281         2.21651 
       0.987916         2.66685         2.18538 
        0.99406         2.62479         2.15497 
        1.00019         2.60115          2.1252 
        1.00632         2.56593         2.09603 
        1.01246         2.53675         2.06737 
        1.01859         2.50911         2.03929 
        1.02471         2.47514         2.01178 
        1.03085         2.45088         1.98469 
        1.03698         2.41634         1.95815 
        1.04314         2.39331           1.932 
        1.04929          2.3611         1.90639 
        1.05541         2.33679         1.88135 
        1.06154         2.30885          1.8567 
        1.06769         2.28491         1.83246 
        1.07382         2.25716         1.80874 
        1.07993         2.22393         1.78549 
        1.08607         2.21232         1.76256 
        1.09222         2.18177         1.74002 
        1.09836         2.16625          1.7179 
        1.10449         2.14027         1.69619 
        1.11063         2.11056         1.67484 
        1.11677         2.08672         1.65387 
         1.1229         2.06514          1.6333 
        1.12903         2.04016         1.61306 
        1.13518         2.02488         1.59316 
        1.14131         1.99625          1.5736 
        1.14745         1.96428         1.55439 
        1.15359          1.9555         1.53549 
        1.15973         1.92548         1.51691 
        1.16584         1.91907         1.49872 
        1.17197         1.89479         1.48081 
        1.17811          1.8765         1.46313 
        1.18424         1.86308          1.4458 
        1.19038         1.83816          1.4287 
        1.19652         1.81763         1.41189 
        1.20267         1.80496         1.39535 
        1.20881          1.7796         1.37909 
        1.21495         1.76797         1.36311 
        1.22108         1.75025         1.34738 
         1.2272         1.73752         1.33195 
        1.23334         1.71503         1.31672 
        1.23949         1.69653          1.3017 
        1.24562         1.68437         1.28695 
        1.25174         1.66591         1.27246 
        1.25789          1.6514         1.25814 
        1.26402         1.62964         1.24408 
        1.27014          1.6148         1.23027 
        1.27628         1.60815         1.21662 
        1.28244         1.58412         1.20316 
        1.28858         1.57219         1.18992 
        1.29471         1.55799         1.17692 
        1.30084         1.54123         1.16412 
        1.30697          1.5293         1.15149 
        1.31312         1.50717         1.13904 
        1.31925         1.50028          1.1268 
        1.32537         1.48714         1.11477 
        1.33151         1.47495         1.10286 
        1.33765         1.45872         1.09114 
        1.34378         1.44225         1.07962 
        1.34992         1.43648         1.06825 
        1.35606         1.41762         1.05702 
         1.3622         1.40882         1.04598 
        1.36833         1.39516         1.03512 
        1.37445         1.37936         1.02443 
        1.38059         1.36858         1.01385 
        1.38675          1.3656          1.0034 
        1.39288          1.3464        0.993136 
        1.39901         1.33488        0.983024 
        1.40515         1.32466        0.973031 
         1.4113         1.31205        0.963182 
        1.41742         1.30107        0.953508 
        1.42355         1.29676         0.94395 
         1.4297         1.27854        0.934495 
        1.43585         1.26983        0.925174 
        1.44198         1.26414        0.916017 
        1.44809         1.24661        0.907003 
        1.45423          1.2378        0.898077 
        1.46036         1.22827        0.889288 
        1.46649         1.21763        0.880615 
        1.47263         1.20672        0.872052 
        1.47877         1.19542        0.863607 
        1.48491         1.18627        0.855261 
        1.49104         1.17664        0.847045 
        1.49718         1.17027        0.838931 
        1.50333         1.15836        0.830911 
        1.50947         1.15162        0.823013 
         1.5156         1.14068         0.81523 
        1.52172         1.13159        0.807548 
        1.52787         1.12151        0.799951 
          1.534         1.11583         0.79246 
        1.54013         1.10268        0.785075 
        1.54627         1.09444         0.77777 
        1.55241          1.0856        0.770558 
        1.55855         1.07749        0.763449 
        1.56467         1.07203        0.756449 
         1.5708          1.0597        0.749518 
        1.57695         1.05552        0.742663 
        1.58308         1.04681        0.735911 
        1.58922         1.03827        0.729239 
        1.59535         1.03069        0.722653 
         1.6015         1.02305        0.716139 
        1.60764         1.01641         0.70971 
        1.61376         1.00639        0.703377 
        1.61989         1.00065        0.697118 
        1.62604        0.992232        0.690921 
        1.63218        0.987707        0.684804 
        1.63831        0.977462        0.678775 
        1.64444        0.970271        0.672817 
        1.65059        0.964603        0.666918 
        1.65673        0.956319        0.661096 
        1.66285        0.948977         0.65536 
        1.66898        0.945082        0.649691 
        1.67512        0.934906        0.644078 
        1.68127        0.928722        0.638527 
         1.6874         0.92459        0.633054 
        1.69353        0.915561        0.627649 
        1.69967        0.909243        0.622295 
        1.70581        0.904305        0.617007 
        1.71193        0.897177          0.6118 
        1.71806        0.891756        0.606642 
        1.72421        0.884805        0.601534 
        1.73035        0.877591        0.596491 
        1.73649        0.873633        0.591508 
        1.74262        0.867346        0.586585 
        1.74876        0.860333        0.581716 
        1.75489        0.853691        0.576913 
        1.76101        0.847745        0.572165 
        1.76715        0.842747        0.567464 
        1.77329        0.837332        0.562811 
        1.77943        0.830769        0.558209 
        1.78557        0.825053        0.553665 
        1.79171        0.821009         0.54917 
        1.79785        0.814868        0.544726 
        1.80399        0.809435        0.540331 
        1.81012        0.805076        0.535992 
        1.81625         0.79836        0.531702 
        1.82239        0.794431        0.527453 
        1.82853        0.785627        0.523253 
        1.83466        0.782569        0.519103 
        1.84078        0.776632        0.515003 
        1.84692        0.773553         0.51094 
        1.85306        0.767767        0.506917 
         1.8592        0.763689        0.502943 
        1.86533        0.758328        0.499015 
        1.87147        0.753351        0.495125 
        1.87761        0.748941        0.491274 
        1.88375        0.741495        0.487469 
        1.88988        0.739253        0.483709 
        1.89601        0.733338        0.479987 
        1.90215        0.729718        0.476301 
        1.90829        0.723982        0.472655 
        1.91442        0.719349        0.469048 
        1.92056        0.715581        0.465482 
         1.9267        0.710409         0.46195 
        1.93284        0.707266        0.458452 
        1.93897        0.702648        0.454998 
        1.94509        0.698124        0.451586 
        1.95123        0.692899        0.448202 
        1.95737        0.689604        0.444849 
        1.96349        0.684421         0.44154 
        1.96964        0.680736        0.438256 
        1.97578        0.676242        0.435003 
        1.98192        0.674247         0.43179 
        1.98805        0.668427         0.42861 
        1.99419        0.664887        0.425461 
        2.00033        0.662013        0.422343 
        2.00647        0.656779        0.419257 
         2.0126        0.653145        0.416207 
        2.01874        0.649651        0.413184 
        2.02488        0.646313        0.410187 
        2.03101        0.640808        0.407227 
        2.03714         0.63668        0.404298 
        2.04328        0.634683        0.401395 
        2.04941         0.63049        0.398523 
        2.05554        0.626566        0.395681 
        2.06167        0.623031        0.392863 
        2.06781        0.618084        0.390073 
        2.07396        0.614319        0.387306 
        2.08009        0.611702         0.38457 
        2.08622        0.607942        0.381864 
        2.09237        0.606505        0.379179 
        2.09851        0.602794         0.37652 
        2.10464        0.599207        0.373891 
        2.11077        0.595038         0.37129 
        2.11691        0.591407        0.368708 
        2.12305        0.588341        0.366151 
        2.12918        0.585004        0.363624 
        2.13531        0.581644        0.361121 
        2.14145        0.578624        0.358636 
         2.1476         0.57503        0.356172 
        2.15372        0.573279        0.353743 
        2.15985        0.568534        0.351335 
        2.16599        0.564871        0.348942 
        2.17213        0.562596        0.346574 
        2.17827         0.56071        0.344229 
         2.1844        0.557677        0.341908 
        2.19054        0.554671        0.339608 
        2.19666        0.550485        0.337332 
         2.2028        0.548134        0.335075 
        2.20893        0.544945        0.332837 
        2.21508        0.542237        0.330618 
        2.22122         0.53812        0.328418 
        2.22736         0.53562        0.326243 
        2.23349        0.534236        0.324088 
        2.23962        0.530899        0.321952 
        2.24577        0.526794        0.319833 
         2.2519        0.525127        0.317737 
        2.25802        0.521867        0.315662 
        2.26417        0.518635        0.313601 
        2.27031        0.516064        0.311556 
        2.27644        0.514185        0.309535 
        2.28257        0.511202        0.307533 
        2.28872        0.508424        0.305544 
        2.29486        0.505474        0.303574 
        2.30099        0.503043        0.301625 
        2.30712        0.501058        0.299692 
        2.31326        0.497913        0.297773 
         2.3194        0.497256        0.295873 
        2.32553        0.494227        0.293992 
        2.33166        0.491479        0.292128 
         2.3378        0.488949        0.290278 
        2.34394        0.484809        0.288444 
        2.35007        0.483214        0.286628 
        2.35619        0.480861        0.284829 
        2.36233        0.477499        0.283043 
        2.36848          0.4763        0.281268 
        2.37462        0.473269        0.279512 
        2.38075        0.472215        0.277772 
        2.38689         0.46895        0.276046 
        2.39303        0.467671        0.274336 
        2.39916        0.463989        0.272641 
        2.40529        0.462205        0.270961 
        2.41143        0.460391        0.269294 
        2.41757        0.457769         0.26764 
         2.4237        0.455546        0.266004 
        2.42983        0.453756        0.264381 
        2.43598        0.451599        0.262768 
        2.44211        0.449691        0.261171 
        2.44823         0.44779         0.25959 
        2.45437        0.444638        0.258019 
        2.46052        0.443902        0.256459 
        2.46665        0.440823        0.254915 
        2.47279        0.438447        0.253385 
        2.47892        0.436159        0.251866 
        2.48507        0.434766        0.250358 
         2.4912        0.432765        0.248865 
