# k  (h/Mpc)    P(k)  (Mpc/h)^3    P_linear(k)  (Mpc/h)^3
     0.00783031         4706.22         4764.28 
       0.013688         6367.46         6349.54 
       0.019231         6890.79          6895.1 
      0.0249154         6745.87         6841.08 
      0.0312784         6331.97         6383.35 
      0.0375637         5775.35         5790.54 
      0.0433917         5190.73         5266.81 
      0.0492413         4791.27         4829.99 
      0.0555754         4365.37         4465.32 
      0.0619321         4170.33         4181.61 
       0.067871         3865.24         3950.16 
      0.0738098         3630.06         3717.73 
      0.0800417         3340.37         3454.08 
      0.0862327         3090.26         3173.27 
      0.0921407         2848.13         2902.94 
      0.0982031         2581.57         2643.54 
       0.104506         2401.65          2411.2 
       0.110769         2217.02         2226.54 
       0.116806         2065.19         2089.91 
       0.122832         1973.88          1984.2 
       0.129052         1855.44         1893.13 
       0.135211         1771.65         1807.24 
       0.141259         1701.06          1717.8 
       0.147318         1614.78         1619.98 
       0.153489         1497.75         1514.46 
       0.159709         1412.09         1408.62 
       0.165845         1345.38          1311.9 
       0.171974         1255.26         1228.24 
       0.178125         1190.88         1159.36 
       0.184229         1144.35         1104.75 
        0.19034         1074.93         1060.18 
       0.196428         1057.49         1021.17 
       0.202534         1028.22         983.046 
       0.208729         982.319         942.363 
       0.214876         932.484          899.01 
       0.220989         907.407         853.875 
       0.227147         853.887         808.545 
        0.23329         818.705         765.914 
       0.239377         798.176          728.11 
       0.245482         747.461         695.462 
       0.251667         738.538         667.512 
       0.257832         714.034         643.646 
       0.263955         691.501         622.293 
       0.270079         670.767         601.728 
        0.27624         662.389          580.74 
       0.282372         635.222         559.061 
        0.28843          617.55         537.083 
       0.294538         590.962         514.973 
       0.300721         586.043         493.477 
        0.30691         559.414         473.545 
       0.313033         547.186         455.789 
       0.319153         528.534         440.006 
       0.325316         514.725          425.78 
        0.33145         500.425         412.781 
       0.337538         494.901         400.493 
       0.343633         479.656         388.367 
       0.349808         465.822         376.051 
       0.355968         459.873         363.688 
       0.362074          449.17         351.545 
       0.368217         437.763         339.668 
       0.374374         423.269         328.363 
       0.380519         416.567         317.842 
       0.386598         407.357          308.22 
       0.392688         403.566         299.324 
        0.39888         392.814         290.864 
       0.405048         385.598         282.855 
       0.411186         377.599         275.137 
       0.417313         370.939         267.554 
       0.423458         364.396         260.049 
       0.429607         356.018          252.66 
       0.435692         347.006         245.521 
       0.441815         344.984         238.599 
       0.447964         339.122         231.977 
       0.454126         326.082         225.689 
       0.460267         322.865         219.772 
       0.466387         318.984         214.187 
        0.47254         312.917         208.818 
       0.478662         310.548          203.66 
       0.484765         302.943         198.665 
       0.490885         298.738         193.771 
       0.497035         294.622         188.953 
       0.503198         287.544         184.246 
       0.509342         284.648         179.698 
       0.515458         281.063         175.331 
       0.521598         277.738         171.114 
       0.527764         273.078         167.053 
       0.533884         269.171         163.193 
           0.54         265.801         159.485 
       0.546137         264.413         155.888 
       0.552299         259.876         152.383 
       0.558452         255.732         148.979 
       0.564573         251.365         145.682 
       0.570708         248.006         142.462 
       0.576825          244.95         139.337 
       0.582926         242.076          136.31 
       0.589034         238.124         133.374 
       0.595184         236.306         130.518 
       0.601379         234.338          127.74 
       0.607522         229.216         125.073 
       0.613639         228.794         122.499 
       0.619772         223.554         119.991 
       0.625918         221.864         117.548 
       0.632068         219.417          115.17 
       0.638161         217.996         112.877 
         0.6443         214.628         110.625 
       0.650464         212.529         108.424 
       0.656582         210.868         106.298 
       0.662703         207.485         104.229 
       0.668861         205.405         102.206 
       0.675024         203.149         100.241 
       0.681124         201.923         98.3505 
       0.687237         198.479         96.5076 
       0.693381         196.177         94.7042 
       0.699536         194.647         92.9434 
       0.705665         195.147         91.2333 
       0.711789         190.542         89.5665 
       0.717957         189.816         87.9291 
        0.72409         187.339         86.3418 
       0.730186         184.368         84.8039 
       0.736317         183.934         83.2963 
       0.742472         182.443         81.8211 
       0.748622         181.322         80.3843 
        0.75476         179.533         78.9859 
       0.760888         177.266         77.6235 
       0.767043         175.691         76.2881 
       0.773185         174.048         74.9869 
       0.779291         172.127         73.7234 
       0.785407         171.189         72.4871 
       0.791564         169.309         71.2715 
       0.797719         167.414         70.0846 
       0.803834         166.772         68.9324 
       0.809972         164.355         67.8025 
       0.816124         164.099         66.6958 
       0.822261         162.296         65.6173 
       0.828378         160.832         64.5663 
       0.834502         160.036         63.5378 
       0.840667         158.209         62.5254 
       0.846816         157.149         61.5381 
       0.852925         155.305         60.5787 
       0.859047         153.921         59.6378 
       0.865192         153.532          58.714 
       0.871341         151.866         57.8093 
       0.877463         150.488         56.9278 
       0.883569         149.332         56.0672 
       0.889708         148.565         55.2201 
       0.895864         147.175         54.3884 
       0.902008         146.262         53.5758 
       0.908149         145.335         52.7805 
       0.914301         143.643         52.0002 
       0.920448         142.926         51.2365 
       0.926574         142.103         50.4911 
       0.932687         141.016         49.7622 
       0.938823          139.39         49.0452 
       0.944975         138.815         48.3409 
       0.951105         137.624          47.653 
       0.957225         135.965         46.9799 
       0.963368         135.478         46.3175 
       0.969511          134.73         45.6681 
       0.975621         134.126         45.0347 
       0.981748         132.988         44.4118 
       0.987916         131.856         43.7968 
        0.99406         131.391         43.1959 
        1.00019         129.784         42.6076 
        1.00632         129.327         42.0308 
        1.01246         128.108          41.464 
        1.01859         126.747         40.9086 
        1.02471         127.305         40.3642 
        1.03085         125.956         39.8279 
        1.03698           124.6         39.3025 
        1.04314         123.663         38.7845 
        1.04929         123.179         38.2771 
        1.05541          122.36         37.7808 
        1.06154           121.6         37.2923 
        1.06769         120.875         36.8117 
        1.07382          120.37         36.3412 
        1.07993         119.697         35.8801 
        1.08607         118.623         35.4251 
        1.09222         117.991         34.9776 
        1.09836         117.119         34.5385 
        1.10449         116.436         34.1075 
        1.11063         115.585         33.6834 
        1.11677          114.95         33.2667 
         1.1229          114.26         32.8579 
        1.12903         113.046         32.4556 
        1.13518         113.177         32.0598 
        1.14131          112.36         31.6708 
        1.14745         111.095         31.2886 
        1.15359         110.696         30.9127 
        1.15973          110.17         30.5428 
        1.16584         109.376         30.1807 
        1.17197         108.685          29.824 
        1.17811         108.109          29.472 
        1.18424         107.062         29.1267 
        1.19038         106.762         28.7861 
        1.19652         106.222          28.451 
        1.20267         105.352         28.1213 
        1.20881         104.742         27.7969 
        1.21495         104.051         27.4782 
        1.22108         103.426         27.1646 
         1.2272         102.906         26.8567 
        1.23334         102.314         26.5528 
        1.23949         101.648          26.253 
        1.24562         101.418         25.9586 
        1.25174          100.63         25.6693 
        1.25789         100.066         25.3835 
        1.26402         99.5081         25.1026 
        1.27014         98.6179         24.8266 
        1.27628          98.378          24.554 
        1.28244         97.4874          24.285 
        1.28858         97.0466         24.0204 
        1.29471         96.6471         23.7603 
        1.30084         96.0071         23.5044 
        1.30697         95.1935         23.2519 
        1.31312         94.8458         23.0027 
        1.31925         94.6183          22.758 
        1.32537         93.9772         22.5172 
        1.33151         93.2908         22.2789 
        1.33765         92.8521         22.0443 
        1.34378         92.2612         21.8136 
        1.34992         91.6261          21.586 
        1.35606         91.1974         21.3612 
         1.3622         90.4335           21.14 
        1.36833         90.3461         20.9225 
        1.37445         89.6638         20.7082 
        1.38059         89.0912         20.4962 
        1.38675         88.7441         20.2867 
        1.39288         88.0667          20.081 
        1.39901          87.881         19.8783 
        1.40515         87.4357         19.6779 
         1.4113         86.7482         19.4804 
        1.41742         86.2556         19.2864 
        1.42355         85.9255         19.0947 
         1.4297         85.4072          18.905 
        1.43585         84.9191         18.7179 
        1.44198         84.6145         18.5342 
        1.44809         83.8858         18.3532 
        1.45423         83.6846         18.1741 
        1.46036         83.1283         17.9976 
        1.46649         82.7284         17.8234 
        1.47263         82.3536         17.6515 
        1.47877         81.9865         17.4818 
        1.48491         81.4274         17.3142 
        1.49104         80.9949         17.1491 
        1.49718         80.5305          16.986 
        1.50333         80.1406         16.8248 
        1.50947         79.5673         16.6661 
         1.5156         79.3222         16.5096 
        1.52172         78.9728         16.3552 
        1.52787         78.5738         16.2024 
          1.534         78.2994         16.0518 
        1.54013         77.6952         15.9033 
        1.54627          77.458         15.7563 
        1.55241         76.8416         15.6113 
        1.55855         76.3563         15.4682 
        1.56467         75.8661         15.3274 
         1.5708         75.7311         15.1879 
        1.57695         75.2961           15.05 
        1.58308         75.0828         14.9141 
        1.58922         74.6324         14.7798 
        1.59535         74.2719         14.6472 
         1.6015         73.7755          14.516 
        1.60764         73.6648         14.3866 
        1.61376         73.1846          14.259 
        1.61989         72.5709          14.133 
        1.62604          72.308         14.0081 
        1.63218         72.0503         13.8849 
        1.63831         71.6452         13.7635 
        1.64444         71.4516         13.6434 
        1.65059          70.712         13.5245 
        1.65673         70.5638         13.4072 
        1.66285         70.2836         13.2916 
        1.66898         69.7998         13.1773 
        1.67512         69.3812         13.0641 
        1.68127         69.0353         12.9522 
         1.6874         68.8225         12.8419 
        1.69353         68.4156         12.7329 
        1.69967         68.1291         12.6249 
        1.70581         67.8726         12.5182 
        1.71193         67.4186         12.4132 
        1.71806         66.9392         12.3091 
        1.72421         66.7782          12.206 
        1.73035           66.35         12.1043 
        1.73649         66.0284         12.0037 
        1.74262         65.7518         11.9044 
        1.74876         65.6298         11.8061 
        1.75489         65.0108         11.7091 
        1.76101         64.8769         11.6133 
        1.76715         64.4225         11.5184 
        1.77329         64.1611         11.4244 
        1.77943         63.9679         11.3315 
        1.78557         63.6709         11.2397 
        1.79171         63.1962          11.149 
        1.79785         62.9408         11.0592 
        1.80399         62.5287         10.9704 
        1.81012         62.3759         10.8828 
        1.81625         61.8783         10.7961 
        1.82239         61.6791         10.7103 
        1.82853         61.2576         10.6254 
        1.83466         61.0415         10.5415 
        1.84078         60.5626         10.4587 
        1.84692          60.427         10.3766 
        1.85306         60.1001         10.2953 
         1.8592         59.8148         10.2149 
        1.86533         59.4436         10.1355 
        1.87147         59.2517         10.0569 
        1.87761         59.0553         9.97903 
        1.88375         58.8098          9.9021 
        1.88988         58.6036         9.82606 
        1.89601          58.133         9.75079 
        1.90215         57.9233         9.67625 
        1.90829         57.6798         9.60252 
        1.91442         57.3263         9.52956 
        1.92056         57.1384         9.45743 
         1.9267          56.697         9.38597 
        1.93284         56.4017         9.31522 
        1.93897         56.2048         9.24532 
        1.94509         55.9766          9.1763 
        1.95123         55.7212         9.10781 
        1.95737          55.442         9.03997 
        1.96349         55.1075           8.973 
        1.96964         54.7858         8.90652 
        1.97578         54.6048         8.84068 
        1.98192         54.3817         8.77565 
        1.98805         54.2163         8.71126 
        1.99419         53.7935         8.64751 
        2.00033         53.4859         8.58438 
        2.00647         53.3469          8.5219 
         2.0126         53.0604         8.46014 
        2.01874          52.829          8.3989 
        2.02488         52.5855         8.33822 
        2.03101         52.3067         8.27826 
        2.03714         51.9743         8.21894 
        2.04328         51.7611         8.16013 
        2.04941         51.4998         8.10196 
        2.05554         51.2278         8.04439 
        2.06167          51.047         7.98731 
        2.06781         50.7644         7.93077 
        2.07396         50.4982         7.87471 
        2.08009         50.3406         7.81928 
        2.08622         49.9741         7.76445 
        2.09237         49.8358         7.71004 
        2.09851         49.4835         7.65615 
        2.10464         49.2901         7.60286 
        2.11077         49.1261         7.55015 
        2.11691         48.8866         7.49782 
        2.12305          48.591         7.44598 
        2.12918         48.3993         7.39476 
        2.13531          48.235         7.34402 
        2.14145         47.9547         7.29364 
         2.1476         47.7654         7.24368 
        2.15372         47.4961         7.19443 
        2.15985         47.3681          7.1456 
        2.16599         47.0932         7.09708 
        2.17213         47.0517         7.04907 
        2.17827         46.5441         7.00151 
         2.1844         46.3748         6.95443 
        2.19054         46.1991         6.90778 
        2.19666         45.9862         6.86161 
         2.2028         45.8221         6.81584 
        2.20893          45.569         6.77045 
        2.21508         45.4111         6.72543 
        2.22122         45.1243         6.68081 
        2.22736         44.8579         6.63669 
        2.23349         44.7256         6.59297 
        2.23962         44.4978         6.54963 
        2.24577         44.2397         6.50664 
         2.2519         44.0128          6.4641 
        2.25802         43.9827         6.42201 
        2.26417         43.6442         6.38017 
        2.27031         43.4308         6.33867 
        2.27644         43.2122         6.29767 
        2.28257         43.0948         6.25702 
        2.28872         42.8111         6.21666 
        2.29486         42.6257         6.17667 
        2.30099          42.488         6.13711 
        2.30712         42.2445         6.09788 
        2.31326         42.0882         6.05893 
         2.3194         41.8937         6.02034 
        2.32553         41.7021         5.98215 
        2.33166         41.5024         5.94431 
         2.3378         41.3285         5.90675 
        2.34394         41.0781          5.8695 
        2.35007         40.9211         5.83263 
        2.35619          40.805         5.79612 
        2.36233         40.5243         5.75983 
        2.36848         40.3503         5.72379 
        2.37462         40.1821         5.68812 
        2.38075          39.901          5.6528 
        2.38689         39.7599         5.61775 
        2.39303         39.6393           5.583 
        2.39916         39.4299         5.54859 
        2.40529         39.2429         5.51446 
        2.41143         39.0715          5.4806 
        2.41757         38.8695         5.44701 
         2.4237         38.7516         5.41377 
        2.42983         38.5469          5.3808 
        2.43598         38.3661         5.34803 
        2.44211         38.2851         5.31558 
        2.44823         38.0488         5.28347 
        2.45437         37.8395         5.25154 
        2.46052         37.6709         5.21985 
        2.46665         37.5096         5.18848 
        2.47279         37.3348         5.15737 
        2.47892         37.1332          5.1265 
        2.48507         36.9504         5.09586 
         2.4912         36.7679         5.06552 
