# k  (h/Mpc)    P(k)  (Mpc/h)^3    P_linear(k)  (Mpc/h)^3
     0.00783031         306.208         308.895 
       0.013688         405.133         406.374 
       0.019231         436.314         436.734 
      0.0249154         426.561          428.46 
      0.0312784         393.658         394.181 
      0.0375637         352.625         352.211 
      0.0433917         315.699          315.98 
      0.0492413          286.61         286.337 
      0.0555754          261.78         262.281 
      0.0619321         245.149         244.419 
       0.067871         230.203         230.592 
      0.0738098         216.579         217.107 
      0.0800417         200.904         201.777 
      0.0862327         184.682         185.109 
      0.0921407         168.494         168.671 
      0.0982031         152.208         152.562 
       0.104506          138.25         137.912 
       0.110769         126.509         126.216 
       0.116806         117.513         117.684 
       0.122832          111.51         111.354 
       0.129052         106.041         106.266 
       0.135211         101.422         101.748 
       0.141259         97.0221         97.0997 
       0.147318         92.0298         91.8677 
       0.153489          85.935         85.9665 
       0.159709         79.8156         79.7767 
       0.165845         74.3948         73.9059 
       0.171974         68.8133         68.6965 
       0.178125         64.5866           64.37 
       0.184229         61.3564         60.9986 
        0.19034         58.3858         58.3874 
       0.196428         56.4854         56.2746 
       0.202534         54.8077         54.3423 
       0.208729          52.577         52.3135 
       0.214876          50.155         50.0869 
       0.220989         48.0984         47.6505 
       0.227147         45.1792         45.0739 
        0.23329         42.7001         42.5418 
       0.239377          40.493         40.2266 
       0.245482         38.3589         38.2037 
       0.251667         36.8976         36.4961 
       0.257832         35.4344         35.1026 
       0.263955         34.2903         33.9368 
       0.270079         33.2384         32.8811 
        0.27624         32.3432         31.8324 
       0.282372         31.2166         30.7343 
        0.28843         29.9437         29.5775 
       0.294538         28.7494         28.3579 
       0.300721         27.6588         27.1196 
        0.30691         26.3513         25.9338 
       0.313033         25.3225         24.8616 
       0.319153         24.1787         23.9148 
       0.325316         23.6346         23.0866 
        0.33145         22.8605         22.3649 
       0.337538         22.2027         21.7148 
       0.343633         21.5258         21.0929 
       0.349808         20.9436         20.4639 
       0.355968         20.3026         19.8192 
       0.362074          19.631         19.1651 
       0.368217         18.9952         18.5019 
       0.374374         18.2754         17.8523 
       0.380519         17.7421         17.2373 
       0.386598         17.2115          16.674 
       0.392688         16.7407         16.1614 
        0.39888         16.2368         15.6871 
       0.405048         15.8256         15.2531 
       0.411186         15.4366         14.8459 
       0.417313         14.9653         14.4506 
       0.423458         14.6103         14.0577 
       0.429607         14.1758         13.6642 
       0.435692         13.7794         13.2748 
       0.441815         13.4195         12.8892 
       0.447964         13.1191         12.5141 
       0.454126         12.6767         12.1556 
       0.460267         12.3529         11.8201 
       0.466387         12.0016         11.5079 
        0.47254         11.7509         11.2132 
       0.478662         11.4944         10.9357 
       0.484765         11.1924         10.6704 
       0.490885         10.9253         10.4113 
       0.497035         10.7514         10.1547 
       0.503198         10.4615         9.90128 
       0.509342           10.22         9.65319 
       0.515458         9.95641         9.41182 
       0.521598         9.73838         9.17699 
       0.527764         9.48793         8.95071 
       0.533884         9.31322         8.73693 
           0.54          9.0985         8.53336 
       0.546137         8.91765         8.33785 
       0.552299           8.729         8.14919 
       0.558452         8.49304          7.9672 
       0.564573         8.35501         7.79112 
       0.570708         8.18329          7.6184 
       0.576825         7.98223         7.44942 
       0.582926         7.84459         7.28469 
       0.589034         7.62221          7.1242 
       0.595184         7.48927         6.96771 
       0.601379         7.33068         6.81549 
       0.607522         7.21502         6.66974 
       0.613639         7.10654         6.52964 
       0.619772         6.91986         6.39406 
       0.625918         6.81584         6.26271 
       0.632068         6.70518         6.13519 
       0.638161          6.5512         6.01217 
         0.6443          6.4196         5.89107 
       0.650464         6.28237         5.77218 
       0.656582         6.20081           5.657 
       0.662703         6.08677         5.54478 
       0.668861         5.98781         5.43509 
       0.675024         5.85904         5.32862 
       0.681124         5.74479         5.22642 
       0.687237         5.66503         5.12693 
       0.693381         5.57028         5.02971 
       0.699536         5.42555         4.93489 
       0.705665         5.34706         4.84289 
       0.711789         5.26556         4.75327 
       0.717957         5.16711         4.66526 
        0.72409         5.08345         4.57995 
       0.730186          4.9993         4.49727 
       0.736317         4.94527         4.41617 
       0.742472         4.86029         4.33677 
       0.748622         4.76855          4.2594 
        0.75476         4.66883         4.18411 
       0.760888          4.6037         4.11076 
       0.767043         4.55245         4.03891 
       0.773185         4.45813         3.96896 
       0.779291         4.40104         3.90111 
       0.785407         4.33079         3.83477 
       0.791564          4.2634         3.76958 
       0.797719         4.20493         3.70596 
       0.803834         4.14655         3.64422 
       0.809972         4.08626         3.58368 
       0.816124         4.01134         3.52439 
       0.822261         3.94359         3.46661 
       0.828378         3.89647          3.4103 
       0.834502           3.852          3.3552 
       0.840667         3.77246         3.30097 
       0.846816         3.71785         3.24809 
       0.852925         3.68259         3.19671 
       0.859047           3.629         3.14634 
       0.865192         3.57843          3.0969 
       0.871341         3.52886          3.0485 
       0.877463         3.48905         3.00136 
       0.883569         3.42561         2.95534 
       0.889708         3.37328         2.91006 
       0.895864         3.33505         2.86562 
       0.902008         3.28075         2.82221 
       0.908149         3.24153         2.77973 
       0.914301         3.18169         2.73806 
       0.920448         3.14533          2.6973 
       0.926574         3.10011         2.65751 
       0.932687         3.06534         2.61862 
       0.938823         3.03509         2.58037 
       0.944975          2.9909         2.54281 
       0.951105         2.95633         2.50613 
       0.957225         2.93075         2.47024 
       0.963368          2.8877         2.43494 
       0.969511         2.84524         2.40033 
       0.975621         2.80098         2.36658 
       0.981748          2.7774          2.3334 
       0.987916         2.74111         2.30065 
        0.99406         2.69844         2.26866 
        1.00019         2.67393         2.23734 
        1.00632         2.63601         2.20664 
        1.01246         2.60554         2.17648 
        1.01859         2.57783         2.14693 
        1.02471         2.54239         2.11797 
        1.03085         2.51868         2.08945 
        1.03698         2.48214         2.06151 
        1.04314         2.45774         2.03397 
        1.04929         2.42356           2.007 
        1.05541         2.39955         1.98063 
        1.06154         2.37002         1.95468 
        1.06769         2.34338         1.92915 
        1.07382         2.31773         1.90416 
        1.07993          2.2825         1.87968 
        1.08607         2.26981         1.85552 
        1.09222         2.23853         1.83177 
        1.09836         2.22333         1.80847 
        1.10449         2.19587          1.7856 
        1.11063         2.16515          1.7631 
        1.11677         2.13965           1.741 
         1.1229         2.11752         1.71932 
        1.12903         2.09174         1.69799 
        1.13518         2.07669         1.67701 
        1.14131         2.04699          1.6564 
        1.14745         2.01368         1.63614 
        1.15359         2.00494         1.61622 
        1.15973         1.97385         1.59663 
        1.16584         1.96755         1.57745 
        1.17197         1.94178         1.55856 
        1.17811         1.92181         1.53993 
        1.18424         1.90991         1.52165 
        1.19038         1.88318         1.50362 
        1.19652         1.86109         1.48589 
        1.20267         1.84855         1.46844 
        1.20881          1.8221         1.45128 
        1.21495         1.81058         1.43443 
        1.22108         1.79255         1.41784 
         1.2272         1.77897         1.40156 
        1.23334         1.75612         1.38549 
        1.23949         1.73687         1.36964 
        1.24562          1.7238         1.35409 
        1.25174         1.70527          1.3388 
        1.25789         1.69036          1.3237 
        1.26402         1.66762         1.30886 
        1.27014         1.65242         1.29428 
        1.27628          1.6447         1.27989 
        1.28244         1.62034         1.26568 
        1.28858         1.60777         1.25171 
        1.29471         1.59464         1.23799 
        1.30084         1.57664         1.22448 
        1.30697          1.5636         1.21115 
        1.31312         1.54097         1.19801 
        1.31925         1.53362          1.1851 
        1.32537         1.52091          1.1724 
        1.33151         1.50792         1.15983 
        1.33765         1.49179         1.14746 
        1.34378          1.4737          1.1353 
        1.34992         1.46802          1.1233 
        1.35606         1.44923         1.11145 
         1.3622         1.43938          1.0998 
        1.36833         1.42538         1.08834 
        1.37445         1.40917         1.07705 
        1.38059         1.39702         1.06588 
        1.38675         1.39508         1.05485 
        1.39288         1.37493         1.04402 
        1.39901         1.36368         1.03334 
        1.40515         1.35319          1.0228 
         1.4113         1.33935          1.0124 
        1.41742         1.32804         1.00219 
        1.42355         1.32376        0.992097 
         1.4297         1.30516        0.982117 
        1.43585         1.29603        0.972278 
        1.44198         1.29032        0.962611 
        1.44809         1.27196        0.953095 
        1.45423         1.26301        0.943672 
        1.46036         1.25327        0.934394 
        1.46649         1.24236        0.925238 
        1.47263          1.2307        0.916197 
        1.47877         1.21953        0.907282 
        1.48491         1.21021        0.898471 
        1.49104         1.19976        0.889796 
        1.49718          1.1931        0.881229 
        1.50333         1.18192        0.872761 
        1.50947         1.17389        0.864422 
         1.5156         1.16314        0.856205 
        1.52172         1.15364        0.848095 
        1.52787         1.14332        0.840074 
          1.534         1.13765        0.832167 
        1.54013         1.12332         0.82437 
        1.54627         1.11567        0.816659 
        1.55241         1.10657        0.809046 
        1.55855         1.09717         0.80154 
        1.56467         1.09248        0.794151 
         1.5708         1.07981        0.786835 
        1.57695         1.07531        0.779599 
        1.58308          1.0662        0.772472 
        1.58922         1.05778        0.765429 
        1.59535         1.04978        0.758476 
         1.6015         1.04183        0.751601 
        1.60764         1.03473        0.744814 
        1.61376         1.02409         0.73813 
        1.61989         1.01888        0.731522 
        1.62604          1.0105        0.724981 
        1.63218         1.00551        0.718525 
        1.63831        0.994918        0.712161 
        1.64444        0.987704        0.705873 
        1.65059        0.981148        0.699646 
        1.65673        0.973438        0.693501 
        1.66285        0.965509        0.687447 
        1.66898        0.961058        0.681463 
        1.67512          0.9513         0.67554 
        1.68127        0.944884        0.669681 
         1.6874        0.940379        0.663905 
        1.69353        0.931539          0.6582 
        1.69967        0.925494         0.65255 
        1.70581        0.919247        0.646967 
        1.71193        0.912373        0.641472 
        1.71806        0.906329        0.636028 
        1.72421         0.89981        0.630637 
        1.73035        0.892521        0.625315 
        1.73649        0.888132        0.620056 
        1.74262        0.881653        0.614861 
        1.74876        0.874382        0.609722 
        1.75489        0.868493        0.604653 
        1.76101        0.861179        0.599643 
        1.76715         0.85649        0.594683 
        1.77329        0.850624        0.589773 
        1.77943        0.844551        0.584916 
        1.78557        0.838607        0.580122 
        1.79171        0.833759         0.57538 
        1.79785        0.827908         0.57069 
        1.80399        0.822121        0.566054 
        1.81012         0.81756        0.561476 
        1.81625        0.810838         0.55695 
        1.82239        0.807108        0.552468 
        1.82853        0.798048        0.548037 
        1.83466        0.794882        0.543659 
        1.84078        0.788764        0.539334 
        1.84692        0.785324        0.535048 
        1.85306        0.779394        0.530804 
         1.8592        0.775057        0.526613 
        1.86533        0.770103         0.52247 
        1.87147        0.764672        0.518366 
        1.87761        0.760707        0.514305 
        1.88375        0.752649        0.510292 
        1.88988        0.750211        0.506326 
        1.89601        0.744455          0.5024 
        1.90215        0.740481        0.498513 
        1.90829        0.734736        0.494669 
        1.91442        0.730216        0.490865 
        1.92056        0.725653        0.487104 
         1.9267        0.720808         0.48338 
        1.93284        0.717071        0.479692 
        1.93897        0.712937        0.476049 
        1.94509        0.708138        0.472452 
        1.95123        0.702636        0.468883 
        1.95737        0.699567        0.465349 
        1.96349        0.694283         0.46186 
        1.96964        0.690181        0.458396 
        1.97578         0.68564        0.454967 
        1.98192        0.683858         0.45158 
        1.98805        0.678398        0.448227 
        1.99419        0.673864        0.444907 
        2.00033        0.670713         0.44162 
        2.00647        0.666097        0.438367 
         2.0126        0.662015        0.435152 
        2.01874        0.658534        0.431965 
        2.02488        0.654848        0.428806 
        2.03101        0.649781        0.425686 
        2.03714        0.645507        0.422599 
        2.04328        0.642889        0.419539 
        2.04941        0.638709        0.416512 
        2.05554        0.635019        0.413517 
        2.06167          0.6317        0.410548 
        2.06781        0.626106        0.407607 
        2.07396        0.622444        0.404691 
        2.08009        0.619545        0.401809 
        2.08622        0.616186        0.398958 
        2.09237         0.61455        0.396129 
        2.09851        0.610589        0.393327 
        2.10464        0.606886        0.390556 
        2.11077        0.602536        0.387816 
        2.11691        0.598927        0.385096 
        2.12305         0.59592        0.382402 
        2.12918        0.592185         0.37974 
        2.13531        0.589027        0.377103 
        2.14145        0.585907        0.374486 
         2.1476        0.582318         0.37189 
        2.15372        0.580476        0.369331 
        2.15985        0.575838        0.366795 
        2.16599        0.572023        0.364275 
        2.17213        0.569798        0.361781 
        2.17827        0.567689        0.359311 
         2.1844         0.56446        0.356866 
        2.19054         0.56116        0.354444 
        2.19666        0.557066        0.352047 
         2.2028        0.554989        0.349671 
        2.20893        0.551687        0.347315 
        2.21508        0.548216        0.344978 
        2.22122        0.545304        0.342662 
        2.22736        0.542351        0.340372 
        2.23349        0.540352        0.338104 
        2.23962        0.537235        0.335855 
        2.24577        0.533117        0.333624 
         2.2519         0.53153        0.331417 
        2.25802        0.528069        0.329233 
        2.26417        0.524836        0.327063 
        2.27031        0.522014        0.324911 
        2.27644        0.520181        0.322784 
        2.28257        0.516899        0.320676 
        2.28872        0.514491        0.318583 
        2.29486        0.511297         0.31651 
        2.30099        0.509154        0.314459 
        2.30712        0.506958        0.312425 
        2.31326        0.503449        0.310406 
         2.3194        0.503173        0.308405 
        2.32553        0.499944        0.306426 
        2.33166        0.497078        0.304465 
         2.3378        0.494742        0.302519 
        2.34394        0.490756        0.300588 
        2.35007        0.488745        0.298678 
        2.35619        0.486163        0.296786 
        2.36233        0.482957        0.294907 
        2.36848        0.481689        0.293039 
        2.37462         0.47881        0.291192 
        2.38075        0.477474        0.289363 
        2.38689        0.474191        0.287547 
        2.39303         0.47277        0.285748 
        2.39916        0.469464        0.283966 
        2.40529        0.467249        0.282199 
        2.41143        0.465545        0.280446 
        2.41757        0.462654        0.278707 
         2.4237        0.460301        0.276986 
        2.42983        0.458587         0.27528 
        2.43598        0.456582        0.273583 
        2.44211        0.454467        0.271904 
        2.44823        0.452695        0.270242 
        2.45437        0.449371         0.26859 
        2.46052        0.448502         0.26695 
        2.46665        0.445696        0.265327 
        2.47279        0.443044        0.263718 
        2.47892        0.440941        0.262121 
        2.48507        0.439511        0.260536 
         2.4912        0.437461        0.258967 
