# k  (h/Mpc)    Pcb(k)  (Mpc/h)^3    Pcb_linear(k)  (Mpc/h)^3
     0.00783031           17110         17225.6 
       0.013688         18023.9         18471.8 
       0.019231         16430.6         16647.1 
      0.0249154         13901.4         13789.7 
      0.0312784         10709.7         10728.7 
      0.0375637          8392.6         8453.94 
      0.0433917          7099.6         7070.93 
      0.0492413         6207.11         6218.23 
      0.0555754          5677.5         5639.33 
      0.0619321         5057.25         5169.15 
       0.067871         4663.11         4687.66 
      0.0738098         4156.16         4133.03 
      0.0800417         3581.13         3524.41 
      0.0862327         3027.49         2977.02 
      0.0921407         2647.75          2565.5 
      0.0982031         2383.01         2272.03 
       0.104506         2142.57         2083.46 
       0.110769         2032.84         1968.39 
       0.116806         1958.78         1878.47 
       0.122832         1833.13         1774.16 
       0.129052         1696.91         1636.25 
       0.135211          1582.9         1476.82 
       0.141259         1412.27         1318.38 
       0.147318         1270.62         1178.26 
       0.153489         1169.95         1067.11 
       0.159709         1113.53         988.824 
       0.165845         1027.74         937.289 
       0.171974         1010.73         899.345 
       0.178125         971.103          862.96 
       0.184229         898.737          820.66 
        0.19034         868.406         770.094 
       0.196428          826.48         714.618 
       0.202534         756.015          659.55 
       0.208729         733.987         609.751 
       0.214876         692.526         569.463 
       0.220989         649.712         538.564 
       0.227147         632.438         514.513 
        0.23329         606.836         494.302 
       0.239377         599.313         474.945 
       0.245482         565.297         454.235 
       0.251667         541.613         431.451 
       0.257832         529.251         407.804 
       0.263955          497.82         384.881 
       0.270079         475.907         363.883 
        0.27624         455.509         345.539 
       0.282372         444.761         330.063 
        0.28843         438.476         316.962 
       0.294538         415.547         305.086 
       0.300721         403.491         293.593 
        0.30691         394.266         282.053 
       0.313033         375.097         270.447 
       0.319153         368.503         258.844 
       0.325316         360.661         247.516 
        0.33145         350.135         236.948 
       0.337538         335.979         227.378 
       0.343633         326.265         218.721 
       0.349808          316.96         210.771 
       0.355968         310.796          203.41 
       0.362074         298.596         196.462 
       0.368217          295.69          189.65 
       0.374374         289.493         182.938 
       0.380519         277.042         176.391 
       0.386598         273.143         170.126 
       0.392688         265.127         164.155 
        0.39888         258.902         158.453 
       0.405048          252.23         153.142 
       0.411186         251.033         148.198 
       0.417313         246.509         143.537 
       0.423458         239.796         139.067 
       0.429607         231.981         134.757 
       0.435692         228.572         130.624 
       0.441815         223.831          126.59 
       0.447964         218.092         122.683 
       0.454126         215.266          118.93 
       0.460267         211.631         115.361 
       0.466387          206.11         111.973 
        0.47254         203.784         108.731 
       0.478662          198.62         105.651 
       0.484765         195.165         102.704 
       0.490885         192.537         99.8548 
       0.497035         188.821          97.091 
       0.503198         187.525         94.4168 
       0.509342         183.109         91.8417 
       0.515458         179.529         89.3701 
       0.521598         175.823         86.9831 
       0.527764         173.968         84.6808 
       0.533884         172.019         82.4853 
           0.54         168.942         80.3736 
       0.546137         164.968         78.3303 
       0.552299          163.08         76.3498 
       0.558452         160.362         74.4401 
       0.564573         159.754         72.6031 
       0.570708         155.469         70.8218 
       0.576825         153.331         69.1039 
       0.582926         152.008         67.4472 
       0.589034          149.08          65.844 
       0.595184           147.7         64.2844 
       0.601379         145.349         62.7666 
       0.607522         141.597          61.311 
       0.613639         141.016         59.9077 
       0.619772         139.617         58.5445 
       0.625918         137.753         57.2204 
       0.632068         134.943         55.9361 
       0.638161         134.405         54.7025 
         0.6443         132.366         53.4974 
       0.650464         130.293         52.3246 
       0.656582         128.928         51.1958 
       0.662703         128.253         50.1001 
       0.668861         125.222         49.0306 
       0.675024         124.852         47.9914 
       0.681124         122.957         46.9929 
       0.687237          122.06         46.0207 
       0.693381         119.562         45.0716 
       0.699536         119.102         44.1475 
       0.705665         117.715         43.2535 
       0.711789         115.757         42.3851 
       0.717957         114.859         41.5347 
        0.72409         113.162         40.7125 
       0.730186         113.312         39.9176 
       0.736317         111.806         39.1397 
       0.742472         110.004         38.3797 
       0.748622         108.536         37.6406 
        0.75476         108.555         36.9226 
       0.760888         107.119         36.2244 
       0.767043         105.204         35.5414 
       0.773185         103.962         34.8776 
       0.779291         103.311         34.2344 
       0.785407          102.53         33.6066 
       0.791564         101.449         32.9906 
       0.797719         99.7566         32.3904 
       0.803834         99.9097         31.8089 
       0.809972         98.7202         31.2397 
       0.816124         96.8867         30.6832 
       0.822261         96.3729         30.1417 
       0.828378         95.8423         29.6149 
       0.834502         95.0907         29.1003 
       0.840667         94.4611         28.5946 
       0.846816         92.9251         28.1024 
       0.852925          92.406         27.6248 
       0.859047         91.3751         27.1573 
       0.865192         90.7926         26.6991 
       0.871341          90.116         26.2511 
       0.877463         89.0817         25.8155 
       0.883569         89.0375         25.3908 
       0.889708         88.2134         24.9736 
       0.895864         87.0823         24.5646 
       0.902008         86.1381         24.1656 
       0.908149         85.2757         23.7758 
       0.914301         84.7454         23.3939 
       0.920448         84.7844         23.0208 
       0.926574         83.1946         22.6571 
       0.932687         83.0418          22.302 
       0.938823         82.5053         21.9533 
       0.944975         81.9053         21.6112 
       0.951105         81.0389         21.2776 
       0.957225         80.4711         20.9517 
       0.963368         79.8407         20.6315 
       0.969511         79.2681          20.318 
       0.975621         78.0286         20.0126 
       0.981748         77.9372         19.7128 
       0.987916         77.2711         19.4172 
        0.99406         76.8481         19.1288 
        1.00019         76.2954         18.8469 
        1.00632         75.5227         18.5708 
        1.01246         75.1029         18.2999 
        1.01859         74.5853         18.0348 
        1.02471         74.1705         17.7753 
        1.03085         73.5044           17.52 
        1.03698         72.8795         17.2703 
        1.04314         72.5312         17.0243 
        1.04929         72.1893         16.7837 
        1.05541         71.5045         16.5487 
        1.06154         70.8262         16.3176 
        1.06769         70.3668         16.0906 
        1.07382         70.0157         15.8687 
        1.07993         69.7235         15.6514 
        1.08607         69.2932         15.4373 
        1.09222         68.6032         15.2269 
        1.09836         68.1743         15.0207 
        1.10449         67.7688         14.8186 
        1.11063         67.2365           14.62 
        1.11677         67.0585          14.425 
         1.1229         66.1988          14.234 
        1.12903         65.7802         14.0462 
        1.13518         65.3015         13.8617 
        1.14131         65.1422         13.6805 
        1.14745         64.7735         13.5027 
        1.15359          64.151         13.3281 
        1.15973         63.9175         13.1564 
        1.16584         63.4796         12.9885 
        1.17197         63.0667         12.8233 
        1.17811         62.6925         12.6605 
        1.18424         62.1437          12.501 
        1.19038         61.9053         12.3437 
        1.19652         61.6308         12.1892 
        1.20267         61.0681         12.0374 
        1.20881         60.6374         11.8882 
        1.21495         60.4579         11.7417 
        1.22108         60.0547         11.5977 
         1.2272         59.8835         11.4565 
        1.23334         59.4928         11.3173 
        1.23949         58.9334         11.1801 
        1.24562         58.5228         11.0455 
        1.25174         58.5488         10.9133 
        1.25789          58.016         10.7829 
        1.26402         57.6335         10.6549 
        1.27014         57.1635         10.5292 
        1.27628         56.9998         10.4052 
        1.28244         56.8683         10.2829 
        1.28858         56.4615         10.1628 
        1.29471         56.0134         10.0448 
        1.30084         55.6656         9.92884 
        1.30697         55.3834          9.8145 
        1.31312         55.2333         9.70179 
        1.31925         54.6601          9.5912 
        1.32537         54.4275         9.48244 
        1.33151         54.3455         9.37497 
        1.33765         53.8315         9.26922 
        1.34378         53.6203         9.16531 
        1.34992         53.3069         9.06291 
        1.35606           53.14         8.96186 
         1.3622         52.7655         8.86252 
        1.36833         52.4679         8.76491 
        1.37445         52.1986         8.66883 
        1.38059         51.8391         8.57388 
        1.38675         51.6082         8.48012 
        1.39288         51.3309         8.38814 
        1.39901         51.0401         8.29756 
        1.40515         50.7066          8.2081 
         1.4113         50.4969            8.12 
        1.41742         50.2662         8.03352 
        1.42355         50.0549         7.94813 
         1.4297         49.7393         7.86373 
        1.43585         49.6964         7.78058 
        1.44198         49.1536         7.69895 
        1.44809         48.8872         7.61864 
        1.45423         48.8532         7.53918 
        1.46036         48.5022         7.46099 
        1.46649         48.1456         7.38387 
        1.47263         47.8781         7.30779 
        1.47877         47.7009          7.2328 
        1.48491         47.3295         7.15874 
        1.49104         47.2355         7.08588 
        1.49718         46.8981         7.01397 
        1.50333         46.7746         6.94294 
        1.50947         46.5435         6.87303 
         1.5156         46.3422         6.80419 
        1.52172         45.9791         6.73629 
        1.52787         45.8335         6.66918 
          1.534          45.582         6.60306 
        1.54013         45.4127          6.5379 
        1.54627         45.0767          6.4735 
        1.55241         45.0114         6.40995 
        1.55855         44.6246         6.34735 
        1.56467         44.2766         6.28574 
         1.5708         44.3104         6.22478 
        1.57695         43.9445         6.16453 
        1.58308         43.8534         6.10522 
        1.58922         43.5691         6.04664 
        1.59535         43.5113         5.98884 
         1.6015         43.2299         5.93172 
        1.60764         43.0416         5.87536 
        1.61376         42.8251         5.81989 
        1.61989         42.4888         5.76509 
        1.62604          42.359         5.71087 
        1.63218         42.1394         5.65737 
        1.63831         41.9739         5.60469 
        1.64444         41.8006         5.55265 
        1.65059         41.5644         5.50114 
        1.65673         41.3705         5.45034 
        1.66285         41.1098         5.40033 
        1.66898         40.8878         5.35092 
        1.67512         40.6926         5.30203 
        1.68127          40.619          5.2537 
         1.6874         40.4436         5.20609 
        1.69353         40.2233         5.15909 
        1.69967         39.9905         5.11255 
        1.70581         39.8441         5.06661 
        1.71193         39.5452          5.0214 
        1.71806         39.4588         4.97665 
        1.72421         39.2138         4.93235 
        1.73035         39.1015         4.88864 
        1.73649         38.9005         4.84547 
        1.74262         38.7059         4.80285 
        1.74876         38.6034         4.76071 
        1.75489         38.4247         4.71916 
        1.76101         38.2401         4.67812 
        1.76715         38.0606         4.63751 
        1.77329         37.8726         4.59733 
        1.77943         37.6773         4.55761 
        1.78557         37.5686         4.51841 
        1.79171          37.276         4.47967 
        1.79785         37.1915         4.44137 
        1.80399         37.0277         4.40352 
        1.81012         36.8046         4.36617 
        1.81625         36.6787         4.32926 
        1.82239         36.4362         4.29272 
        1.82853         36.3577         4.25662 
        1.83466         36.1373         4.22096 
        1.84078         35.9542         4.18575 
        1.84692         35.9042         4.15088 
        1.85306         35.7436         4.11637 
         1.8592         35.4878          4.0823 
        1.86533         35.3737         4.04863 
        1.87147         35.1367          4.0153 
        1.87761          35.012         3.98233 
        1.88375         34.8523         3.94976 
        1.88988         34.7223          3.9176 
        1.89601         34.6191         3.88577 
        1.90215         34.4124         3.85427 
        1.90829         34.2943         3.82313 
        1.91442         34.0977         3.79234 
        1.92056         33.9303         3.76191 
         1.9267         33.7991         3.73177 
        1.93284         33.6688         3.70195 
        1.93897         33.4389         3.67251 
        1.94509         33.3847         3.64346 
        1.95123         33.2276         3.61464 
        1.95737         33.0771         3.58611 
        1.96349         32.9644         3.55796 
        1.96964         32.8208         3.53003 
        1.97578         32.6465         3.50239 
        1.98192          32.464          3.4751 
        1.98805         32.3146         3.44809 
        1.99419         32.2058         3.42137 
        2.00033         32.0422         3.39491 
        2.00647         31.9028         3.36874 
         2.0126         31.7853         3.34289 
        2.01874         31.6739         3.31728 
        2.02488         31.5061          3.2919 
        2.03101          31.386         3.26684 
        2.03714          31.256         3.24206 
        2.04328         31.1824         3.21751 
        2.04941         30.9084         3.19323 
        2.05554         30.7994         3.16922 
        2.06167         30.6777         3.14542 
        2.06781         30.6004         3.12186 
        2.07396         30.4509         3.09851 
        2.08009         30.3355         3.07544 
        2.08622         30.2039         3.05262 
        2.09237         30.0823         3.02999 
        2.09851         29.8654         3.00759 
        2.10464         29.8094         2.98545 
        2.11077         29.6653         2.96356 
        2.11691         29.5224         2.94183 
        2.12305         29.3956         2.92033 
        2.12918         29.2673         2.89908 
        2.13531         29.0857         2.87805 
        2.14145         29.0282         2.85718 
         2.1476         28.9468         2.83648 
        2.15372         28.8084          2.8161 
        2.15985         28.6464         2.79589 
        2.16599         28.5435         2.77583 
        2.17213         28.4618         2.75598 
        2.17827         28.3174         2.73633 
         2.1844         28.1671         2.71688 
        2.19054          28.153         2.69762 
        2.19666         27.9606         2.67857 
         2.2028         27.8381         2.65969 
        2.20893         27.6982         2.64098 
        2.21508         27.6041         2.62243 
        2.22122         27.4577         2.60405 
        2.22736          27.317         2.58588 
        2.23349         27.2635         2.56789 
        2.23962         27.1775         2.55006 
        2.24577         27.0321         2.53238 
         2.2519          26.919         2.51489 
        2.25802         26.7591          2.4976 
        2.26417         26.6011         2.48042 
        2.27031         26.5326         2.46338 
        2.27644         26.4446         2.44656 
        2.28257          26.387         2.42989 
        2.28872         26.2261         2.41334 
        2.29486         26.1311         2.39695 
        2.30099         26.0436         2.38075 
        2.30712         25.8947         2.36468 
        2.31326          25.821         2.34874 
         2.3194         25.6717         2.33295 
        2.32553         25.6257         2.31733 
        2.33166          25.504         2.30187 
         2.3378         25.4045         2.28652 
        2.34394         25.2449          2.2713 
        2.35007         25.1646         2.25625 
        2.35619         25.0751         2.24135 
        2.36233         24.9802         2.22655 
        2.36848         24.8939         2.21185 
        2.37462         24.8322         2.19731 
        2.38075         24.6603         2.18292 
        2.38689         24.5254         2.16864 
        2.39303         24.4576         2.15449 
        2.39916         24.3801         2.14049 
        2.40529         24.2928          2.1266 
        2.41143         24.1985         2.11283 
        2.41757         24.0898         2.09918 
         2.4237         23.9806         2.08567 
        2.42983         23.8536         2.07228 
        2.43598         23.7693         2.05897 
        2.44211         23.6469          2.0458 
        2.44823         23.5817         2.03278 
        2.45437         23.4834         2.01983 
        2.46052         23.4069         2.00698 
        2.46665         23.2734         1.99427 
        2.47279         23.1756         1.98167 
        2.47892          23.143         1.96917 
        2.48507         22.9855         1.95676 
         2.4912         22.9157         1.94449 
