# k  (h/Mpc)    P(k)  (Mpc/h)^3    P_linear(k)  (Mpc/h)^3
     0.00783031         3753.02         3803.88 
       0.013688         4757.47         4753.32 
       0.019231          4851.3          4850.7 
      0.0249154         4462.55         4510.03 
      0.0312784         3905.39         3920.13 
      0.0375637         3350.92         3343.76 
      0.0433917         2895.18         2912.54 
      0.0492413          2597.4         2599.14 
      0.0555754         2341.78         2369.29 
      0.0619321         2216.34         2204.94 
       0.067871         2047.87            2068 
      0.0738098         1898.91         1919.24 
      0.0800417         1713.54         1741.31 
      0.0862327         1538.76         1552.09 
      0.0921407         1376.69            1378 
      0.0982031         1217.67         1223.18 
       0.104506         1112.56         1098.14 
       0.110769         1023.06         1010.49 
       0.116806         957.414         953.093 
       0.122832         919.842         911.056 
       0.129052         869.084         871.578 
       0.135211         825.353         827.347 
       0.141259         781.457         775.406 
       0.147318         728.157         716.744 
       0.153489         663.898         655.565 
       0.159709         613.353         598.758 
       0.165845         575.547         552.011 
       0.171974         535.124         516.184 
       0.178125         509.911         490.022 
       0.184229         491.246         470.758 
        0.19034         464.491         454.414 
       0.196428          454.57          437.73 
       0.202534          439.83         418.552 
       0.208729         415.278         396.221 
       0.214876         389.505         372.325 
       0.220989         372.667         348.731 
       0.227147         348.148         327.013 
        0.23329         331.294         308.619 
       0.239377         320.307         293.926 
       0.245482         301.479         282.218 
       0.251667         296.825          272.41 
       0.257832         287.385         263.463 
       0.263955          277.41         254.389 
       0.270079         267.331         244.592 
        0.27624         261.091          233.97 
       0.282372         249.946         223.042 
        0.28843         239.298          212.48 
       0.294538         228.709         202.616 
       0.300721         224.147         193.804 
        0.30691         213.763         186.227 
       0.313033         208.009         179.795 
       0.319153         199.192         174.071 
       0.325316         195.478         168.649 
        0.33145         188.738         163.275 
       0.337538         185.234         157.811 
       0.343633         178.817         152.193 
       0.349808         173.206         146.481 
       0.355968         169.068         140.938 
       0.362074         163.813         135.763 
       0.368217         159.155         130.998 
       0.374374         154.388         126.673 
       0.380519         150.931         122.764 
       0.386598         146.973         119.187 
       0.392688         144.448         115.773 
        0.39888         140.611         112.386 
       0.405048         137.378         109.029 
       0.411186         134.261         105.703 
       0.417313         130.611          102.43 
       0.423458         127.629         99.2387 
       0.429607         124.377          96.192 
       0.435692         120.336          93.359 
       0.441815          119.23          90.688 
       0.447964          117.22          88.177 
       0.454126         112.147          85.803 
       0.460267         110.745         83.5364 
       0.466387         108.546         81.3421 
        0.47254         106.668         79.1866 
       0.478662         105.177         77.0846 
       0.484765         102.237         75.0327 
       0.490885         100.304         73.0353 
       0.497035         99.0092         71.1044 
       0.503198           96.31          69.255 
       0.509342         94.1818         67.4946 
       0.515458         92.7368         65.8232 
       0.521598         91.4538         64.2191 
       0.527764         89.9102         62.6686 
       0.533884          88.395         61.1769 
           0.54         86.6977         59.7252 
       0.546137         85.7539         58.3068 
       0.552299         84.4618         56.9217 
       0.558452          82.237         55.5787 
       0.564573         80.7874         54.2841 
       0.570708         79.8411         53.0302 
       0.576825         78.4166         51.8259 
       0.582926         76.8994         50.6699 
       0.589034         75.2868         49.5529 
       0.595184         74.4199         48.4644 
       0.601379         73.4592         47.4005 
       0.607522         71.6933         46.3748 
       0.613639         71.4997         45.3818 
       0.619772         69.7616         44.4141 
       0.625918         69.2609         43.4717 
       0.632068         68.3107         42.5557 
       0.638161         67.2863         41.6743 
         0.6443         66.2524         40.8124 
       0.650464         65.2896         39.9731 
       0.656582         64.6639         39.1653 
       0.662703         63.3734         38.3811 
       0.668861         62.6201         37.6149 
       0.675024         61.7754         36.8693 
       0.681124         60.7993         36.1512 
       0.687237         59.7806         35.4499 
       0.693381         59.3088         34.7632 
       0.699536         58.2081         34.0931 
       0.705665         58.4472         33.4436 
       0.711789         56.8887          32.812 
       0.717957         56.3836          32.193 
        0.72409         55.6205         31.5941 
       0.730186         54.7456         31.0147 
       0.736317            54.5         30.4471 
       0.742472         53.6226         29.8918 
       0.748622         53.1788          29.351 
        0.75476         52.4935         28.8246 
       0.760888         51.7156         28.3119 
       0.767043         51.1886         27.8095 
       0.773185         50.4935         27.3204 
       0.779291         50.2673         26.8458 
       0.785407         49.7605          26.382 
       0.791564         48.9508         25.9264 
       0.797719         48.1273         25.4819 
       0.803834         48.0299         25.0509 
       0.809972          47.319         24.6285 
       0.816124         46.5904         24.2151 
       0.822261         46.3114         23.8124 
       0.828378         45.9567         23.4202 
       0.834502         45.4083         23.0366 
       0.840667         44.9958         22.6591 
       0.846816         44.3419         22.2912 
       0.852925         43.9726         21.9339 
       0.859047         43.4097         21.5837 
       0.865192         43.1179           21.24 
       0.871341         42.9168         20.9037 
       0.877463         42.0459         20.5762 
       0.883569         41.7419         20.2567 
       0.889708         41.4483         19.9423 
       0.895864         41.0629         19.6339 
       0.902008         40.7149         19.3327 
       0.908149         40.3422         19.0381 
       0.914301          40.154         18.7492 
       0.920448         39.4972         18.4666 
       0.926574         39.2455         18.1909 
       0.932687         38.8629         17.9214 
       0.938823         38.3221         17.6565 
       0.944975         38.1807         17.3964 
       0.951105          37.823         17.1425 
       0.957225         37.3622         16.8941 
       0.963368         37.2605         16.6499 
       0.969511          36.938         16.4106 
       0.975621         36.6347         16.1772 
       0.981748         36.1512         15.9479 
       0.987916         35.9839         15.7216 
        0.99406         35.6823         15.5005 
        1.00019         35.2395         15.2842 
        1.00632         35.0731         15.0723 
        1.01246         34.8286         14.8641 
        1.01859         34.3576         14.6602 
        1.02471         34.3505         14.4603 
        1.03085         34.0126         14.2636 
        1.03698         33.5382          14.071 
        1.04314          33.294         13.8811 
        1.04929         33.0808         13.6952 
        1.05541         32.7262         13.5135 
        1.06154         32.6275         13.3346 
        1.06769         32.3683         13.1588 
        1.07382         32.0947         12.9867 
        1.07993         31.9806         12.8181 
        1.08607           31.55         12.6518 
        1.09222         31.4492         12.4884 
        1.09836         31.1086          12.328 
        1.10449         30.9448         12.1706 
        1.11063         30.5452         12.0159 
        1.11677         30.4492         11.8639 
         1.1229         30.3365         11.7148 
        1.12903         29.9243         11.5682 
        1.13518         29.7483         11.4239 
        1.14131         29.6865         11.2823 
        1.14745         29.3924         11.1431 
        1.15359         29.2879         11.0063 
        1.15973         28.9546         10.8717 
        1.16584         28.6719           10.74 
        1.17197         28.7149         10.6103 
        1.17811         28.3246         10.4824 
        1.18424         28.0952         10.3569 
        1.19038          28.057         10.2332 
        1.19652         27.8699         10.1115 
        1.20267         27.6667         9.99187 
        1.20881         27.4628         9.87418 
        1.21495         27.2782         9.75859 
        1.22108         27.0937         9.64488 
         1.2272         26.8075         9.53326 
        1.23334         26.7214         9.42316 
        1.23949         26.5248         9.31455 
        1.24562         26.4227         9.20797 
        1.25174         26.2778         9.10322 
        1.25789         26.0808         8.99979 
        1.26402         25.9622         8.89816 
        1.27014         25.6869         8.79836 
        1.27628         25.5189          8.6998 
        1.28244         25.4323         8.60256 
        1.28858          25.326         8.50696 
        1.29471         25.1251         8.41302 
        1.30084         24.9592         8.32061 
        1.30697         24.7886         8.22944 
        1.31312         24.5718         8.13952 
        1.31925         24.4704         8.05124 
        1.32537         24.3911         7.96436 
        1.33151         24.1767         7.87846 
        1.33765         24.1136         7.79388 
        1.34378         23.9893         7.71071 
        1.34992         23.6724         7.62871 
        1.35606         23.6294         7.54773 
         1.3622         23.4895         7.46807 
        1.36833         23.3375         7.38976 
        1.37445          23.309         7.31262 
        1.38059         23.1368         7.23635 
        1.38675         22.8944         7.16099 
        1.39288         22.8587         7.08701 
        1.39901         22.6699         7.01412 
        1.40515         22.5884         6.94209 
         1.4113         22.4424         6.87111 
        1.41742         22.2429         6.80139 
        1.42355         22.2105         6.73252 
         1.4297         22.0792          6.6644 
        1.43585         22.0258         6.59725 
        1.44198         21.7923          6.5313 
        1.44809         21.7198         6.46637 
        1.45423         21.6205         6.40209 
        1.46036         21.5417          6.3388 
        1.46649         21.3969         6.27635 
        1.47263         21.2461          6.2147 
        1.47877         21.1546          6.1539 
        1.48491         21.0469         6.09383 
        1.49104         21.0029          6.0347 
        1.49718         20.8057          5.9763 
        1.50333         20.7454         5.91859 
        1.50947         20.6618         5.86177 
         1.5156         20.4788         5.80578 
        1.52172         20.3495         5.75052 
        1.52787         20.3347         5.69587 
          1.534         20.1779         5.64201 
        1.54013         20.0193         5.58889 
        1.54627          19.972         5.53637 
        1.55241         19.8486         5.48452 
        1.55855         19.7497         5.43341 
        1.56467         19.6755         5.38309 
         1.5708         19.6074         5.33327 
        1.57695         19.4196           5.284 
        1.58308         19.4323         5.23548 
        1.58922          19.296         5.18753 
        1.59535         19.1835          5.1402 
         1.6015         19.0809          5.0934 
        1.60764         19.0285         5.04721 
        1.61376          18.931         5.00172 
        1.61989         18.7592         4.95676 
        1.62604         18.7592         4.91225 
        1.63218          18.624         4.86832 
        1.63831          18.583         4.82503 
        1.64444         18.4236         4.78225 
        1.65059         18.3508          4.7399 
        1.65673         18.3016          4.6981 
        1.66285         18.1691         4.65693 
        1.66898         18.1328         4.61623 
        1.67512         18.0501         4.57595 
        1.68127         17.9296         4.53612 
         1.6874         17.8421         4.49684 
        1.69353         17.7975         4.45806 
        1.69967         17.6669         4.41965 
        1.70581         17.5933         4.38171 
        1.71193         17.4978         4.34436 
        1.71806         17.4444         4.30736 
        1.72421         17.3477         4.27073 
        1.73035         17.2948         4.23457 
        1.73649         17.1939         4.19883 
        1.74262          17.171         4.16354 
        1.74876         17.0615         4.12863 
        1.75489         16.9904         4.09419 
        1.76101         16.8969         4.06016 
        1.76715         16.8791         4.02647 
        1.77329         16.7626         3.99312 
        1.77943         16.6715         3.96014 
        1.78557         16.6185         3.92758 
        1.79171         16.5734         3.89538 
        1.79785         16.4427         3.86354 
        1.80399         16.3873         3.83206 
        1.81012         16.3476         3.80097 
        1.81625         16.2445         3.77024 
        1.82239         16.2107         3.73981 
        1.82853         16.0748         3.70973 
        1.83466         16.0184         3.68001 
        1.84078         15.9095         3.65065 
        1.84692         15.9065         3.62157 
        1.85306         15.8184         3.59276 
         1.8592         15.7586         3.56432 
        1.86533         15.7024          3.5362 
        1.87147         15.6245         3.50835 
        1.87761         15.5849         3.48079 
        1.88375         15.4578         3.45356 
        1.88988         15.4433         3.42665 
        1.89601         15.3672         3.40002 
        1.90215         15.2853         3.37365 
        1.90829         15.2466         3.34757 
        1.91442          15.176         3.32176 
        1.92056         15.1219         3.29626 
         1.9267          15.058         3.27099 
        1.93284         14.9699         3.24597 
        1.93897         14.9005         3.22127 
        1.94509         14.8511         3.19688 
        1.95123         14.7904         3.17267 
        1.95737         14.7337         3.14871 
        1.96349         14.6719         3.12505 
        1.96964         14.6081         3.10157 
        1.97578          14.559         3.07831 
        1.98192         14.4658         3.05535 
        1.98805         14.4398         3.03262 
        1.99419         14.3621         3.01012 
        2.00033         14.3129         2.98784 
        2.00647         14.2724         2.96579 
         2.0126         14.1641           2.944 
        2.01874         14.1181         2.92239 
        2.02488           14.05         2.90099 
        2.03101         14.0483         2.87984 
        2.03714         13.9821         2.85892 
        2.04328         13.8997         2.83819 
        2.04941         13.8313         2.81768 
        2.05554         13.8322         2.79738 
        2.06167         13.7488         2.77726 
        2.06781         13.7073         2.75734 
        2.07396         13.6593         2.73758 
        2.08009         13.5975         2.71805 
        2.08622          13.515         2.69874 
        2.09237         13.4886         2.67957 
        2.09851         13.4349         2.66059 
        2.10464         13.3687         2.64182 
        2.11077         13.3183         2.62326 
        2.11691         13.2695         2.60484 
        2.12305         13.2145         2.58659 
        2.12918          13.162         2.56856 
        2.13531         13.1299          2.5507 
        2.14145          13.058         2.53298 
         2.1476         13.0307          2.5154 
        2.15372         12.9794         2.49807 
        2.15985         12.9109         2.48089 
        2.16599         12.8753         2.46383 
        2.17213         12.8436         2.44694 
        2.17827         12.7905         2.43022 
         2.1844         12.7391         2.41367 
        2.19054          12.666         2.39727 
        2.19666         12.6448         2.38104 
         2.2028         12.5917         2.36495 
        2.20893         12.5532           2.349 
        2.21508         12.4894         2.33318 
        2.22122         12.4308          2.3175 
        2.22736         12.3911           2.302 
        2.23349         12.3311         2.28664 
        2.23962         12.3064         2.27142 
        2.24577         12.2432         2.25632 
         2.2519         12.2235         2.24138 
        2.25802         12.1721          2.2266 
        2.26417         12.1284         2.21191 
        2.27031           12.08         2.19735 
        2.27644         12.0285         2.18295 
        2.28257         11.9955         2.16869 
        2.28872         11.9399         2.15452 
        2.29486         11.9184         2.14049 
        2.30099         11.8876         2.12661 
        2.30712         11.8306         2.11285 
        2.31326         11.7922         2.09919 
         2.3194         11.7215         2.08565 
        2.32553         11.7014         2.07226 
        2.33166         11.6202         2.05899 
         2.3378         11.6095         2.04582 
        2.34394         11.5629         2.03276 
        2.35007         11.5056         2.01984 
        2.35619         11.4678         2.00704 
        2.36233         11.4213         1.99433 
        2.36848         11.4125         1.98169 
        2.37462         11.3717          1.9692 
        2.38075         11.2928         1.95682 
        2.38689         11.2705         1.94454 
        2.39303          11.237         1.93237 
        2.39916         11.2004         1.92031 
        2.40529         11.1659         1.90836 
        2.41143         11.1163         1.89651 
        2.41757         11.0955         1.88474 
         2.4237         11.0344          1.8731 
        2.42983         11.0034         1.86156 
        2.43598         10.9781         1.85009 
        2.44211          10.915         1.83873 
        2.44823         10.8805          1.8275 
        2.45437         10.8631         1.81632 
        2.46052         10.8107         1.80523 
        2.46665         10.7638         1.79426 
        2.47279          10.729         1.78337 
        2.47892         10.6937         1.77258 
        2.48507         10.6653         1.76186 
         2.4912         10.6321         1.75125 
