# k  (h/Mpc)    Pcb(k)  (Mpc/h)^3    Pcb_linear(k)  (Mpc/h)^3
     0.00783031         2401.12         2414.36 
       0.013688         3136.45         3178.85 
       0.019231         3381.73         3403.92 
      0.0249154         3331.86          3331.8 
      0.0312784         3061.56         3073.87 
      0.0375637         2754.13         2774.28 
      0.0433917          2522.5         2525.47 
      0.0492413          2311.1         2325.54 
      0.0555754         2155.23         2158.66 
      0.0619321         1985.97         2020.43 
       0.067871         1879.68         1896.41 
      0.0738098         1753.27         1764.89 
      0.0800417         1611.23         1617.23 
      0.0862327         1458.83         1468.83 
      0.0921407          1327.6         1336.71 
      0.0982031         1218.71            1220 
       0.104506         1112.05         1123.19 
       0.110769          1040.7         1049.82 
       0.116806         996.359         994.442 
       0.122832         939.314         946.548 
       0.129052          895.06         897.905 
       0.135211         850.636         846.517 
       0.141259         791.947         792.649 
       0.147318         731.444         737.811 
       0.153489         685.133         684.833 
       0.159709         645.223         637.744 
       0.165845         596.689         599.134 
       0.171974         578.182         568.061 
       0.178125         553.722         542.576 
       0.184229         523.702         520.422 
        0.19034         508.582         499.022 
       0.196428         487.714         476.949 
       0.202534         457.479         453.646 
       0.208729         441.447         429.415 
       0.214876          422.39         405.957 
       0.220989         393.517         384.387 
       0.227147         383.338         365.211 
        0.23329         368.655         348.803 
       0.239377         357.454         334.854 
       0.245482         341.468         322.447 
       0.251667         327.839         310.672 
       0.257832         322.204         299.082 
       0.263955         305.519         287.401 
       0.270079         294.448         275.562 
        0.27624         280.934         263.788 
       0.282372         271.997         252.573 
        0.28843         268.163         242.299 
       0.294538         256.311          232.91 
       0.300721         245.884         224.375 
        0.30691         241.685         216.633 
       0.313033         232.554         209.505 
       0.319153         228.553         202.677 
       0.325316         219.727         195.922 
        0.33145         213.299         189.264 
       0.337538         206.794         182.746 
       0.343633         200.597         176.404 
       0.349808         194.497         170.274 
       0.355968         189.186         164.529 
       0.362074         185.547         159.234 
       0.368217          181.12         154.274 
       0.374374         177.513         149.616 
       0.380519         170.088         145.193 
       0.386598         166.234          140.97 
       0.392688          161.94         136.853 
        0.39888         158.878          132.76 
       0.405048         155.401         128.793 
       0.411186         152.269          124.98 
       0.417313         148.396          121.33 
       0.423458         144.635         117.848 
       0.429607         142.261         114.545 
       0.435692         139.776         111.437 
       0.441815         135.392         108.452 
       0.447964         131.689         105.575 
       0.454126         129.318         102.787 
       0.460267         128.405          100.09 
       0.466387         125.295         97.4825 
        0.47254         123.811         94.9397 
       0.478662         119.803         92.4932 
       0.484765         117.889         90.1438 
       0.490885         115.082         87.8817 
       0.497035         114.193         85.6985 
       0.503198         111.347         83.5959 
       0.509342         108.711         81.5774 
       0.515458         107.599         79.6378 
       0.521598         105.055         77.7522 
       0.527764         103.916         75.9145 
       0.533884         102.636         74.1446 
           0.54         100.231         72.4303 
       0.546137         97.6399         70.7642 
       0.552299         96.3429         69.1455 
       0.558452         94.5867         67.5826 
       0.564573         94.1745         66.0791 
       0.570708         91.4066          64.622 
       0.576825         90.4977         63.2158 
       0.582926           89.39         61.8563 
       0.589034         87.8984         60.5346 
       0.595184          86.766         59.2417 
       0.601379         84.5294          57.977 
       0.607522         83.5285         56.7593 
       0.613639         82.6255          55.582 
       0.619772         81.2638         54.4361 
       0.625918         80.0232         53.3213 
       0.632068         79.2246          52.238 
       0.638161         77.7106         51.1953 
         0.6443         77.0193         50.1744 
       0.650464         75.4016         49.1783 
       0.656582          75.038          48.217 
       0.662703         74.2212         47.2813 
       0.668861         72.5292         46.3653 
       0.675024         72.1762         45.4729 
       0.681124         71.2544         44.6131 
       0.687237         69.8566          43.774 
       0.693381         69.1613         42.9528 
       0.699536         68.6698         42.1517 
       0.705665         67.4755         41.3749 
       0.711789         66.5081         40.6189 
       0.717957         65.5574          39.877 
        0.72409         64.9962         39.1581 
       0.730186         64.6323         38.4616 
       0.736317         63.4997         37.7784 
       0.742472         62.8357         37.1094 
       0.748622         61.8967         36.4573 
        0.75476         60.8232         35.8225 
       0.760888         60.7053         35.2038 
       0.767043         59.6995         34.5976 
       0.773185         59.2578          34.007 
       0.779291         58.5554         33.4338 
       0.785407         57.6452         32.8732 
       0.791564         57.6181         32.3221 
       0.797719         56.7198          31.784 
       0.803834         56.2325         31.2619 
       0.809972         55.4997         30.7497 
       0.816124         54.9663         30.2481 
       0.822261         54.3671         29.7591 
       0.828378         54.0173         29.2826 
       0.834502         53.4442         28.8162 
       0.840667         52.9928         28.3571 
       0.846816          52.045         27.9094 
       0.852925         51.9758         27.4744 
       0.859047         51.4896         27.0478 
       0.865192         50.7537          26.629 
       0.871341         50.2536         26.2189 
       0.877463          49.875         25.8194 
       0.883569         49.6621         25.4293 
       0.889708         49.0718         25.0454 
       0.895864         48.5334         24.6685 
       0.902008         47.9815         24.3003 
       0.908149          47.681         23.9399 
       0.914301         47.3868         23.5864 
       0.920448         46.8677         23.2403 
       0.926574         46.2127         22.9026 
       0.932687         45.9421         22.5723 
       0.938823         45.4637         22.2474 
       0.944975         45.0955         21.9282 
       0.951105         44.6941         21.6166 
       0.957225         44.5227         21.3116 
       0.963368         43.9467         21.0115 
       0.969511         43.6258         20.7172 
       0.975621         43.2442         20.4302 
       0.981748         42.8037          20.148 
       0.987916         42.5649         19.8693 
        0.99406         42.1343         19.5971 
        1.00019         41.8406         19.3305 
        1.00632         41.5203         19.0692 
        1.01246         41.2445         18.8124 
        1.01859         40.8006         18.5607 
        1.02471         40.4497         18.3141 
        1.03085         40.3506         18.0711 
        1.03698         39.9778         17.8331 
        1.04314         39.6446         17.5984 
        1.04929         39.2566         17.3685 
        1.05541         39.1168         17.1437 
        1.06154         38.9053         16.9223 
        1.06769         38.4053         16.7046 
        1.07382         38.1406         16.4915 
        1.07993         37.8088         16.2826 
        1.08607         37.6101         16.0765 
        1.09222         37.3305         15.8737 
        1.09836         37.0436         15.6748 
        1.10449         36.8301         15.4795 
        1.11063          36.561         15.2874 
        1.11677         36.4908         15.0987 
         1.1229         36.1173         14.9135 
        1.12903         35.9087         14.7312 
        1.13518         35.6632         14.5519 
        1.14131          35.408         14.3758 
        1.14745         34.9914         14.2026 
        1.15359         34.7626         14.0323 
        1.15973         34.5091         13.8648 
        1.16584         34.3106         13.7007 
        1.17197         33.9878         13.5392 
        1.17811         33.8159         13.3797 
        1.18424         33.5484         13.2233 
        1.19038         33.4033          13.069 
        1.19652         33.1612         12.9172 
        1.20267         32.9752         12.7679 
        1.20881         32.7446         12.6209 
        1.21495         32.5083         12.4765 
        1.22108          32.475         12.3345 
         1.2272         32.2369          12.195 
        1.23334         32.0072         12.0573 
        1.23949         31.7834         11.9215 
        1.24562         31.4854         11.7881 
        1.25174         31.3671          11.657 
        1.25789         31.2228         11.5275 
        1.26402          31.052         11.4002 
        1.27014         30.8502         11.2752 
        1.27628         30.5515         11.1517 
        1.28244         30.5524         11.0298 
        1.28858         30.2204           10.91 
        1.29471         30.0167         10.7921 
        1.30084         29.8251         10.6762 
        1.30697          29.752         10.5618 
        1.31312         29.4769         10.4489 
        1.31925          29.334          10.338 
        1.32537         29.1525         10.2289 
        1.33151         28.9839          10.121 
        1.33765          28.898         10.0147 
        1.34378         28.7055         9.91015 
        1.34992          28.559         9.80704 
        1.35606         28.3358         9.70518 
         1.3622         28.1134         9.60496 
        1.36833         28.0386         9.50642 
        1.37445         27.9305         9.40931 
        1.38059         27.7436         9.31328 
        1.38675         27.5105         9.21837 
        1.39288         27.3795         9.12517 
        1.39901         27.2644         9.03331 
        1.40515         27.1098         8.94252 
         1.4113         26.9916         8.85302 
        1.41742         26.8583         8.76509 
        1.42355         26.6454         8.67821 
         1.4297         26.5072         8.59224 
        1.43585         26.3846         8.50749 
        1.44198         26.2816         8.42421 
        1.44809         26.1269         8.34221 
        1.45423           25.97           8.261 
        1.46036         25.8501         8.18104 
        1.46649         25.6847         8.10211 
        1.47263          25.597         8.02416 
        1.47877         25.4971         7.94729 
        1.48491         25.3315          7.8713 
        1.49104          25.177         7.79648 
        1.49718         25.0669         7.72259 
        1.50333         24.9664         7.64954 
        1.50947         24.8426         7.57759 
         1.5156         24.6914         7.50667 
        1.52172         24.5507         7.43668 
        1.52787          24.413         7.36744 
          1.534         24.3698         7.29917 
        1.54013         24.2449         7.23184 
        1.54627           24.08         7.16525 
        1.55241         23.9466         7.09949 
        1.55855         23.8593         7.03465 
        1.56467         23.7826         6.97081 
         1.5708         23.6745         6.90759 
        1.57695         23.5084         6.84506 
        1.58308         23.3486         6.78345 
        1.58922         23.2708         6.72257 
        1.59535          23.128         6.66246 
         1.6015         23.0007         6.60301 
        1.60764         22.9392         6.54431 
        1.61376         22.8727          6.4865 
        1.61989         22.7036         6.42934 
        1.62604         22.6349         6.37275 
        1.63218         22.5145         6.31688 
        1.63831         22.3876         6.26181 
        1.64444         22.2961         6.20739 
        1.65059         22.1773         6.15348 
        1.65673         22.1124         6.10028 
        1.66285         21.9606         6.04785 
        1.66898         21.9133         5.99604 
        1.67512         21.8335         5.94473 
        1.68127         21.6609         5.89398 
         1.6874         21.6098         5.84394 
        1.69353         21.4725         5.79451 
        1.69967         21.3727         5.74555 
        1.70581         21.3307         5.69717 
        1.71193         21.1703         5.64954 
        1.71806         21.1307         5.60235 
        1.72421         21.0169         5.55561 
        1.73035         20.8955         5.50947 
        1.73649         20.8351         5.46386 
        1.74262         20.6859          5.4188 
        1.74876          20.643         5.37423 
        1.75489         20.5572         5.33025 
        1.76101         20.4602         5.28678 
        1.76715         20.3661         5.24374 
        1.77329         20.2795         5.20113 
        1.77943         20.1543         5.15898 
        1.78557         20.1243         5.11736 
        1.79171         19.9966         5.07619 
        1.79785         19.9615         5.03547 
        1.80399         19.8259         4.99521 
        1.81012         19.7777         4.95545 
        1.81625         19.6298         4.91613 
        1.82239         19.5651         4.87719 
        1.82853          19.506          4.8387 
        1.83466         19.3803         4.80065 
        1.84078          19.357         4.76306 
        1.84692         19.2964         4.72582 
        1.85306         19.1983         4.68893 
         1.8592         19.1097         4.65249 
        1.86533          18.985         4.61646 
        1.87147         18.9251         4.58078 
        1.87761         18.8267         4.54545 
        1.88375          18.783         4.51055 
        1.88988         18.6527         4.47605 
        1.89601         18.6043         4.44189 
        1.90215         18.5003         4.40807 
        1.90829         18.4268         4.37462 
        1.91442          18.336         4.34151 
        1.92056         18.3427         4.30877 
         1.9267         18.2433         4.27635 
        1.93284         18.2008         4.24424 
        1.93897         18.0754         4.21252 
        1.94509         18.0185         4.18119 
        1.95123         17.9525         4.15011 
        1.95737         17.9033         4.11932 
        1.96349         17.7658         4.08893 
        1.96964          17.718         4.05875 
        1.97578          17.678         4.02887 
        1.98192           17.57         3.99936 
        1.98805         17.5028         3.97013 
        1.99419         17.4413          3.9412 
        2.00033         17.3946         3.91255 
        2.00647         17.3096         3.88418 
         2.0126         17.2513         3.85615 
        2.01874         17.1325         3.82836 
        2.02488         17.1061         3.80081 
        2.03101         17.0175         3.77359 
        2.03714         16.9671         3.74667 
        2.04328         16.8618         3.71997 
        2.04941         16.7875         3.69356 
        2.05554         16.7844         3.66743 
        2.06167         16.7053         3.64151 
        2.06781         16.6165         3.61585 
        2.07396          16.612         3.59039 
        2.08009         16.4743         3.56523 
        2.08622         16.4472         3.54033 
        2.09237         16.4036         3.51563 
        2.09851         16.2946         3.49116 
        2.10464         16.2728         3.46697 
        2.11077         16.1782         3.44303 
        2.11691         16.1535         3.41927 
        2.12305         16.0674         3.39573 
        2.12918         15.9561         3.37247 
        2.13531          15.958         3.34943 
        2.14145         15.8794         3.32656 
         2.1476         15.7965         3.30387 
        2.15372         15.7577         3.28151 
        2.15985         15.7092         3.25933 
        2.16599         15.6422         3.23729 
        2.17213         15.6089         3.21549 
        2.17827         15.5263         3.19389 
         2.1844         15.4781         3.17251 
        2.19054         15.4344         3.15132 
        2.19666         15.3692         3.13035 
         2.2028         15.2935         3.10956 
        2.20893         15.2525         3.08894 
        2.21508         15.1867         3.06849 
        2.22122         15.1268         3.04822 
        2.22736         15.0944         3.02818 
        2.23349         15.0275         3.00832 
        2.23962         14.9853         2.98863 
        2.24577         14.9253          2.9691 
         2.2519         14.8712         2.94977 
        2.25802         14.7625         2.93065 
        2.26417         14.7847         2.91165 
        2.27031         14.7003         2.89279 
        2.27644         14.6531         2.87416 
        2.28257         14.5626         2.85569 
        2.28872         14.5705         2.83736 
        2.29486         14.5054         2.81919 
        2.30099         14.4531         2.80121 
        2.30712         14.3593         2.78339 
        2.31326         14.2929         2.76569 
         2.3194         14.2819         2.74815 
        2.32553         14.1931          2.7308 
        2.33166         14.1615         2.71361 
         2.3378         14.1143         2.69654 
        2.34394          14.082         2.67961 
        2.35007         14.0109         2.66285 
        2.35619         13.9671         2.64626 
        2.36233         13.8828         2.62977 
        2.36848         13.8675         2.61339 
        2.37462         13.8177         2.59718 
        2.38075         13.7832         2.58112 
        2.38689         13.7357         2.56519 
        2.39303         13.6423          2.5494 
        2.39916         13.6292         2.53376 
        2.40529         13.5891         2.51825 
        2.41143         13.5268         2.50285 
        2.41757         13.4721         2.48759 
         2.4237         13.4351         2.47247 
        2.42983         13.3714         2.45749 
        2.43598         13.3474         2.44259 
        2.44211         13.3058         2.42784 
        2.44823         13.2466         2.41324 
        2.45437         13.2041         2.39873 
        2.46052          13.173         2.38432 
        2.46665         13.1216         2.37006 
        2.47279          13.079         2.35592 
        2.47892         13.0113         2.34188 
        2.48507         12.9845         2.32795 
         2.4912         12.9262         2.31416 
