# k  (h/Mpc)    P(k)  (Mpc/h)^3    P_linear(k)  (Mpc/h)^3
     0.00783031         481.122         484.781 
       0.013688         632.236           638.1 
       0.019231         680.593         683.202 
      0.0249154         668.124         668.688 
      0.0312784         616.017         616.898 
      0.0375637         555.535         556.761 
      0.0433917         507.357         506.821 
      0.0492413         466.122         466.694 
      0.0555754         433.787           433.2 
      0.0619321         403.006         405.458 
       0.067871         379.836         380.569 
      0.0738098         353.758         354.174 
      0.0800417         324.752         324.542 
      0.0862327         294.477         294.761 
      0.0921407          267.88         268.247 
      0.0982031         245.151         244.825 
       0.104506          224.64         225.398 
       0.110769         210.051         210.674 
       0.116806         199.911          199.56 
       0.122832         189.395         189.949 
       0.129052         180.152         180.187 
       0.135211         170.286         169.875 
       0.141259         158.987         159.065 
       0.147318         147.437          148.06 
       0.153489         137.381         137.429 
       0.159709         128.331         127.979 
       0.165845         119.653         120.231 
       0.171974         114.527         113.995 
       0.178125         109.369         108.881 
       0.184229         104.398         104.436 
        0.19034         100.696         100.141 
       0.196428         96.1684         95.7117 
       0.202534         90.8275         91.0354 
       0.208729         86.6058         86.1727 
       0.214876          82.365         81.4653 
       0.220989         77.2202         77.1368 
       0.227147         74.2814         73.2886 
        0.23329         71.0846         69.9959 
       0.239377         68.3794         67.1965 
       0.245482         65.7033         64.7068 
       0.251667         63.0486         62.3439 
       0.257832         61.1938         60.0182 
       0.263955         58.4975         57.6741 
       0.270079         56.1613         55.2982 
        0.27624         53.5509         52.9356 
       0.282372         51.4268         50.6848 
        0.28843         49.8774         48.6231 
       0.294538         47.8758         46.7391 
       0.300721          45.903         45.0262 
        0.30691         44.7021         43.4726 
       0.313033         43.1385         42.0423 
       0.319153         42.1761          40.672 
       0.325316         40.2795         39.3166 
        0.33145         38.9535         37.9806 
       0.337538         37.7588         36.6724 
       0.343633         36.6001         35.3997 
       0.349808         35.3119         34.1697 
       0.355968         34.1179         33.0166 
       0.362074         33.2569         31.9542 
       0.368217         32.2271         30.9589 
       0.374374         31.5362          30.024 
       0.380519         30.3404         29.1365 
       0.386598         29.4282          28.289 
       0.392688         28.5713         27.4629 
        0.39888         27.8865         26.6415 
       0.405048         27.1343         25.8454 
       0.411186         26.3414         25.0802 
       0.417313         25.6192         24.3479 
       0.423458         24.8102         23.6491 
       0.429607          24.325         22.9861 
       0.435692         23.7874         22.3625 
       0.441815         22.9982         21.7636 
       0.447964         22.3216         21.1862 
       0.454126          21.908         20.6267 
       0.460267         21.5555         20.0855 
       0.466387         20.9201         19.5622 
        0.47254         20.5008         19.0519 
       0.478662         19.9355          18.561 
       0.484765         19.4786         18.0895 
       0.490885         18.9451         17.6356 
       0.497035         18.4771         17.1975 
       0.503198         18.1076         16.7755 
       0.509342         17.6253         16.3705 
       0.515458         17.3403         15.9812 
       0.521598         16.9485         15.6029 
       0.527764         16.6775         15.2341 
       0.533884         16.1765         14.8789 
           0.54         15.8728         14.5349 
       0.546137         15.4333         14.2005 
       0.552299         15.1582         13.8757 
       0.558452         14.8459         13.5621 
       0.564573         14.5978         13.2604 
       0.570708         14.2754          12.968 
       0.576825         14.0004         12.6858 
       0.582926         13.7037         12.4129 
       0.589034         13.4692         12.1477 
       0.595184         13.2639         11.8883 
       0.601379         12.9206         11.6345 
       0.607522          12.686         11.3901 
       0.613639         12.3969         11.1539 
       0.619772         12.2249         10.9239 
       0.625918         11.9721         10.7002 
       0.632068         11.8058         10.4828 
       0.638161         11.5693         10.2736 
         0.6443         11.3499         10.0687 
       0.650464         11.0968         9.86882 
       0.656582         10.9954          9.6759 
       0.662703         10.8165         9.48814 
       0.668861          10.533         9.30432 
       0.675024         10.3759         9.12524 
       0.681124         10.3296         8.95269 
       0.687237         10.0921          8.7843 
       0.693381         9.83926         8.61951 
       0.699536         9.77108         8.45875 
       0.705665         9.59309         8.30287 
       0.711789         9.39062         8.15116 
       0.717957         9.21794         8.00228 
        0.72409         9.10912         7.85802 
       0.730186         9.01817         7.71824 
       0.736317         8.83031         7.58114 
       0.742472         8.71536         7.44689 
       0.748622         8.58489         7.31604 
        0.75476         8.38455         7.18864 
       0.760888         8.31152          7.0645 
       0.767043         8.11709         6.94283 
       0.773185         8.02326         6.82433 
       0.779291          7.9748          6.7093 
       0.785407         7.81455         6.59679 
       0.791564         7.71428          6.4862 
       0.797719         7.57726         6.37823 
       0.803834          7.4865         6.27345 
       0.809972          7.3615         6.17067 
       0.816124         7.26532         6.07001 
       0.822261         7.17089         5.97189 
       0.828378         7.05473         5.87626 
       0.834502         6.97166         5.78267 
       0.840667         6.89809         5.69054 
       0.846816         6.77405          5.6007 
       0.852925         6.68164         5.51339 
       0.859047         6.59745         5.42779 
       0.865192         6.50697         5.34374 
       0.871341         6.41579         5.26145 
       0.877463         6.32851         5.18128 
       0.883569           6.254           5.103 
       0.889708         6.17586         5.02596 
       0.895864         6.09583         4.95034 
       0.902008         6.00021         4.87644 
       0.908149         5.93136         4.80412 
       0.914301         5.87272         4.73317 
       0.920448         5.79393         4.66373 
       0.926574         5.75363         4.59595 
       0.932687         5.65828         4.52967 
       0.938823         5.56756         4.46448 
       0.944975         5.52106         4.40043 
       0.951105           5.426         4.33789 
       0.957225         5.38104         4.27668 
       0.963368         5.33132         4.21645 
       0.969511         5.26908          4.1574 
       0.975621          5.1945         4.09981 
       0.981748         5.10273         4.04317 
       0.987916         5.05807         3.98726 
        0.99406         5.02701         3.93263 
        1.00019         4.96443         3.87913 
        1.00632         4.91735          3.8267 
        1.01246         4.84527         3.77516 
        1.01859         4.79199         3.72466 
        1.02471         4.71864         3.67516 
        1.03085         4.68691          3.6264 
        1.03698         4.63719         3.57864 
        1.04314         4.59222         3.53154 
        1.04929         4.53411         3.48541 
        1.05541         4.47541         3.44029 
        1.06154         4.44258         3.39588 
        1.06769         4.41293         3.35218 
        1.07382         4.34234         3.30941 
        1.07993         4.28988         3.26749 
        1.08607         4.26101         3.22613 
        1.09222          4.2001         3.18545 
        1.09836         4.18694         3.14553 
        1.10449         4.10327         3.10634 
        1.11063         4.07631         3.06779 
        1.11677         4.04132         3.02991 
         1.1229         3.98861         2.99275 
        1.12903         3.96565         2.95618 
        1.13518         3.90698          2.9202 
        1.14131         3.87382         2.88484 
        1.14745         3.83091          2.8501 
        1.15359          3.7978         2.81592 
        1.15973         3.75874          2.7823 
        1.16584         3.72086         2.74938 
        1.17197         3.68067         2.71696 
        1.17811         3.64549         2.68496 
        1.18424         3.61026         2.65358 
        1.19038         3.57409         2.62261 
        1.19652         3.55164         2.59215 
        1.20267         3.52156         2.56218 
        1.20881         3.47921         2.53269 
        1.21495         3.45076         2.50372 
        1.22108         3.42216         2.47521 
         1.2272         3.37359         2.44721 
        1.23334         3.36171         2.41959 
        1.23949          3.3276         2.39233 
        1.24562           3.297         2.36557 
        1.25174         3.26944         2.33926 
        1.25789          3.2301         2.31328 
        1.26402         3.19783         2.28773 
        1.27014         3.17029         2.26265 
        1.27628         3.14491         2.23786 
        1.28244         3.12331          2.2134 
        1.28858          3.0925         2.18935 
        1.29471         3.05549          2.1657 
        1.30084         3.03521         2.14244 
        1.30697         3.01545         2.11948 
        1.31312         2.98871         2.09683 
        1.31925         2.96274         2.07458 
        1.32537         2.94077         2.05268 
        1.33151         2.90948         2.03102 
        1.33765         2.88841         2.00969 
        1.34378         2.86273         1.98871 
        1.34992         2.84439         1.96802 
        1.35606          2.8179         1.94758 
         1.3622         2.79766         1.92747 
        1.36833         2.76807         1.90769 
        1.37445         2.74548         1.88821 
        1.38059         2.72449         1.86893 
        1.38675         2.70387         1.84989 
        1.39288         2.68553         1.83119 
        1.39901         2.65918         1.81275 
        1.40515         2.63644         1.79453 
         1.4113         2.62444         1.77657 
        1.41742         2.59438         1.75893 
        1.42355         2.57113         1.74149 
         1.4297         2.56183         1.72424 
        1.43585         2.53607         1.70723 
        1.44198         2.51824         1.69052 
        1.44809          2.5006         1.67407 
        1.45423         2.48369         1.65777 
        1.46036         2.46409         1.64172 
        1.46649         2.43339         1.62588 
        1.47263         2.42625         1.61024 
        1.47877          2.4134         1.59482 
        1.48491         2.38301         1.57957 
        1.49104         2.37225         1.56455 
        1.49718          2.3508         1.54972 
        1.50333         2.33521         1.53506 
        1.50947         2.31998         1.52063 
         1.5156         2.30222          1.5064 
        1.52172         2.28733         1.49235 
        1.52787         2.26874         1.47845 
          1.534         2.25589         1.46476 
        1.54013         2.23594         1.45124 
        1.54627         2.21976         1.43788 
        1.55241         2.20059         1.42468 
        1.55855         2.18897         1.41167 
        1.56467           2.174         1.39886 
         1.5708         2.15761         1.38618 
        1.57695         2.13855         1.37363 
        1.58308         2.12153         1.36126 
        1.58922         2.11713         1.34905 
        1.59535         2.09328         1.33698 
         1.6015         2.07766         1.32505 
        1.60764         2.06744         1.31328 
        1.61376         2.05085         1.30167 
        1.61989          2.0398          1.2902 
        1.62604         2.02058         1.27885 
        1.63218         2.01551         1.26764 
        1.63831         1.99852         1.25658 
        1.64444         1.98401         1.24566 
        1.65059         1.97466         1.23485 
        1.65673         1.95689         1.22417 
        1.66285         1.94481         1.21365 
        1.66898         1.93517         1.20325 
        1.67512         1.91552         1.19295 
        1.68127         1.90211         1.18277 
         1.6874         1.89867         1.17273 
        1.69353         1.87988         1.16281 
        1.69967          1.8696         1.15298 
        1.70581           1.862         1.14328 
        1.71193         1.84258         1.13372 
        1.71806         1.83242         1.12425 
        1.72421         1.82337         1.11487 
        1.73035         1.80488         1.10561 
        1.73649         1.80496         1.09646 
        1.74262         1.78799         1.08741 
        1.74876         1.77668         1.07847 
        1.75489          1.7673         1.06964 
        1.76101         1.75138         1.06092 
        1.76715         1.74336         1.05228 
        1.77329          1.7332         1.04373 
        1.77943         1.72293         1.03527 
        1.78557         1.71543         1.02692 
        1.79171         1.70475         1.01866 
        1.79785         1.69226         1.01049 
        1.80399         1.68066         1.00241 
        1.81012          1.6705        0.994431 
        1.81625         1.65902        0.986542 
        1.82239         1.65012        0.978727 
        1.82853         1.64105        0.971002 
        1.83466          1.6291        0.963368 
        1.84078         1.61887        0.955824 
        1.84692         1.61157         0.94835 
        1.85306         1.60535        0.940947 
         1.8592           1.592        0.933635 
        1.86533         1.58492        0.926405 
        1.87147         1.57069        0.919244 
        1.87761         1.56529        0.912156 
        1.88375         1.55631        0.905151 
        1.88988         1.54631        0.898228 
        1.89601         1.53737        0.891374 
        1.90215         1.52955        0.884586 
        1.90829         1.52123        0.877873 
        1.91442          1.5114        0.871229 
        1.92056         1.50641         0.86466 
         1.9267         1.49681        0.858153 
        1.93284         1.48622        0.851709 
        1.93897         1.47752        0.845344 
        1.94509         1.47271        0.839058 
        1.95123          1.4603        0.832821 
        1.95737         1.45416        0.826642 
        1.96349           1.446        0.820543 
        1.96964         1.43976        0.814488 
        1.97578         1.42752        0.808492 
        1.98192         1.42041        0.802568 
        1.98805         1.41449        0.796704 
        1.99419         1.40716        0.790898 
        2.00033         1.39998        0.785148 
        2.00647         1.39224        0.779456 
         2.0126         1.38688        0.773831 
        2.01874         1.37796        0.768253 
        2.02488         1.36829        0.762726 
        2.03101         1.36287        0.757263 
        2.03714         1.35686         0.75186 
        2.04328         1.34691        0.746503 
        2.04941         1.33971        0.741203 
        2.05554         1.33418        0.735959 
        2.06167         1.32694        0.730758 
        2.06781         1.31743        0.725608 
        2.07396         1.31437          0.7205 
        2.08009         1.30607         0.71545 
        2.08622          1.2996        0.710454 
        2.09237         1.29324        0.705497 
        2.09851         1.28521        0.700587 
        2.10464         1.28219        0.695731 
        2.11077         1.27216        0.690928 
        2.11691         1.26675         0.68616 
        2.12305         1.26248        0.681436 
        2.12918         1.25308        0.676769 
        2.13531         1.24749        0.672146 
        2.14145         1.24099        0.667555 
         2.1476         1.23721        0.663002 
        2.15372         1.22804        0.658514 
        2.15985         1.22274        0.654064 
        2.16599         1.21862        0.649642 
        2.17213          1.2117        0.645266 
        2.17827         1.20345        0.640932 
         2.1844         1.20001        0.636641 
        2.19054         1.19374        0.632389 
        2.19666          1.1888        0.628181 
         2.2028         1.18126        0.624009 
        2.20893         1.17583        0.619872 
        2.21508         1.17067        0.615768 
        2.22122         1.16775          0.6117 
        2.22736         1.15652        0.607678 
        2.23349          1.1529        0.603693 
        2.23962         1.14856        0.599742 
        2.24577         1.14251        0.595823 
         2.2519         1.13664        0.591944 
        2.25802         1.13422        0.588107 
        2.26417          1.1256        0.584293 
        2.27031         1.12171        0.580509 
        2.27644         1.11803         0.57677 
        2.28257         1.10951        0.573065 
        2.28872         1.10779        0.569385 
        2.29486         1.10046        0.565739 
        2.30099         1.09627        0.562132 
        2.30712         1.09185        0.558555 
        2.31326         1.08672        0.555003 
         2.3194         1.08248        0.551484 
        2.32553         1.07651        0.548002 
        2.33166         1.07261        0.544552 
         2.3378         1.06698        0.541126 
        2.34394          1.0622        0.537729 
        2.35007         1.05514        0.534367 
        2.35619         1.05087        0.531037 
        2.36233         1.04601        0.527728 
        2.36848         1.04382         0.52444 
        2.37462         1.04012        0.521188 
        2.38075         1.03267        0.517966 
        2.38689          1.0298        0.514769 
        2.39303         1.02462          0.5116 
        2.39916         1.01987         0.50846 
        2.40529         1.01818        0.505348 
        2.41143         1.00984        0.502259 
        2.41757         1.00787        0.499195 
         2.4237         1.00255        0.496162 
        2.42983        0.997714        0.493155 
        2.43598        0.994802        0.490165 
        2.44211        0.988638        0.487205 
        2.44823        0.986198        0.484276 
        2.45437        0.982089        0.481363 
        2.46052        0.978089        0.478472 
        2.46665        0.973711         0.47561 
        2.47279        0.968906        0.472772 
        2.47892        0.965351        0.469956 
        2.48507        0.962519         0.46716 
         2.4912        0.957064        0.464392 
