#  k  (h/Mpc)          P(k)  (Mpc/h)^3     P_linear(k) (Mpc/h)^3
     0.00783031         2270.66         2285.43 
       0.013688         2836.71          2874.4 
       0.019231         2920.85         2938.83 
      0.0249154         2729.45         2726.69 
      0.0312784         2352.31         2356.27 
      0.0375637         1987.28         1995.49 
      0.0433917         1731.59         1728.42 
      0.0492413         1534.78         1537.83 
      0.0555754         1406.28         1402.08 
      0.0619321         1293.17         1308.08 
       0.067871         1225.44         1230.02 
      0.0738098         1140.82         1142.98 
      0.0800417         1037.17         1035.96 
      0.0862327         919.055         920.266 
      0.0921407         813.098         813.296 
      0.0982031         723.661         718.592 
       0.104506          642.74         643.229 
       0.110769         592.774         591.891 
       0.116806          565.65         559.732 
       0.122832         538.126         537.163 
       0.129052         518.267         515.829 
       0.135211         495.784         490.634 
       0.141259         461.896         459.646 
       0.147318         423.478         423.743 
       0.153489         388.811          385.96 
       0.159709         357.562         351.018 
       0.165845          325.08         322.725 
       0.171974         310.342         301.686 
       0.178125         295.376         287.018 
       0.184229         281.608          276.76 
        0.19034          275.27          268.18 
       0.196428          265.74         259.011 
       0.202534          250.43         247.805 
       0.208729         240.653         234.194 
       0.214876         227.918          219.34 
       0.220989          210.14         204.645 
       0.227147         201.064         191.282 
        0.23329         190.907         180.253 
       0.239377         183.619         171.785 
       0.245482          175.57         165.347 
       0.251667          168.85         160.133 
       0.257832         166.365         155.343 
       0.263955         158.562         150.252 
       0.270079         152.599         144.459 
        0.27624         145.375         137.952 
       0.282372         139.489         131.141 
        0.28843         135.864         124.567 
       0.294538         129.106         118.517 
       0.300721         122.974         113.265 
        0.30691         120.238          108.91 
       0.313033         115.588         105.345 
       0.319153         113.687         102.228 
       0.325316         109.119         99.2473 
        0.33145         105.719         96.1882 
       0.337538          102.49         92.9606 
       0.343633         99.3323         89.5407 
       0.349808         95.7429         86.0188 
       0.355968         92.4868         82.5995 
       0.362074         90.3817         79.4541 
       0.368217         87.6039         76.6222 
       0.374374         85.5503         74.1218 
       0.380519         82.0014         71.9174 
       0.386598         79.8578          69.918 
       0.392688         77.5685         67.9998 
        0.39888         76.1536         66.0565 
       0.405048         74.3034         64.0777 
       0.411186         72.3491         62.0801 
       0.417313         70.2401         60.0904 
       0.423458         68.1847         58.1486 
       0.429607         66.8904         56.3154 
       0.435692         65.6746         54.6353 
       0.441815         63.2214         53.0781 
       0.447964         61.3162         51.6392 
       0.454126         60.2681         50.2879 
       0.460267         59.6733         48.9911 
       0.466387          58.019         47.7226 
        0.47254         57.1757         46.4601 
       0.478662         55.2798         45.2097 
       0.484765         54.1635         43.9791 
       0.490885          52.614         42.7809 
       0.497035         51.8468         41.6292 
       0.503198         50.6491         40.5344 
       0.509342         49.2801         39.5025 
       0.515458         48.6501         38.5329 
       0.521598         47.4847         37.6076 
       0.527764         46.8496         36.7121 
       0.533884         45.8934          35.844 
           0.54         44.9162         34.9933 
       0.546137         43.5874         34.1572 
       0.552299         42.8535         33.3369 
       0.558452         41.9607         32.5394 
       0.564573         41.5951         31.7712 
       0.570708         40.4384         31.0302 
       0.576825         39.9386         30.3237 
       0.582926         39.2715         29.6495 
       0.589034          38.489         28.9996 
       0.595184         37.9902          28.366 
       0.601379         36.9651         27.7446 
       0.607522         36.3919         27.1435 
       0.613639         35.8481         26.5602 
       0.619772         35.2157         25.9908 
       0.625918         34.5436         25.4358 
       0.632068         34.2414         24.8963 
       0.638161         33.5281         24.3774 
         0.6443          33.038         23.8707 
       0.650464         32.2278         23.3784 
       0.656582         32.0296         22.9055 
       0.662703         31.6319         22.4472 
       0.668861         30.8104         21.9997 
       0.675024         30.4592          21.564 
       0.681124         30.2527         21.1436 
       0.687237         29.6341         20.7323 
       0.693381         29.0561         20.3289 
       0.699536         28.9017          19.935 
       0.705665         28.3606         19.5531 
       0.711789         27.8725         19.1819 
       0.717957         27.3284         18.8187 
        0.72409         27.0795         18.4677 
       0.730186         26.9471         18.1285 
       0.736317         26.3904         17.7964 
       0.742472         26.0733         17.4716 
       0.748622         25.6572         17.1552 
        0.75476         25.0411          16.847 
       0.760888         24.9739         16.5465 
       0.767043         24.5417          16.252 
       0.773185         24.2831         15.9651 
       0.779291         24.0208         15.6867 
       0.785407         23.6289         15.4146 
       0.791564         23.4879         15.1473 
       0.797719         22.9769         14.8867 
       0.803834         22.8761         14.6341 
       0.809972         22.4471         14.3866 
       0.816124         22.2068         14.1444 
       0.822261         21.9642         13.9086 
       0.828378          21.737         13.6789 
       0.834502          21.514         13.4543 
       0.840667         21.2833         13.2333 
       0.846816         20.8244         13.0179 
       0.852925         20.7643         12.8087 
       0.859047         20.5255         12.6036 
       0.865192         20.2324         12.4024 
       0.871341         19.9796         12.2055 
       0.877463         19.7636         12.0137 
       0.883569         19.6504         11.8266 
       0.889708          19.336         11.6426 
       0.895864         19.0977          11.462 
       0.902008          18.881         11.2857 
       0.908149         18.6481         11.1132 
       0.914301         18.5519         10.9441 
       0.920448         18.2763         10.7786 
       0.926574         18.1399         10.6173 
       0.932687         17.8987         10.4595 
       0.938823         17.6745         10.3045 
       0.944975         17.5446         10.1523 
       0.951105         17.3562         10.0037 
       0.957225         17.2463         9.85832 
       0.963368         16.9783         9.71538 
       0.969511         16.8184          9.5753 
       0.975621         16.6676         9.43875 
       0.981748          16.457         9.30453 
       0.987916         16.3476         9.17209 
        0.99406         16.1577         9.04275 
        1.00019         16.0407         8.91617 
        1.00632         15.9062         8.79215 
        1.01246         15.7454         8.67032 
        1.01859         15.5612           8.551 
        1.02471         15.3993          8.4341 
        1.03085         15.3369         8.31899 
        1.03698         15.1955         8.20628 
        1.04314         15.0028          8.0952 
        1.04929         14.8225         7.98645 
        1.05541         14.7567         7.88016 
        1.06154         14.6298         7.77554 
        1.06769         14.5034         7.67268 
        1.07382         14.2981         7.57204 
        1.07993         14.1864         7.47344 
        1.08607         14.1167          7.3762 
        1.09222         13.9431         7.28061 
        1.09836          13.871         7.18683 
        1.10449         13.7027         7.09482 
        1.11063         13.6446         7.00434 
        1.11677         13.5546         6.91548 
         1.1229         13.4185         6.82832 
        1.12903         13.3116          6.7426 
        1.13518         13.1481         6.65829 
        1.14131         13.0764         6.57547 
        1.14745         12.8956         6.49412 
        1.15359         12.7956         6.41414 
        1.15973         12.6977         6.33548 
        1.16584         12.5972          6.2585 
        1.17197         12.4834          6.1827 
        1.17811         12.3931         6.10792 
        1.18424          12.311         6.03461 
        1.19038         12.2413         5.96229 
        1.19652         12.1222          5.8912 
        1.20267         12.0444         5.82126 
        1.20881         11.9026         5.75249 
        1.21495         11.8246         5.68494 
        1.22108         11.7693         5.61848 
         1.2272         11.6666         5.55326 
        1.23334         11.6073         5.48892 
        1.23949          11.493         5.42546 
        1.24562         11.3962         5.36318 
        1.25174         11.3395         5.30197 
        1.25789         11.2089         5.24154 
        1.26402         11.1721         5.18216 
        1.27014         11.1135         5.12386 
        1.27628         10.9669         5.06627 
        1.28244          10.958         5.00947 
        1.28858         10.8507         4.95361 
        1.29471         10.7134         4.89874 
        1.30084         10.6496         4.84475 
        1.30697         10.6381          4.7915 
        1.31312         10.5228         4.73898 
        1.31925         10.4654         4.68741 
        1.32537         10.3895         4.63667 
        1.33151         10.3158          4.5865 
        1.33765         10.2391         4.53711 
        1.34378         10.2197         4.48854 
        1.34992         10.1129         4.44066 
        1.35606         10.0252         4.39337 
         1.3622          9.9523         4.34686 
        1.36833         9.91691         4.30114 
        1.37445         9.85158          4.2561 
        1.38059         9.78205         4.21157 
        1.38675         9.71982         4.16758 
        1.39288         9.62832         4.12439 
        1.39901         9.57321         4.08184 
        1.40515         9.51107         4.03979 
         1.4113         9.44183         3.99836 
        1.41742         9.40784         3.95766 
        1.42355         9.31579         3.91746 
         1.4297         9.27493          3.8777 
        1.43585         9.22644         3.83851 
        1.44198         9.17212         3.80001 
        1.44809         9.10803         3.76212 
        1.45423         9.03699          3.7246 
        1.46036         8.99225         3.68766 
        1.46649          8.9326         3.65121 
        1.47263         8.89039         3.61523 
        1.47877         8.82827         3.57975 
        1.48491         8.78875         3.54469 
        1.49104         8.71264         3.51017 
        1.49718         8.68447          3.4761 
        1.50333         8.62455         3.44242 
        1.50947         8.56121         3.40925 
         1.5156         8.53632         3.37658 
        1.52172         8.47364         3.34434 
        1.52787         8.43514         3.31245 
          1.534         8.37883         3.28102 
        1.54013         8.34307         3.25003 
        1.54627         8.28273         3.21939 
        1.55241         8.21408         3.18914 
        1.55855         8.20285         3.15932 
        1.56467         8.15105         3.12997 
         1.5708         8.10407          3.1009 
        1.57695         8.04314         3.07217 
        1.58308         7.98975         3.04387 
        1.58922         7.96574          3.0159 
        1.59535         7.91936          2.9883 
         1.6015         7.84738           2.961 
        1.60764         7.81914         2.93407 
        1.61376         7.79374         2.90754 
        1.61989         7.72278         2.88132 
        1.62604         7.70457         2.85536 
        1.63218         7.66722         2.82975 
        1.63831          7.6164          2.8045 
        1.64444         7.55488         2.77956 
        1.65059         7.52123         2.75486 
        1.65673         7.50127         2.73049 
        1.66285         7.45608         2.70648 
        1.66898         7.42138         2.68276 
        1.67512         7.37612         2.65927 
        1.68127         7.31868         2.63604 
         1.6874         7.30031         2.61315 
        1.69353         7.24484         2.59054 
        1.69967         7.22443         2.56814 
        1.70581         7.17232         2.54602 
        1.71193         7.15356         2.52424 
        1.71806         7.10934         2.50268 
        1.72421         7.06518         2.48132 
        1.73035         7.04031         2.46024 
        1.73649         7.00544          2.4394 
        1.74262         6.94537         2.41883 
        1.74876         6.94822         2.39848 
        1.75489         6.90204         2.37841 
        1.76101         6.84707         2.35857 
        1.76715          6.8395         2.33893 
        1.77329         6.80247          2.3195 
        1.77943          6.7461         2.30027 
        1.78557         6.74851          2.2813 
        1.79171         6.70678         2.26253 
        1.79785         6.67882         2.24398 
        1.80399         6.61774         2.22563 
        1.81012         6.60498         2.20752 
        1.81625         6.56003         2.18961 
        1.82239         6.53841         2.17188 
        1.82853         6.49499         2.15435 
        1.83466         6.45122         2.13704 
        1.84078         6.43769         2.11993 
        1.84692          6.4084         2.10298 
        1.85306          6.3782          2.0862 
         1.8592         6.36017         2.06963 
        1.86533         6.33105         2.05325 
        1.87147         6.29552         2.03703 
        1.87761         6.27547         2.02097 
        1.88375         6.23457         2.00511 
        1.88988         6.20532         1.98944 
        1.89601         6.18478         1.97392 
        1.90215         6.14151         1.95856 
        1.90829         6.12758         1.94337 
        1.91442         6.08887         1.92834 
        1.92056         6.08568         1.91349 
         1.9267         6.03622         1.89877 
        1.93284         6.03076          1.8842 
        1.93897         5.98621         1.86981 
        1.94509          5.9441         1.85561 
        1.95123         5.93949         1.84151 
        1.95737         5.91657         1.82755 
        1.96349         5.87049         1.81377 
        1.96964         5.84691          1.8001 
        1.97578           5.829         1.78656 
        1.98192          5.7991         1.77319 
        1.98805         5.78005         1.75995 
        1.99419         5.76022         1.74684 
        2.00033          5.7213         1.73387 
        2.00647         5.70989         1.72103 
         2.0126          5.6847         1.70834 
        2.01874         5.65583         1.69576 
        2.02488          5.6373          1.6833 
        2.03101         5.59976         1.67099 
        2.03714         5.57397         1.65881 
        2.04328         5.55877         1.64673 
        2.04941         5.52838         1.63479 
        2.05554         5.51734         1.62298 
        2.06167          5.4954         1.61127 
        2.06781         5.46396         1.59967 
        2.07396         5.43922         1.58817 
        2.08009         5.42017          1.5768 
        2.08622         5.40619         1.56555 
        2.09237         5.38931          1.5544 
        2.09851         5.34874         1.54335 
        2.10464         5.33542         1.53243 
        2.11077         5.31519         1.52162 
        2.11691          5.3009          1.5109 
        2.12305         5.26844         1.50028 
        2.12918         5.25481         1.48979 
        2.13531         5.22821         1.47939 
        2.14145         5.21041         1.46908 
         2.1476         5.18932         1.45885 
        2.15372         5.16308         1.44876 
        2.15985         5.15267         1.43877 
        2.16599         5.13271         1.42884 
        2.17213         5.12333         1.41901 
        2.17827         5.08296         1.40928 
         2.1844         5.06683         1.39965 
        2.19054         5.05531          1.3901 
        2.19666         5.03185         1.38066 
         2.2028         4.99998          1.3713 
        2.20893         4.99943         1.36202 
        2.21508         4.97555         1.35282 
        2.22122         4.93738          1.3437 
        2.22736         4.92798         1.33468 
        2.23349         4.91061         1.32574 
        2.23962         4.90032         1.31689 
        2.24577         4.86723          1.3081 
         2.2519         4.86834         1.29941 
        2.25802         4.82084         1.29082 
        2.26417         4.81667         1.28227 
        2.27031           4.798          1.2738 
        2.27644         4.78018         1.26542 
        2.28257         4.76199         1.25713 
        2.28872         4.74724         1.24889 
        2.29486         4.72484         1.24073 
        2.30099         4.71168         1.23265 
        2.30712          4.6911         1.22465 
        2.31326         4.67611          1.2167 
         2.3194         4.65503         1.20883 
        2.32553         4.63698         1.20104 
        2.33166         4.62584         1.19333 
         2.3378         4.60867         1.18567 
        2.34394         4.58708         1.17807 
        2.35007         4.56827         1.17056 
        2.35619         4.56305         1.16311 
        2.36233         4.53379         1.15572 
        2.36848         4.52631         1.14837 
        2.37462         4.50947         1.14111 
        2.38075         4.49873         1.13391 
        2.38689         4.48204         1.12677 
        2.39303         4.45768         1.11969 
        2.39916         4.44755         1.11268 
        2.40529          4.4254         1.10573 
        2.41143         4.41835         1.09884 
        2.41757         4.40285           1.092 
         2.4237         4.38348         1.08523 
        2.42983         4.37359         1.07852 
        2.43598         4.36071         1.07185 
        2.44211         4.33921         1.06525 
        2.44823         4.31859         1.05872 
        2.45437         4.30563         1.05222 
        2.46052         4.29605         1.04578 
        2.46665         4.28061          1.0394 
        2.47279         4.25905         1.03307 
        2.47892         4.24665         1.02679 
        2.48507         4.23778         1.02056 
         2.4912         4.21956          1.0144 
