# k  (h/Mpc)    Pcb(k)  (Mpc/h)^3    Pcb_linear(k)  (Mpc/h)^3
     0.00783031           16325         16566.3 
       0.013688         19362.5         19177.7 
       0.019231         18460.7         18399.9 
      0.0249154         15884.3         16187.9 
      0.0312784         13271.6         13376.8 
      0.0375637           11069         11024.5 
      0.0433917         9328.71         9442.77 
      0.0492413         8355.98         8375.67 
      0.0555754          7418.8         7608.96 
      0.0619321         7061.12         7012.89 
       0.067871         6321.41         6453.93 
      0.0738098         5723.53         5829.12 
      0.0800417         5000.35         5124.64 
      0.0862327         4418.74         4449.44 
      0.0921407         3960.64         3897.24 
      0.0982031         3503.38         3461.83 
       0.104506         3287.66         3148.34 
       0.110769         3056.39         2942.68 
       0.116806         2888.88         2797.02 
       0.122832         2749.06         2659.33 
       0.129052         2530.89         2495.59 
       0.135211         2362.31         2304.64 
       0.141259         2220.61         2101.85 
       0.147318         2057.49         1904.98 
       0.153489         1868.65         1730.75 
       0.159709         1759.27         1592.76 
       0.165845         1686.96         1493.04 
       0.171974         1600.29         1420.49 
       0.178125         1527.04         1361.79 
       0.184229         1460.29         1305.26 
        0.19034          1370.1         1242.53 
       0.196428         1332.36         1172.04 
       0.202534         1274.51         1096.63 
       0.208729         1203.73         1021.41 
       0.214876         1144.51         953.902 
       0.220989         1100.74         897.215 
       0.227147         1053.21         851.069 
        0.23329         1010.43         813.876 
       0.239377         990.362         782.289 
       0.245482         924.973         752.371 
       0.251667         917.591         721.365 
       0.257832         879.183         688.831 
       0.263955         847.959         655.458 
       0.270079         814.354         622.497 
        0.27624         803.154         591.369 
       0.282372         770.009         563.531 
        0.28843         756.832         539.464 
       0.294538         717.453         518.248 
       0.300721         713.159          499.05 
        0.30691         682.441         481.075 
       0.313033         668.385         463.742 
       0.319153         651.051         446.418 
       0.325316         631.034         429.007 
        0.33145         613.578         411.977 
       0.337538         602.771         395.794 
       0.343633         585.681         380.625 
       0.349808         564.275         366.494 
       0.355968         559.864         353.582 
       0.362074         552.075         341.756 
       0.368217         535.446         330.578 
       0.374374          512.42         319.827 
       0.380519         511.183         309.397 
       0.386598         496.842         299.307 
       0.392688          494.01         289.458 
        0.39888         479.391         279.803 
       0.405048         470.257         270.626 
       0.411186         462.879         261.986 
       0.417313          453.38         253.868 
       0.423458         444.093         246.178 
       0.429607         437.661         238.872 
       0.435692         426.628         231.957 
       0.441815         422.453         225.245 
       0.447964         413.559         218.714 
       0.454126         405.514         212.381 
       0.460267         397.332         206.284 
       0.466387          392.45         200.432 
        0.47254         386.044         194.792 
       0.478662         384.259         189.428 
       0.484765         370.549         184.312 
       0.490885         367.369         179.395 
       0.497035         360.331         174.648 
       0.503198         355.823         170.067 
       0.509342         353.263         165.654 
       0.515458         349.161         161.403 
       0.521598         340.094         157.275 
       0.527764         335.223         153.271 
       0.533884         332.556         149.437 
           0.54         327.829         145.742 
       0.546137           326.2         142.167 
       0.552299         319.651         138.705 
       0.558452         317.968         135.372 
       0.564573         313.571         132.168 
       0.570708         307.622          129.06 
       0.576825         301.597         126.059 
       0.582926         299.768         123.158 
       0.589034         296.926         120.345 
       0.595184          294.42         117.601 
       0.601379         289.578         114.926 
       0.607522         285.664         112.357 
       0.613639         284.009         109.879 
       0.619772         278.195         107.472 
       0.625918         276.995         105.133 
       0.632068         272.374         102.864 
       0.638161         271.226         100.683 
         0.6443         266.842         98.5495 
       0.650464         264.322         96.4705 
       0.656582         261.661         94.4663 
       0.662703         261.203         92.5185 
       0.668861         256.692         90.6148 
       0.675024         253.673         88.7638 
       0.681124         251.858         86.9838 
       0.687237         249.207         85.2499 
       0.693381          245.38          83.556 
       0.699536          243.14         81.9057 
       0.705665         241.018         80.3077 
       0.711789         239.485         78.7541 
       0.717957         238.039         77.2312 
        0.72409          235.56         75.7573 
       0.730186         232.739          74.331 
       0.736317         230.206          72.934 
       0.742472         228.737          71.568 
       0.748622         226.818         70.2386 
        0.75476          224.47         68.9461 
       0.760888          222.05         67.6885 
       0.767043         221.914         66.4576 
       0.773185         219.545         65.2601 
       0.779291         215.609         64.0993 
       0.785407         215.161         62.9652 
       0.791564         212.866         61.8518 
       0.797719         210.271          60.766 
       0.803834         208.825         59.7133 
       0.809972          208.11          58.682 
       0.816124         207.246         57.6731 
       0.822261         205.203         56.6907 
       0.828378          203.01         55.7343 
       0.834502         202.003         54.7994 
       0.840667         199.793         53.8799 
       0.846816         198.276         52.9844 
       0.852925         197.363         52.1149 
       0.859047         195.646         51.2632 
       0.865192         193.219          50.428 
       0.871341         191.787         49.6109 
       0.877463         190.751         48.8157 
       0.883569         190.136           48.04 
       0.889708         187.815         47.2774 
       0.895864         186.193         46.5295 
       0.902008         184.998         45.7994 
       0.908149          184.34         45.0855 
       0.914301         181.819         44.3858 
       0.920448         180.886         43.7016 
       0.926574         179.462         43.0344 
       0.932687          179.49         42.3826 
       0.938823         177.168         41.7421 
       0.944975          176.19         41.1134 
       0.951105         175.144            40.5 
       0.957225         173.835         39.9003 
       0.963368         171.462         39.3107 
       0.969511         170.945         38.7332 
       0.975621         169.397         38.1704 
       0.981748         169.347         37.6174 
       0.987916         167.712          37.072 
        0.99406         166.172         36.5396 
        1.00019         165.987         36.0187 
        1.00632          164.43         35.5085 
        1.01246         163.333         35.0075 
        1.01859         163.091          34.517 
        1.02471         160.809         34.0366 
        1.03085         159.534         33.5638 
        1.03698         158.813          33.101 
        1.04314          157.31         32.6449 
        1.04929         156.699         32.1986 
        1.05541         156.361         31.7625 
        1.06154         154.761         31.3334 
        1.06769         154.562         30.9117 
        1.07382         153.089         30.4991 
        1.07993         151.952         30.0951 
        1.08607         151.389         29.6967 
        1.09222         150.597         29.3051 
        1.09836         149.352         28.9212 
        1.10449         147.823         28.5445 
        1.11063         146.809         28.1742 
        1.11677         146.362         27.8106 
         1.1229         145.246         27.4541 
        1.12903         144.731         27.1035 
        1.13518         143.939         26.7588 
        1.14131         142.515         26.4203 
        1.14745         142.405         26.0879 
        1.15359         141.187         25.7611 
        1.15973         140.322         25.4399 
        1.16584         139.202         25.1256 
        1.17197         138.729         24.8162 
        1.17811           137.7          24.511 
        1.18424         137.175         24.2119 
        1.19038         136.811          23.917 
        1.19652         135.603         23.6271 
        1.20267         134.982         23.3421 
        1.20881         133.992         23.0618 
        1.21495         133.118         22.7866 
        1.22108         132.389         22.5159 
         1.2272          131.35         22.2503 
        1.23334         131.023         21.9884 
        1.23949         130.104         21.7302 
        1.24562         129.347         21.4768 
        1.25174         128.633         21.2278 
        1.25789         127.855         20.9821 
        1.26402         126.583         20.7407 
        1.27014          125.89         20.5037 
        1.27628         125.633         20.2697 
        1.28244         125.326         20.0389 
        1.28858         124.375          19.812 
        1.29471         123.217         19.5892 
        1.30084         123.123           19.37 
        1.30697         121.807         19.1539 
        1.31312          121.34         18.9407 
        1.31925         120.516         18.7315 
        1.32537         120.167         18.5257 
        1.33151         119.146         18.3222 
        1.33765         118.494         18.1219 
        1.34378         118.028          17.925 
        1.34992          117.66         17.7309 
        1.35606         117.205         17.5393 
         1.3622         116.022         17.3508 
        1.36833         115.293         17.1656 
        1.37445         114.875         16.9832 
        1.38059         114.063         16.8029 
        1.38675         113.467         16.6247 
        1.39288         113.201         16.4499 
        1.39901         112.709         16.2777 
        1.40515         111.656         16.1075 
         1.4113         111.222         15.9399 
        1.41742         110.451         15.7753 
        1.42355         109.903         15.6127 
         1.4297         109.453         15.4519 
        1.43585         108.626         15.2935 
        1.44198         108.188         15.1379 
        1.44809         107.726         14.9847 
        1.45423         107.271         14.8331 
        1.46036         106.556          14.684 
        1.46649         105.787         14.5368 
        1.47263         105.145         14.3915 
        1.47877         104.777         14.2482 
        1.48491         103.895         14.1068 
        1.49104         103.819         13.9675 
        1.49718         103.071           13.83 
        1.50333         102.535         13.6942 
        1.50947          102.02         13.5604 
         1.5156         101.494         13.4287 
        1.52172         100.916         13.2987 
        1.52787         100.344         13.1702 
          1.534          99.852         13.0435 
        1.54013         99.3563         12.9186 
        1.54627         98.9362         12.7952 
        1.55241         98.2266         12.6733 
        1.55855         97.6592         12.5532 
        1.56467         97.4408          12.435 
         1.5708         96.6196          12.318 
        1.57695         96.4711         12.2023 
        1.58308         95.8751         12.0884 
        1.58922         95.5391         11.9759 
        1.59535         94.9379         11.8648 
         1.6015          94.512          11.755 
        1.60764         93.9648         11.6466 
        1.61376         93.6101         11.5399 
        1.61989          93.039         11.4344 
        1.62604         92.5566         11.3301 
        1.63218          92.388         11.2271 
        1.63831         91.4527         11.1256 
        1.64444          91.124         11.0253 
        1.65059         90.6818         10.9261 
        1.65673          90.058         10.8281 
        1.66285         89.7639         10.7317 
        1.66898         89.4393         10.6364 
        1.67512          88.742         10.5421 
        1.68127         88.4674         10.4488 
         1.6874         87.7642         10.3569 
        1.69353         87.4236         10.2661 
        1.69967         87.1854         10.1762 
        1.70581         86.6372         10.0874 
        1.71193         86.1803         10.0001 
        1.71806         85.8516         9.91355 
        1.72421         85.2271         9.82789 
        1.73035         84.9829         9.74333 
        1.73649         84.5757         9.65979 
        1.74262          83.972         9.57731 
        1.74876         83.7196         9.49573 
        1.75489         83.1341         9.41527 
        1.76101          82.718         9.33577 
        1.76715         82.2024         9.25709 
        1.77329         82.0078         9.17921 
        1.77943         81.3675          9.1022 
        1.78557          81.295         9.02619 
        1.79171         80.4533         8.95103 
        1.79785         80.1322         8.87672 
        1.80399         79.8037         8.80327 
        1.81012         79.5309         8.73074 
        1.81625         79.1202         8.65907 
        1.82239         78.7516          8.5881 
        1.82853         78.3881         8.51795 
        1.83466         77.9576         8.44866 
        1.84078         77.5281         8.38021 
        1.84692         77.2133         8.31241 
        1.85306         76.8019         8.24527 
         1.8592         76.5361         8.17899 
        1.86533         76.0285         8.11347 
        1.87147         75.5528          8.0486 
        1.87761         75.3234          7.9844 
        1.88375         74.9085         7.92099 
        1.88988          74.555         7.85833 
        1.89601         74.1857         7.79632 
        1.90215         73.6684         7.73492 
        1.90829         73.3832         7.67422 
        1.91442         73.0958         7.61417 
        1.92056         72.6262         7.55482 
         1.9267          72.371         7.49603 
        1.93284           71.97         7.43784 
        1.93897         71.6383         7.38038 
        1.94509         71.3964         7.32365 
        1.95123         70.9745         7.26738 
        1.95737         70.5477         7.21165 
        1.96349         70.1741         7.15666 
        1.96964         69.8539         7.10207 
        1.97578         69.4902         7.04804 
        1.98192         69.4616         6.99468 
        1.98805         68.7635         6.94186 
        1.99419         68.5627         6.88959 
        2.00033         68.3388         6.83784 
        2.00647         67.8911         6.78663 
         2.0126         67.5669         6.73603 
        2.01874         67.0591         6.68587 
        2.02488         66.9188         6.63618 
        2.03101          66.505         6.58709 
        2.03714         66.0838         6.53854 
        2.04328         65.8694         6.49042 
        2.04941         65.6057         6.44283 
        2.05554         65.3601         6.39575 
        2.06167         65.0233         6.34908 
        2.06781         64.5316         6.30287 
        2.07396          64.237         6.25706 
        2.08009         64.0593         6.21177 
        2.08622         63.7157         6.16699 
        2.09237         63.4375         6.12256 
        2.09851         63.2175         6.07857 
        2.10464          62.797         6.03508 
        2.11077          62.537         5.99206 
        2.11691         62.2067         5.94937 
        2.12305         61.8789          5.9071 
        2.12918         61.6054         5.86533 
        2.13531         61.2273         5.82397 
        2.14145         60.9735         5.78291 
         2.1476         60.6328          5.7422 
        2.15372         60.4822         5.70209 
        2.15985         60.0936         5.66232 
        2.16599         59.7975         5.62281 
        2.17213         59.5629         5.58373 
        2.17827          59.245         5.54503 
         2.1844         58.9404         5.50673 
        2.19054          58.732         5.46877 
        2.19666         58.4443         5.43123 
         2.2028         58.2992         5.39401 
        2.20893         57.8834         5.35712 
        2.21508         57.6882         5.32054 
        2.22122         57.3689         5.28428 
        2.22736         57.1203         5.24844 
        2.23349         56.8015         5.21294 
        2.23962         56.4941         5.17775 
        2.24577         56.1964         5.14285 
         2.2519         56.0256         5.10832 
        2.25802          55.786         5.07417 
        2.26417         55.4373         5.04023 
        2.27031         55.1815         5.00658 
        2.27644         54.9505         4.97332 
        2.28257         54.7267         4.94038 
        2.28872          54.382         4.90766 
        2.29486         54.0706         4.87526 
        2.30099         53.8124         4.84321 
        2.30712         53.6792         4.81143 
        2.31326         53.3534         4.77989 
         2.3194         53.1189         4.74865 
        2.32553         52.8594         4.71774 
        2.33166         52.5112         4.68712 
         2.3378         52.3014         4.65673 
        2.34394         52.0444          4.6266 
        2.35007          51.833         4.59677 
        2.35619         51.6383         4.56725 
        2.36233         51.3792         4.53792 
        2.36848          51.166         4.50879 
        2.37462         50.8227         4.47997 
        2.38075         50.7138         4.45143 
        2.38689         50.4425         4.42312 
        2.39303         50.1656         4.39506 
        2.39916         49.9457         4.36727 
        2.40529          49.777         4.33973 
        2.41143         49.5242          4.3124 
        2.41757          49.256          4.2853 
         2.4237         49.0605         4.25847 
        2.42983         48.7867         4.23188 
        2.43598         48.5444         4.20545 
        2.44211         48.3339         4.17929 
        2.44823         48.1475         4.15341 
        2.45437         47.8876         4.12767 
        2.46052         47.7006         4.10214 
        2.46665         47.5182         4.07686 
        2.47279         47.1768         4.05181 
        2.47892         47.0554         4.02695 
        2.48507         46.7582         4.00227 
         2.4912         46.5996         3.97785 
