# k  (h/Mpc)    P(k)  (Mpc/h)^3    P_linear(k)  (Mpc/h)^3
     0.00783031         5995.21          6048.8 
       0.013688         7476.92         7628.22 
       0.019231         7840.62         7927.98 
      0.0249154         7571.68            7573 
      0.0312784         6772.09          6822.5 
      0.0375637         5945.59         6020.94 
      0.0433917         5348.14         5369.89 
      0.0492413         4798.45         4850.47 
      0.0555754          4407.1         4424.71 
      0.0619321         3982.95         4091.31 
       0.067871         3760.18          3815.8 
      0.0738098         3504.44         3541.26 
      0.0800417         3216.35         3240.18 
      0.0862327         2900.73         2934.64 
      0.0921407         2631.08         2654.79 
      0.0982031         2400.52         2398.37 
       0.104506         2156.16         2177.66 
       0.110769         1995.63         2006.73 
       0.116806         1899.95         1880.24 
       0.122832         1777.98          1778.9 
       0.129052         1691.98         1686.23 
       0.135211         1622.17         1595.03 
       0.141259         1511.85         1500.42 
       0.147318         1397.74         1400.87 
       0.153489         1312.69         1299.12 
       0.159709         1241.75         1202.57 
       0.165845            1134         1118.44 
       0.171974         1098.72         1047.98 
       0.178125         1048.74         990.418 
       0.184229         978.018         943.549 
        0.19034         954.112          902.94 
       0.196428         920.722         864.948 
       0.202534         862.814         826.581 
       0.208729         842.802         786.226 
       0.214876         807.772          745.19 
       0.220989         754.633         704.854 
       0.227147         735.641         666.459 
        0.23329         706.038         631.778 
       0.239377         689.161         601.616 
       0.245482         653.909         575.375 
       0.251667         627.895         552.064 
       0.257832         620.292         530.982 
       0.263955         587.123         511.105 
       0.270079         567.438         491.517 
        0.27624         543.487         471.811 
       0.282372         530.447          452.28 
        0.28843         525.895         433.433 
       0.294538         499.631         415.321 
       0.300721         482.276         398.266 
        0.30691         474.355         382.652 
       0.313033         454.322         368.587 
       0.319153         446.388           355.7 
       0.325316         435.718         343.588 
        0.33145         425.201         332.107 
       0.337538         410.674         321.056 
       0.343633          398.31         310.235 
       0.349808         387.673         299.521 
       0.355968         379.633         289.153 
       0.362074         369.584         279.305 
       0.368217         364.871         269.905 
       0.374374          356.93         261.047 
       0.380519         342.602          252.75 
       0.386598         337.576         245.022 
       0.392688         329.873         237.683 
        0.39888         321.914         230.541 
       0.405048         316.223         223.687 
       0.411186         313.281         217.082 
       0.417313         307.403         210.687 
       0.423458         299.081         204.486 
       0.429607         292.448         198.512 
       0.435692         287.241         192.843 
       0.441815         281.837         187.392 
       0.447964         274.536          182.17 
       0.454126         270.443         177.169 
       0.460267         267.211         172.399 
       0.466387         262.195         167.829 
        0.47254         258.953         163.397 
       0.478662         251.468         159.133 
       0.484765         248.573         155.022 
       0.490885          245.03         151.033 
       0.497035         242.177          147.16 
       0.503198         239.093         143.417 
       0.509342         232.778         139.824 
       0.515458         230.295         136.379 
       0.521598         225.177         133.046 
       0.527764         222.684         129.819 
       0.533884         222.168         126.728 
           0.54         216.989         123.741 
       0.546137         212.283         120.838 
       0.552299           210.7         118.014 
       0.558452         207.093         115.283 
       0.564573         205.839         112.651 
       0.570708         201.253         110.097 
       0.576825         198.606          107.63 
       0.582926         196.516         105.248 
       0.589034         193.918         102.939 
       0.595184          192.41         100.686 
       0.601379         188.261         98.4882 
       0.607522         185.263         96.3741 
       0.613639         183.891         94.3309 
       0.619772         181.924         92.3419 
       0.625918         180.485         90.4065 
       0.632068         176.562         88.5258 
       0.638161         174.653         86.7159 
         0.6443         173.892         84.9441 
       0.650464         170.733         83.2161 
       0.656582         169.892         81.5493 
       0.662703         168.169         79.9285 
       0.668861         164.877         78.3435 
       0.675024         164.912          76.801 
       0.681124         162.353         75.3161 
       0.687237         159.978          73.868 
       0.693381         159.077         72.4514 
       0.699536         157.057         71.0696 
       0.705665         155.114         69.7301 
       0.711789         153.364         68.4267 
       0.717957         151.786         67.1481 
        0.72409         150.749         65.9097 
       0.730186         150.245         64.7105 
       0.736317         147.643         63.5351 
       0.742472         145.857          62.385 
       0.748622         143.757         61.2648 
        0.75476          143.94         60.1748 
       0.760888         142.676         59.1133 
       0.767043         140.324         58.0734 
       0.773185         138.851          57.061 
       0.779291         137.306         56.0787 
       0.785407          136.08         55.1184 
       0.791564         135.488         54.1748 
       0.797719         133.851         53.2541 
       0.803834         133.309         52.3609 
       0.809972         132.525         51.4852 
       0.816124         130.793         50.6279 
       0.822261         129.399         49.7927 
       0.828378          129.23         48.9791 
       0.834502         127.118         48.1831 
       0.840667         126.644         47.3999 
       0.846816         125.564         46.6364 
       0.852925         124.228         45.8947 
       0.859047         123.484         45.1678 
       0.865192         122.274         44.4543 
       0.871341         120.968          43.756 
       0.877463         120.223         43.0759 
       0.883569         120.011         42.4122 
       0.889708         119.018         41.7591 
       0.895864         117.875         41.1182 
       0.902008         116.913         40.4923 
       0.908149         115.418         39.8798 
       0.914301         115.468         39.2791 
       0.920448         114.786         38.6915 
       0.926574         112.825          38.118 
       0.932687         112.674         37.5575 
       0.938823         111.769         37.0063 
       0.944975         110.527         36.4651 
       0.951105         109.743         35.9366 
       0.957225         109.703         35.4197 
       0.963368         108.405         34.9112 
       0.969511         107.554         34.4128 
       0.975621         106.771         33.9269 
       0.981748         105.858         33.4492 
       0.987916         105.254         32.9778 
        0.99406         104.806         32.5173 
        1.00019         103.638         32.0667 
        1.00632         103.092          31.625 
        1.01246         102.418         31.1911 
        1.01859         101.976         30.7661 
        1.02471         101.031         30.3497 
        1.03085         100.196         29.9396 
        1.03698         99.6748          29.538 
        1.04314         98.9821         29.1421 
        1.04929         98.5988         28.7545 
        1.05541         97.9122         28.3756 
        1.06154         97.3363         28.0026 
        1.06769         96.4112         27.6358 
        1.07382         95.6912         27.2769 
        1.07993         95.4009         26.9252 
        1.08607         94.5949         26.5783 
        1.09222          94.377         26.2372 
        1.09836         93.3718         25.9025 
        1.10449          92.926         25.5741 
        1.11063         92.2685         25.2511 
        1.11677         91.7974         24.9338 
         1.1229         91.0497         24.6225 
        1.12903         90.8266         24.3164 
        1.13518         90.4453         24.0152 
        1.14131         89.6948         23.7193 
        1.14745         88.9981         23.4286 
        1.15359         88.0995         23.1427 
        1.15973         88.0124         22.8616 
        1.16584         87.4195         22.5863 
        1.17197         86.7692         22.3153 
        1.17811         86.2951         22.0479 
        1.18424         85.5163         21.7856 
        1.19038         85.5141         21.5269 
        1.19652         84.9667         21.2725 
        1.20267         84.3198         21.0223 
        1.20881         83.8321         20.7762 
        1.21495         83.4443         20.5344 
        1.22108          83.051         20.2965 
         1.2272         82.2876          20.063 
        1.23334          82.035         19.8327 
        1.23949         81.5327         19.6054 
        1.24562         80.8981         19.3824 
        1.25174         80.4496         19.1632 
        1.25789         80.5061         18.9468 
        1.26402         79.7619         18.7341 
        1.27014          79.401         18.5252 
        1.27628         78.7112         18.3189 
        1.28244         78.5034         18.1153 
        1.28858         78.0538         17.9152 
        1.29471          77.645         17.7185 
        1.30084         76.9797          17.525 
        1.30697         77.0174         17.3342 
        1.31312         76.3333         17.1459 
        1.31925         75.8716          16.961 
        1.32537         75.4855          16.779 
        1.33151         75.2521         16.5991 
        1.33765         74.7451         16.4219 
        1.34378         74.4775         16.2477 
        1.34992         74.0222         16.0759 
        1.35606         73.5643         15.9063 
         1.3622         73.2289         15.7394 
        1.36833          72.727         15.5753 
        1.37445         72.1577         15.4136 
        1.38059         72.0775         15.2538 
        1.38675         71.3359         15.0958 
        1.39288         71.3775         14.9407 
        1.39901         70.7135         14.7879 
        1.40515         70.4912         14.6369 
         1.4113         70.2901         14.4881 
        1.41742         69.8685         14.3419 
        1.42355         69.3996         14.1975 
         1.4297         69.0442         14.0546 
        1.43585         68.6124         13.9138 
        1.44198         68.2599         13.7754 
        1.44809         67.8907         13.6392 
        1.45423         67.5968         13.5043 
        1.46036         67.1801         13.3716 
        1.46649         67.0712         13.2405 
        1.47263         66.6351         13.1111 
        1.47877         66.3933         12.9835 
        1.48491         66.0584         12.8575 
        1.49104         65.5208         12.7333 
        1.49718         65.2806         12.6108 
        1.50333         64.9965         12.4896 
        1.50947         64.6702         12.3703 
         1.5156         64.4091         12.2528 
        1.52172         63.9684         12.1367 
        1.52787         63.6129          12.022 
          1.534          63.408         11.9089 
        1.54013         63.1879         11.7974 
        1.54627         62.6116         11.6871 
        1.55241         62.3169         11.5782 
        1.55855         62.2198         11.4708 
        1.56467         61.6949         11.3651 
         1.5708         61.6048         11.2605 
        1.57695         61.2271          11.157 
        1.58308         60.8466         11.0551 
        1.58922          60.609         10.9544 
        1.59535         60.4265          10.855 
         1.6015         60.3418         10.7567 
        1.60764         59.9112         10.6596 
        1.61376         59.5332          10.564 
        1.61989          59.135         10.4696 
        1.62604         58.9396          10.376 
        1.63218         58.6676         10.2837 
        1.63831         58.5075         10.1928 
        1.64444          58.155         10.1028 
        1.65059         57.9471         10.0138 
        1.65673         57.5056         9.92595 
        1.66285         57.4062         9.83939 
        1.66898          56.844         9.75384 
        1.67512         56.8128         9.66914 
        1.68127         56.5046         9.58537 
         1.6874         56.1686         9.50279 
        1.69353         56.0408         9.42123 
        1.69967          55.805         9.34045 
        1.70581         55.4211         9.26064 
        1.71193         55.1742         9.18208 
        1.71806         54.9285         9.10426 
        1.72421          54.724         9.02719 
        1.73035         54.4525         8.95111 
        1.73649         54.1078         8.87593 
        1.74262         53.7603         8.80167 
        1.74876         53.6405         8.72822 
        1.75489         53.3192         8.65576 
        1.76101         53.1097         8.58414 
        1.76715         53.0839         8.51325 
        1.77329         52.5289         8.44307 
        1.77943         52.5446         8.37365 
        1.78557         52.2849         8.30513 
        1.79171         51.9914         8.23736 
        1.79785          51.731         8.17033 
        1.80399         51.4941         8.10407 
        1.81012         51.2996         8.03864 
        1.81625         50.9256         7.97396 
        1.82239         50.7521          7.9099 
        1.82853         50.6218         7.84658 
        1.83466         50.3023         7.78402 
        1.84078         50.0846         7.72221 
        1.84692         49.8129         7.66097 
        1.85306         49.5916         7.60032 
         1.8592         49.4762         7.54043 
        1.86533         49.1902         7.48122 
        1.87147         48.9582         7.42258 
        1.87761         48.6541         7.36455 
        1.88375         48.5676          7.3072 
        1.88988         48.3457         7.25053 
        1.89601         48.0423         7.19443 
        1.90215         47.8812         7.13889 
        1.90829          47.643         7.08396 
        1.91442         47.4107          7.0296 
        1.92056         47.2079         6.97586 
         1.9267         47.0664         6.92263 
        1.93284         46.7793         6.86993 
        1.93897         46.6694         6.81788 
        1.94509         46.3113         6.76648 
        1.95123         46.1514         6.71548 
        1.95737         45.8536         6.66497 
        1.96349         45.7632         6.61511 
        1.96964         45.5634         6.56562 
        1.97578         45.3542         6.51662 
        1.98192         45.1286         6.46822 
        1.98805         44.9104          6.4203 
        1.99419         44.7724         6.37287 
        2.00033         44.5825          6.3259 
        2.00647         44.4264         6.27942 
         2.0126         44.1468         6.23348 
        2.01874         43.9006         6.18794 
        2.02488         43.7359         6.14281 
        2.03101         43.5468         6.09821 
        2.03714         43.3611         6.05411 
        2.04328         43.2158         6.01039 
        2.04941         42.9735         5.96714 
        2.05554         42.8593         5.92435 
        2.06167         42.6467         5.88192 
        2.06781         42.4288          5.8399 
        2.07396         42.2669         5.79823 
        2.08009         42.1113         5.75705 
        2.08622         41.8781         5.71631 
        2.09237         41.7168         5.67589 
        2.09851         41.4988         5.63585 
        2.10464         41.2859         5.59627 
        2.11077         41.1772         5.55711 
        2.11691         40.9206         5.51825 
        2.12305         40.7559         5.47976 
        2.12918         40.5943         5.44173 
        2.13531         40.4542         5.40405 
        2.14145         40.2731         5.36665 
         2.1476         40.0419         5.32956 
        2.15372         39.9693         5.29301 
        2.15985         39.6909         5.25677 
        2.16599          39.521         5.22076 
        2.17213         39.3776         5.18513 
        2.17827         39.1721         5.14984 
         2.1844         39.0244         5.11492 
        2.19054         38.8461          5.0803 
        2.19666         38.6324         5.04606 
         2.2028          38.522          5.0121 
        2.20893          38.341         4.97844 
        2.21508         38.2152         4.94505 
        2.22122         38.0001         4.91195 
        2.22736         37.7858         4.87923 
        2.23349         37.6496         4.84682 
        2.23962         37.5379         4.81468 
        2.24577         37.3876         4.78281 
         2.2519         37.1729         4.75127 
        2.25802         37.0373         4.72007 
        2.26417         36.8389         4.68906 
        2.27031         36.7665          4.6583 
        2.27644         36.6506         4.62791 
        2.28257         36.3615         4.59779 
        2.28872          36.304         4.56788 
        2.29486         36.0922         4.53825 
        2.30099         35.9016         4.50894 
        2.30712         35.8012         4.47988 
        2.31326         35.6344         4.45102 
         2.3194         35.4795         4.42244 
        2.32553         35.3297         4.39416 
        2.33166         35.1716         4.36613 
         2.3378         35.0736         4.33832 
        2.34394          34.869         4.31074 
        2.35007         34.7599         4.28343 
        2.35619         34.6302          4.2564 
        2.36233         34.4266         4.22954 
        2.36848          34.291         4.20285 
        2.37462         34.1974         4.17645 
        2.38075         34.0103         4.15031 
        2.38689         33.8557         4.12437 
        2.39303         33.8213         4.09865 
        2.39916         33.5319         4.07318 
        2.40529         33.3546         4.04793 
        2.41143         33.3133         4.02287 
        2.41757         33.1573         3.99802 
         2.4237         33.0133         3.97343 
        2.42983         32.8928         3.94904 
        2.43598         32.7676         3.92479 
        2.44211         32.6227         3.90079 
        2.44823         32.4165         3.87704 
        2.45437         32.3905         3.85343 
        2.46052         32.1907            3.83 
        2.46665          32.028          3.8068 
        2.47279         31.8365          3.7838 
        2.47892          31.797         3.76098 
        2.48507         31.6498         3.73832 
         2.4912         31.5676          3.7159 
