# k  (h/Mpc)    Pcb(k)  (Mpc/h)^3    Pcb_linear(k)  (Mpc/h)^3
     0.00783031         12315.5         12364.2 
       0.013688           15754         16160.1 
       0.019231         16989.9         17262.2 
      0.0249154           16858         16899.9 
      0.0312784         15349.1         15600.1 
      0.0375637         13695.7         14052.1 
      0.0433917         12529.5         12725.3 
      0.0492413         11326.8         11627.9 
      0.0555754         10477.7           10703 
      0.0619321         9444.27         9965.01 
       0.067871         8981.59          9350.5 
      0.0738098         8452.84         8736.45 
      0.0800417          7800.4         8059.16 
      0.0862327         7095.88         7364.02 
      0.0921407          6498.6         6717.27 
      0.0982031         5995.29         6113.56 
       0.104506         5411.05         5582.85 
       0.110769         5030.89         5162.97 
       0.116806         4816.61         4847.14 
       0.122832         4519.71         4592.85 
       0.129052         4288.51         4362.69 
       0.135211         4156.96         4139.96 
       0.141259         3874.54         3911.24 
       0.147318         3604.25         3670.38 
       0.153489          3420.2         3421.78 
       0.159709          3292.8         3182.19 
       0.165845          3015.8         2969.53 
       0.171974         2939.73          2788.1 
       0.178125         2848.05         2637.66 
       0.184229         2630.61          2514.4 
        0.19034         2594.11          2408.3 
       0.196428         2524.31         2310.62 
       0.202534         2382.84         2213.48 
       0.208729         2335.98         2111.98 
       0.214876          2243.6         2008.43 
       0.220989         2136.64         1905.57 
       0.227147         2084.05         1806.28 
        0.23329         2006.93         1715.26 
       0.239377         1994.47         1635.07 
       0.245482         1905.92         1564.75 
       0.251667         1836.94         1502.32 
       0.257832         1811.72         1446.29 
       0.263955         1735.29         1394.06 
       0.270079         1696.81         1343.08 
        0.27624         1627.18         1291.92 
       0.282372          1611.4         1241.05 
        0.28843         1585.13         1191.56 
       0.294538         1516.65          1143.5 
       0.300721         1489.84          1097.8 
        0.30691         1456.45         1055.61 
       0.313033          1405.1          1017.5 
       0.319153         1391.43         982.601 
       0.325316         1375.21         949.986 
        0.33145         1349.09          919.25 
       0.337538         1307.78         889.814 
       0.343633         1278.99          861.02 
       0.349808         1257.59         832.443 
       0.355968          1233.2          804.65 
       0.362074         1200.49         778.064 
       0.368217         1197.03         752.556 
       0.374374         1179.36         728.386 
       0.380519          1141.3         705.719 
       0.386598         1137.31         684.613 
       0.392688         1110.46         664.607 
        0.39888         1088.22         645.213 
       0.405048         1070.23         626.626 
       0.411186         1065.22         608.722 
       0.417313         1064.49         591.372 
       0.423458         1031.32         574.488 
       0.429607         1004.29         558.165 
       0.435692         997.944         542.631 
       0.441815         979.802         527.643 
       0.447964         970.339         513.264 
       0.454126         957.165         499.505 
       0.460267         946.481         486.377 
       0.466387         933.141         473.814 
        0.47254         915.812         461.643 
       0.478662         906.391         449.936 
       0.484765         898.626         438.628 
       0.490885         888.022         427.645 
       0.497035         873.793         416.962 
       0.503198         872.736         406.617 
       0.509342         857.214         396.663 
       0.515458         840.674         387.113 
       0.521598         838.979         377.874 
       0.527764         820.261         368.925 
       0.533884         813.566         360.347 
           0.54         807.235          352.06 
       0.546137         797.554         344.008 
       0.552299         792.321         336.171 
       0.558452         784.833         328.582 
       0.564573         777.857         321.258 
       0.570708         771.512         314.142 
       0.576825         756.056         307.267 
       0.582926         754.425         300.623 
       0.589034         745.775         294.175 
       0.595184         737.681         287.882 
       0.601379         726.419         281.739 
       0.607522         717.562          275.83 
       0.613639          716.68         270.118 
       0.619772         711.082         264.555 
       0.625918         701.212         259.137 
       0.632068         696.679         253.867 
       0.638161         687.751         248.792 
         0.6443         682.114         243.821 
       0.650464         677.147         238.971 
       0.656582         672.015          234.29 
       0.662703         663.486         229.737 
       0.668861         657.611          225.28 
       0.675024         653.241         220.941 
       0.681124         643.458         216.762 
       0.687237         643.228         212.685 
       0.693381         632.749         208.695 
       0.699536          632.19         204.801 
       0.705665         625.361         201.025 
       0.711789         623.549         197.349 
       0.717957         615.197         193.741 
        0.72409         610.084         190.244 
       0.730186         609.038         186.856 
       0.736317         601.206         183.533 
       0.742472         593.929          180.28 
       0.748622          591.66         177.111 
        0.75476         585.694         174.026 
       0.760888         582.709          171.02 
       0.767043         580.245         168.075 
       0.773185         576.531         165.206 
       0.779291         569.212         162.421 
       0.785407         565.566         159.698 
       0.791564         561.724          157.02 
       0.797719         554.107         154.407 
       0.803834         555.526          151.87 
       0.809972         547.967         149.382 
       0.816124         543.817         146.945 
       0.822261         540.648         144.569 
       0.828378         538.023         142.255 
       0.834502         530.119         139.989 
       0.840667         529.605         137.759 
       0.846816         523.927         135.585 
       0.852925         522.922         133.472 
       0.859047         518.209           131.4 
       0.865192         515.332         129.366 
       0.871341         508.914         127.374 
       0.877463         507.458         125.433 
       0.883569         502.314         123.538 
       0.889708         497.706         121.673 
       0.895864         493.582         119.843 
       0.902008         492.676         118.054 
       0.908149         488.484         116.304 
       0.914301         486.717         114.586 
       0.920448         481.061         112.905 
       0.926574         479.094         111.264 
       0.932687         477.272          109.66 
       0.938823          471.31         108.081 
       0.944975         469.129         106.531 
       0.951105         466.178         105.017 
       0.957225         459.514         103.535 
       0.963368         460.884         102.078 
       0.969511         453.312         100.648 
       0.975621         453.333         99.2542 
       0.981748         450.145         97.8834 
       0.987916         447.566         96.5301 
        0.99406         443.601         95.2079 
        1.00019          439.18         93.9134 
        1.00632         438.524         92.6444 
        1.01246         435.178         91.3973 
        1.01859         430.888         90.1755 
        1.02471         428.837         88.9778 
        1.03085         426.705          87.798 
        1.03698         424.382         86.6424 
        1.04314         421.654         85.5029 
        1.04929         419.365         84.3868 
        1.05541         413.588         83.2954 
        1.06154         413.108         82.2208 
        1.06769         409.017         81.1638 
        1.07382         407.075          80.129 
        1.07993         405.154         79.1148 
        1.08607          402.28         78.1143 
        1.09222           399.1         77.1302 
        1.09836          397.09         76.1643 
        1.10449         394.167         75.2164 
        1.11063         391.615         74.2836 
        1.11677         387.593         73.3672 
         1.1229         386.951         72.4679 
        1.12903         383.838         71.5831 
        1.13518         381.494         70.7124 
        1.14131         380.218         69.8569 
        1.14745         375.355         69.0161 
        1.15359         373.045         68.1892 
        1.15973         371.745         67.3755 
        1.16584         370.026          66.579 
        1.17197         367.031         65.7943 
        1.17811           363.4           65.02 
        1.18424         362.029         64.2605 
        1.19038         360.013          63.511 
        1.19652         356.406         62.7739 
        1.20267         355.678         62.0487 
        1.20881         353.814         61.3351 
        1.21495         350.268          60.634 
        1.22108          349.08         59.9441 
         1.2272         344.273         59.2667 
        1.23334          343.54         58.5983 
        1.23949          341.57         57.9387 
        1.24562         340.739         57.2912 
        1.25174         337.304         56.6547 
        1.25789         334.964          56.026 
        1.26402         333.793         55.4081 
        1.27014         332.125         54.8011 
        1.27628         328.819         54.2014 
        1.28244         327.154         53.6097 
        1.28858         325.517         53.0278 
        1.29471         323.853         52.4558 
        1.30084         322.183         51.8929 
        1.30697         318.921         51.3374 
        1.31312         316.842         50.7894 
        1.31925         315.532         50.2512 
        1.32537         313.957         49.7214 
        1.33151         311.127         49.1975 
        1.33765         309.112         48.6814 
        1.34378         307.043         48.1739 
        1.34992         304.648         47.6732 
        1.35606         303.322         47.1787 
         1.3622         301.885         46.6922 
        1.36833         300.381         46.2137 
        1.37445         298.855         45.7422 
        1.38059         295.703         45.2759 
        1.38675         294.344          44.815 
        1.39288         293.362         44.3625 
        1.39901         290.568         43.9164 
        1.40515         289.275         43.4755 
         1.4113         287.101         43.0409 
        1.41742         284.438         42.6139 
        1.42355          284.79         42.1919 
         1.4297         282.127         41.7745 
        1.43585         279.413         41.3629 
        1.44198         278.396         40.9585 
        1.44809         277.149         40.5603 
        1.45423          275.23          40.166 
        1.46036         273.728         39.7776 
        1.46649         272.386         39.3943 
        1.47263         269.723         39.0158 
        1.47877         268.487         38.6425 
        1.48491         266.452         38.2735 
        1.49104         264.792         37.9102 
        1.49718         263.522         37.5514 
        1.50333         261.194         37.1966 
        1.50947         260.619         36.8472 
         1.5156         258.537         36.5029 
        1.52172         256.877          36.163 
        1.52787         255.241         35.8268 
          1.534         254.769         35.4953 
        1.54013         252.483         35.1684 
        1.54627         251.313          34.845 
        1.55241         249.575         34.5257 
        1.55855         248.461         34.2109 
        1.56467         246.691         33.9009 
         1.5708         245.363         33.5939 
        1.57695         243.896         33.2903 
        1.58308         242.643         32.9911 
        1.58922         240.776         32.6955 
        1.59535         238.929         32.4036 
         1.6015         238.015         32.1148 
        1.60764         236.529         31.8298 
        1.61376         234.511          31.549 
        1.61989         233.116         31.2714 
        1.62604         231.628         30.9966 
        1.63218         230.416         30.7253 
        1.63831         229.982         30.4578 
        1.64444         227.745         30.1935 
        1.65059         226.993         29.9317 
        1.65673         224.989         29.6733 
        1.66285         224.041         29.4187 
        1.66898         222.774          29.167 
        1.67512         221.122         28.9178 
        1.68127         220.168         28.6713 
         1.6874         218.602         28.4283 
        1.69353         217.604         28.1882 
        1.69967         216.095         27.9504 
        1.70581         215.047         27.7154 
        1.71193         213.537         27.4841 
        1.71806         212.019         27.2549 
        1.72421         211.195         27.0279 
        1.73035         209.414         26.8037 
        1.73649         208.018         26.5822 
        1.74262          207.25         26.3633 
        1.74876         206.103         26.1468 
        1.75489         205.038         25.9332 
        1.76101         203.829         25.7221 
        1.76715         202.374          25.513 
        1.77329         200.724         25.3061 
        1.77943         199.731         25.1013 
        1.78557         199.024         24.8991 
        1.79171         198.133         24.6992 
        1.79785         196.768         24.5014 
        1.80399         195.366         24.3058 
        1.81012         194.312         24.1127 
        1.81625         192.993         23.9217 
        1.82239         191.851         23.7326 
        1.82853         191.209         23.5456 
        1.83466         189.539         23.3608 
        1.84078         188.696         23.1782 
        1.84692         187.742         22.9972 
        1.85306         186.255          22.818 
         1.8592         185.646          22.641 
        1.86533         183.845          22.466 
        1.87147         183.153         22.2926 
        1.87761         182.133          22.121 
        1.88375         180.627         21.9514 
        1.88988         180.057         21.7838 
        1.89601          179.64         21.6179 
        1.90215          178.14         21.4536 
        1.90829         176.848         21.2911 
        1.91442          176.11         21.1302 
        1.92056         174.613         20.9712 
         1.9267         174.114         20.8137 
        1.93284         172.949         20.6577 
        1.93897         171.868         20.5036 
        1.94509         170.995         20.3514 
        1.95123         169.958         20.2004 
        1.95737         169.333         20.0508 
        1.96349         168.058         19.9031 
        1.96964         167.146         19.7565 
        1.97578         166.113         19.6113 
        1.98192         165.231         19.4679 
        1.98805         164.285         19.3259 
        1.99419         163.027         19.1854 
        2.00033         162.537         19.0461 
        2.00647         161.378         18.9083 
         2.0126         160.487         18.7721 
        2.01874         159.591         18.6371 
        2.02488         158.773         18.5032 
        2.03101           158.3          18.371 
        2.03714         157.047         18.2401 
        2.04328         155.908         18.1104 
        2.04941         155.634         17.9821 
        2.05554         154.628         17.8551 
        2.06167         153.487         17.7292 
        2.06781         152.661         17.6045 
        2.07396         151.736         17.4808 
        2.08009         151.208         17.3585 
        2.08622         149.924         17.2375 
        2.09237         149.094         17.1175 
        2.09851         148.538         16.9986 
        2.10464         147.743          16.881 
        2.11077         146.812         16.7647 
        2.11691         146.184         16.6492 
        2.12305         145.281         16.5348 
        2.12918         144.271         16.4218 
        2.13531         143.402         16.3098 
        2.14145         142.786         16.1986 
         2.1476         141.923         16.0884 
        2.15372         141.221         15.9797 
        2.15985         140.211         15.8719 
        2.16599          139.59         15.7648 
        2.17213         138.813         15.6588 
        2.17827         138.061         15.5539 
         2.1844          137.31         15.4499 
        2.19054         136.424         15.3469 
        2.19666         135.685          15.245 
         2.2028         135.134          15.144 
        2.20893         134.516         15.0438 
        2.21508         133.188         14.9444 
        2.22122         132.637         14.8459 
        2.22736         132.083         14.7485 
        2.23349         131.476         14.6519 
        2.23962           130.7         14.5562 
        2.24577         130.023         14.4613 
         2.2519         129.059         14.3674 
        2.25802         128.662         14.2744 
        2.26417         127.705          14.182 
        2.27031         127.061         14.0904 
        2.27644         126.488         13.9998 
        2.28257          125.94         13.9101 
        2.28872          125.05         13.8209 
        2.29486         124.437         13.7326 
        2.30099         123.615         13.6452 
        2.30712         123.142         13.5586 
        2.31326         122.363         13.4725 
         2.3194         121.836         13.3873 
        2.32553         120.994         13.3029 
        2.33166         120.791         13.2194 
         2.3378         119.859         13.1364 
        2.34394         118.865         13.0541 
        2.35007         118.457         12.9726 
        2.35619          117.75          12.892 
        2.36233         117.331         12.8118 
        2.36848         116.482         12.7322 
        2.37462         116.158         12.6534 
        2.38075         115.471         12.5753 
        2.38689         114.821         12.4979 
        2.39303         114.135         12.4211 
        2.39916         113.708          12.345 
        2.40529         113.087         12.2696 
        2.41143         112.205         12.1948 
        2.41757         111.538         12.1206 
         2.4237          111.23         12.0471 
        2.42983         110.506         11.9742 
        2.43598         109.998         11.9018 
        2.44211         109.443         11.8301 
        2.44823         108.802         11.7591 
        2.45437         108.335         11.6885 
        2.46052          107.59         11.6185 
        2.46665         107.125         11.5491 
        2.47279         106.548         11.4804 
        2.47892         105.999         11.4121 
        2.48507         105.568         11.3444 
         2.4912         104.901         11.2773 
