# k  (h/Mpc)    P(k)  (Mpc/h)^3    P_linear(k)  (Mpc/h)^3
     0.00783031         11371.7         11448.9 
       0.013688         14348.6         14721.5 
       0.019231         15236.6         15476.4 
      0.0249154         14812.6         14833.7 
      0.0312784         13130.1         13301.1 
      0.0375637         11384.5         11620.8 
      0.0433917         10161.1         10260.8 
      0.0492413         9038.22         9205.45 
      0.0555754         8294.75          8390.7 
      0.0619321         7486.11         7806.47 
       0.067871         7146.24         7351.74 
      0.0738098          6742.2         6891.87 
      0.0800417         6223.38         6352.93 
      0.0862327         5621.42         5763.59 
      0.0921407         5092.71         5191.34 
      0.0982031         4631.49         4646.89 
       0.104506         4119.39         4171.58 
       0.110769         3794.55         3810.57 
       0.116806         3617.01          3560.5 
       0.122832         3399.39         3381.68 
       0.129052         3243.26         3236.22 
       0.135211         3157.75         3097.39 
       0.141259          2953.2         2943.38 
       0.147318         2746.31         2764.06 
       0.153489         2588.71         2562.77 
       0.159709         2467.26         2357.73 
       0.165845          2242.9         2171.53 
       0.171974         2173.19         2014.64 
       0.178125         2088.03          1891.4 
       0.184229         1929.97         1800.03 
        0.19034         1901.88         1730.69 
       0.196428         1850.97         1672.36 
       0.202534         1744.62         1614.04 
       0.208729         1714.92         1547.73 
       0.214876         1644.55         1472.55 
       0.220989         1554.09         1391.08 
       0.227147         1512.25         1307.85 
        0.23329         1451.01         1229.84 
       0.239377         1434.37         1162.16 
       0.245482         1363.99         1106.02 
       0.251667          1313.8          1060.5 
       0.257832         1296.69         1023.68 
       0.263955         1237.33         991.739 
       0.270079         1204.67         960.615 
        0.27624         1155.91          927.45 
       0.282372          1139.9         891.558 
        0.28843         1125.16         853.758 
       0.294538         1070.98         815.041 
       0.300721         1046.84           777.3 
        0.30691         1025.26         742.855 
       0.313033         984.106         713.006 
       0.319153         971.975         687.482 
       0.325316         959.403         665.313 
        0.33145         940.091         645.555 
       0.337538         908.499         626.854 
       0.343633         886.445         608.056 
       0.349808         868.427           588.3 
       0.355968         852.637         567.959 
       0.362074         825.938         547.559 
       0.368217         823.408         527.515 
       0.374374         810.613         508.563 
       0.380519         781.126         491.197 
       0.386598         775.654         475.739 
       0.392688         758.489         461.744 
        0.39888         740.129         448.707 
       0.405048         727.572         436.448 
       0.411186         725.452         424.513 
       0.417313         721.199         412.635 
       0.423458         698.831         400.655 
       0.429607          680.08         388.663 
       0.435692         673.259         377.023 
       0.441815         661.345         365.742 
       0.447964         651.728         355.009 
       0.454126         643.855         344.979 
       0.460267         634.445         335.691 
       0.466387         625.001         327.009 
        0.47254         614.625         318.729 
       0.478662         604.921         310.796 
       0.484765         599.225         303.053 
       0.490885         592.706         295.374 
       0.497035         581.692         287.768 
       0.503198         581.421           280.3 
       0.509342         569.561         273.054 
       0.515458         559.197         266.103 
       0.521598         554.465         259.447 
       0.527764         543.725         253.107 
       0.533884         540.438         247.114 
           0.54         534.646         241.379 
       0.546137         525.751         235.833 
       0.552299         524.307         230.437 
       0.558452         517.085         225.183 
       0.564573         511.962         220.056 
       0.570708         507.224         215.022 
       0.576825         497.465         210.131 
       0.582926          495.42         205.404 
       0.589034         488.332         200.837 
       0.595184         484.385         196.403 
       0.601379         477.074         192.099 
       0.607522         469.358         187.982 
       0.613639         468.206         184.023 
       0.619772         466.091          180.18 
       0.625918         457.933         176.436 
       0.632068         454.575         172.783 
       0.638161         450.322         169.245 
         0.6443         445.686         165.764 
       0.650464         441.002          162.36 
       0.656582         437.483         159.079 
       0.662703          433.71         155.897 
       0.668861         427.856         152.796 
       0.675024         425.217         149.787 
       0.681124         419.683         146.894 
       0.687237         417.726         144.074 
       0.693381         412.326         141.313 
       0.699536         410.189         138.617 
       0.705665         405.828         136.001 
       0.711789         404.539         133.454 
       0.717957         398.681         130.954 
        0.72409         394.886         128.532 
       0.730186         396.766         126.187 
       0.736317         389.681         123.888 
       0.742472         386.034         121.639 
       0.748622         382.939         119.449 
        0.75476         381.043         117.318 
       0.760888         377.731         115.243 
       0.767043         374.793         113.211 
       0.773185         372.709         111.232 
       0.779291         367.491         109.313 
       0.785407         366.051         107.437 
       0.791564         362.913         105.593 
       0.797719         357.559         103.794 
       0.803834         360.207         102.049 
       0.809972         354.619         100.337 
       0.816124         351.049         98.6621 
       0.822261          348.23         97.0297 
       0.828378         347.355         95.4395 
       0.834502           342.1         93.8837 
       0.840667         342.396         92.3528 
       0.846816         336.715         90.8606 
       0.852925         337.155         89.4108 
       0.859047         334.027         87.9899 
       0.865192         333.018         86.5954 
       0.871341         328.443         85.2303 
       0.877463         326.083         83.9012 
       0.883569         324.294         82.6039 
       0.889708         321.467         81.3277 
       0.895864         318.947         80.0754 
       0.902008         317.201         78.8524 
       0.908149         314.649         77.6559 
       0.914301         313.005         76.4825 
       0.920448         311.123         75.3346 
       0.926574         309.075         74.2145 
       0.932687         307.336         73.1198 
       0.938823         304.247         72.0434 
       0.944975         303.358         70.9863 
       0.951105         300.546         69.9544 
       0.957225         297.453         68.9449 
       0.963368         297.762          67.952 
       0.969511           292.3         66.9788 
       0.975621         291.933         66.0299 
       0.981748         290.488         65.0971 
       0.987916         288.909         64.1766 
        0.99406         286.377         63.2774 
        1.00019         284.081         62.3974 
        1.00632         283.796          61.535 
        1.01246         281.478         60.6877 
        1.01859         278.236         59.8578 
        1.02471         276.506         59.0445 
        1.03085         275.868         58.2436 
        1.03698         274.086         57.4594 
        1.04314          273.44         56.6863 
        1.04929         271.475         55.9294 
        1.05541         268.738         55.1894 
        1.06154         267.158         54.4611 
        1.06769         264.907         53.7448 
        1.07382          264.51         53.0439 
        1.07993         261.751         52.3572 
        1.08607         260.183         51.6798 
        1.09222         258.689         51.0138 
        1.09836         257.963         50.3604 
        1.10449         255.796         49.7193 
        1.11063          253.85         49.0886 
        1.11677         252.205         48.4692 
         1.1229         251.135         47.8616 
        1.12903         249.646          47.264 
        1.13518         247.811         46.6761 
        1.14131         247.159         46.0986 
        1.14745         244.302         45.5313 
        1.15359         242.546         44.9734 
        1.15973         241.951         44.4247 
        1.16584         240.763         43.8877 
        1.17197         239.073         43.3588 
        1.17811         237.135         42.8371 
        1.18424          235.92         42.3255 
        1.19038         234.772         41.8208 
        1.19652         232.219         41.3246 
        1.20267         231.777         40.8365 
        1.20881         229.992         40.3564 
        1.21495         229.705         39.8848 
        1.22108         227.893         39.4209 
         1.2272           225.6         38.9654 
        1.23334         224.955         38.5162 
        1.23949         224.076          38.073 
        1.24562         222.464          37.638 
        1.25174         221.056         37.2105 
        1.25789         219.194         36.7883 
        1.26402         219.101         36.3735 
        1.27014         218.144         35.9661 
        1.27628         215.657         35.5637 
        1.28244         214.807         35.1668 
        1.28858         213.446         34.7764 
        1.29471         212.451         34.3929 
        1.30084         211.165         34.0156 
        1.30697         209.397         33.6433 
        1.31312         208.324         33.2761 
        1.31925         207.145         32.9156 
        1.32537         206.549         32.5608 
        1.33151         205.184           32.21 
        1.33765         203.606         31.8645 
        1.34378         202.759         31.5249 
        1.34992         201.483           31.19 
        1.35606         200.418         30.8592 
         1.3622         199.379         30.5338 
        1.36833         197.599          30.214 
        1.37445         197.617         29.8988 
        1.38059         195.666         29.5873 
        1.38675          194.49         29.2794 
        1.39288          193.47         28.9772 
        1.39901         192.329         28.6794 
        1.40515         191.633         28.3851 
         1.4113         190.111         28.0951 
        1.41742         188.635         27.8102 
        1.42355          189.06         27.5288 
         1.4297         187.186         27.2505 
        1.43585         186.281         26.9761 
        1.44198         184.495         26.7065 
        1.44809         183.838         26.4412 
        1.45423         183.107         26.1785 
        1.46036         181.822         25.9198 
        1.46649         180.758         25.6645 
        1.47263         180.177         25.4125 
        1.47877          178.82          25.164 
        1.48491         177.463         24.9184 
        1.49104         175.912         24.6767 
        1.49718         175.648         24.4379 
        1.50333         174.499          24.202 
        1.50947         173.652         23.9697 
         1.5156         172.567         23.7407 
        1.52172         171.863         23.5148 
        1.52787         170.852         23.2914 
          1.534         169.876         23.0711 
        1.54013         168.976          22.854 
        1.54627         167.965         22.6392 
        1.55241         167.297         22.4272 
        1.55855          166.56         22.2182 
        1.56467         165.202         22.0124 
         1.5708         163.981         21.8087 
        1.57695         163.534         21.6072 
        1.58308         162.337         21.4088 
        1.58922         161.779         21.2127 
        1.59535         160.537         21.0192 
         1.6015         159.637         20.8278 
        1.60764         158.741         20.6388 
        1.61376         157.784         20.4528 
        1.61989         157.079         20.2689 
        1.62604         155.902         20.0869 
        1.63218         155.355         19.9072 
        1.63831         154.407         19.7301 
        1.64444         153.353         19.5552 
        1.65059         152.705         19.3819 
        1.65673         151.895         19.2109 
        1.66285         151.365         19.0425 
        1.66898         150.126          18.876 
        1.67512          149.47         18.7113 
        1.68127         148.644         18.5483 
         1.6874         147.643         18.3876 
        1.69353         147.216          18.229 
        1.69967         146.076         18.0718 
        1.70581         145.643         17.9166 
        1.71193         144.476         17.7638 
        1.71806         143.428         17.6124 
        1.72421         143.046         17.4625 
        1.73035         142.223         17.3145 
        1.73649         141.103         17.1683 
        1.74262         140.837         17.0239 
        1.74876         139.899         16.8811 
        1.75489         139.222         16.7402 
        1.76101         138.283         16.6009 
        1.76715         137.313          16.463 
        1.77329         136.794         16.3266 
        1.77943         135.776         16.1916 
        1.78557          135.42         16.0584 
        1.79171         134.686         15.9266 
        1.79785          133.52         15.7963 
        1.80399         133.064         15.6675 
        1.81012         131.997         15.5403 
        1.81625         131.727         15.4145 
        1.82239         130.872           15.29 
        1.82853         130.305         15.1669 
        1.83466         129.318         15.0453 
        1.84078         128.875         14.9251 
        1.84692         128.498         14.8061 
        1.85306         127.411         14.6882 
         1.8592          126.92         14.5718 
        1.86533         125.875         14.4567 
        1.87147         125.622         14.3428 
        1.87761         124.552           14.23 
        1.88375         123.766         14.1185 
        1.88988         123.129         14.0084 
        1.89601         122.898         13.8994 
        1.90215         122.341         13.7915 
        1.90829         121.158         13.6847 
        1.91442         120.345         13.5791 
        1.92056         119.964         13.4747 
         1.9267         119.212         13.3713 
        1.93284         118.612         13.2689 
        1.93897         118.021         13.1678 
        1.94509         117.385          13.068 
        1.95123         116.792         12.9689 
        1.95737         116.322         12.8708 
        1.96349         115.662          12.774 
        1.96964          114.91         12.6778 
        1.97578         114.352         12.5827 
        1.98192         113.904         12.4887 
        1.98805         113.157         12.3956 
        1.99419         112.419         12.3035 
        2.00033         111.904         12.2123 
        2.00647         111.398          12.122 
         2.0126         110.764         12.0328 
        2.01874         110.563         11.9444 
        2.02488         109.423         11.8568 
        2.03101         109.107         11.7702 
        2.03714         108.401         11.6846 
        2.04328         108.025         11.5997 
        2.04941         107.524         11.5157 
        2.05554         106.879         11.4326 
        2.06167         105.968         11.3503 
        2.06781         105.463         11.2687 
        2.07396         105.099         11.1878 
        2.08009         104.216         11.1079 
        2.08622         104.006         11.0288 
        2.09237         103.367         10.9504 
        2.09851         102.766         10.8727 
        2.10464         102.426         10.7958 
        2.11077         101.777         10.7199 
        2.11691         101.455         10.6444 
        2.12305         100.734         10.5697 
        2.12918         100.219         10.4959 
        2.13531         99.6997         10.4228 
        2.14145         99.0419         10.3503 
         2.1476         98.6769         10.2783 
        2.15372         98.0657         10.2074 
        2.15985         97.5731         10.1371 
        2.16599         96.9313         10.0672 
        2.17213         96.5957         9.99807 
        2.17827         95.8842         9.92961 
         2.1844          95.636         9.86185 
        2.19054         95.0467          9.7947 
        2.19666         94.5552         9.72828 
         2.2028         94.1559         9.66241 
        2.20893         93.6161         9.59712 
        2.21508         93.0662         9.53236 
        2.22122         92.5849         9.46817 
        2.22736         92.2982         9.40471 
        2.23349         91.6247         9.34185 
        2.23962         91.1945         9.27953 
        2.24577          90.786         9.21772 
         2.2519         90.2336         9.15656 
        2.25802         89.7475         9.09606 
        2.26417          89.288         9.03593 
        2.27031         88.7334         8.97629 
        2.27644         88.4152         8.91737 
        2.28257         87.9301         8.85897 
        2.28872         87.5294         8.80099 
        2.29486         87.2978         8.74354 
        2.30099         86.4674         8.68672 
        2.30712         86.2548         8.63038 
        2.31326         85.8266         8.57445 
         2.3194         85.2039         8.51904 
        2.32553         84.7883         8.46422 
        2.33166         84.3045          8.4099 
         2.3378         84.1791         8.35599 
        2.34394         83.6513         8.30253 
        2.35007         82.9892         8.24962 
        2.35619         82.7403         8.19723 
        2.36233         82.3484         8.14517 
        2.36848         81.8225         8.09346 
        2.37462         81.4369         8.04231 
        2.38075         81.0156         7.99164 
        2.38689         80.6758         7.94137 
        2.39303         80.2709         7.89155 
        2.39916         79.8437          7.8422 
        2.40529         79.5169         7.79327 
        2.41143         79.0963         7.74473 
        2.41757         78.6097         7.69658 
         2.4237         78.1637         7.64893 
        2.42983         77.8037         7.60169 
        2.43598         77.5654         7.55472 
        2.44211         77.0008         7.50823 
        2.44823         76.7883         7.46223 
        2.45437          76.343         7.41649 
        2.46052          75.911          7.3711 
        2.46665         75.3825         7.32616 
        2.47279         75.1311         7.28162 
        2.47892         74.7332         7.23741 
        2.48507         74.3784         7.19354 
         2.4912         73.9762         7.15011 
