# k  (h/Mpc)    Pcb(k)  (Mpc/h)^3    Pcb_linear(k)  (Mpc/h)^3
     0.00783031         207.704         209.372 
       0.013688         262.118         264.117 
       0.019231         270.749         271.508 
      0.0249154         254.093         254.333 
      0.0312784         222.769         222.829 
      0.0375637          191.21          191.24 
      0.0433917         167.474         167.117 
      0.0492413         149.327         149.252 
      0.0555754          136.33         135.948 
      0.0619321         126.085         126.447 
       0.067871         118.729         118.725 
      0.0738098         110.524         110.535 
      0.0800417         100.918         100.799 
      0.0862327         90.3558         90.3504 
      0.0921407         80.6034         80.5662 
      0.0982031         71.8592         71.6669 
       0.104506         64.2651         64.2844 
       0.110769         58.9668         58.9589 
       0.116806         55.5699         55.4015 
       0.122832         52.8321          52.829 
       0.129052         50.6401         50.5468 
       0.135211         48.2622         48.1267 
       0.141259         45.3668         45.3312 
       0.147318         42.0829         42.1374 
       0.153489         38.7752         38.7213 
       0.159709         35.5597         35.4449 
       0.165845         32.6149         32.6498 
       0.171974          30.587         30.4282 
       0.178125         28.8926         28.7581 
       0.184229         27.5888         27.5266 
        0.19034          26.685         26.5306 
       0.196428         25.6976         25.5869 
       0.202534         24.5483         24.5522 
       0.208729         23.4505         23.3559 
       0.214876         22.2062         22.0515 
       0.220989         20.7737         20.7221 
       0.227147          19.633         19.4513 
        0.23329         18.5287         18.3318 
       0.239377         17.6129         17.4069 
       0.245482         16.8568         16.6564 
       0.251667         16.1703         16.0348 
       0.257832         15.6946         15.4945 
       0.263955         15.1221         14.9777 
       0.270079         14.5839         14.4393 
        0.27624         13.9643         13.8609 
       0.282372         13.3708         13.2564 
        0.28843         12.8406         12.6559 
       0.294538         12.2488         12.0763 
       0.300721         11.6713          11.541 
        0.30691         11.2615         11.0691 
       0.313033         10.8372          10.664 
       0.319153         10.5426         10.3087 
       0.325316         10.1262         9.98234 
        0.33145         9.80993         9.67116 
       0.337538         9.52056         9.36276 
       0.343633         9.22931          9.0486 
       0.349808          8.8866         8.72666 
       0.355968         8.56595         8.40805 
       0.362074         8.28951         8.10399 
       0.368217         7.99334         7.81665 
       0.374374         7.76481         7.55204 
       0.380519         7.48619          7.3111 
       0.386598         7.25064         7.09217 
       0.392688         7.03807         6.88747 
        0.39888         6.85431         6.68814 
       0.405048         6.66577         6.49429 
       0.411186         6.46945         6.30382 
       0.417313          6.2851         6.11542 
       0.423458          6.0778         5.93029 
       0.429607         5.92814         5.75102 
       0.435692         5.76625         5.58144 
       0.441815         5.58513          5.4202 
       0.447964         5.41624         5.26808 
       0.454126         5.29366          5.1243 
       0.460267         5.17723         4.98835 
       0.466387         5.03512         4.85853 
        0.47254         4.91598         4.73199 
       0.478662          4.7846         4.60906 
       0.484765         4.66829         4.48942 
       0.490885         4.53974         4.37248 
       0.497035         4.41149         4.25836 
       0.503198         4.31626         4.14809 
       0.509342         4.19716         4.04276 
       0.515458         4.10861         3.94249 
       0.521598          4.0139         3.84608 
       0.527764         3.93282         3.75315 
       0.533884         3.81887         3.66434 
           0.54         3.74192         3.57852 
       0.546137         3.64554         3.49484 
       0.552299         3.56945           3.413 
       0.558452         3.48959         3.33354 
       0.564573         3.41661         3.25683 
       0.570708         3.34151         3.18236 
       0.576825          3.2687         3.11054 
       0.582926         3.19205         3.04131 
       0.589034         3.13555         2.97435 
       0.595184         3.07528         2.90924 
       0.601379         3.00126         2.84584 
       0.607522         2.93662         2.78489 
       0.613639         2.86849         2.72592 
       0.619772         2.82223         2.66838 
       0.625918         2.76452         2.61229 
       0.632068         2.70995         2.55774 
       0.638161         2.65583         2.50523 
         0.6443         2.60156         2.45386 
       0.650464         2.55006         2.40381 
       0.656582         2.51051         2.35556 
       0.662703         2.46069         2.30868 
       0.668861         2.40168         2.26284 
       0.675024         2.36024         2.21826 
       0.681124         2.33739         2.17535 
       0.687237         2.28217         2.13351 
       0.693381         2.22924         2.09258 
       0.699536          2.2031         2.05265 
       0.705665         2.16186         2.01392 
       0.711789         2.11481         1.97622 
       0.717957         2.07881         1.93922 
        0.72409          2.0427          1.9034 
       0.730186         2.01591         1.86871 
       0.736317         1.97266         1.83472 
       0.742472         1.94469         1.80148 
       0.748622         1.91357         1.76912 
        0.75476         1.87282         1.73764 
       0.760888         1.84933         1.70698 
       0.767043         1.80174         1.67695 
       0.773185         1.78012         1.64771 
       0.779291         1.75981         1.61934 
       0.785407         1.72709         1.59159 
       0.791564         1.69834         1.56433 
       0.797719         1.66937         1.53773 
       0.803834         1.64238         1.51191 
       0.809972         1.61743         1.48661 
       0.816124         1.59215         1.46184 
       0.822261         1.56834         1.43771 
       0.828378          1.5415         1.41421 
       0.834502         1.51808         1.39122 
       0.840667         1.49837          1.3686 
       0.846816         1.47406         1.34655 
       0.852925         1.44795         1.32513 
       0.859047         1.42756         1.30414 
       0.865192         1.40754         1.28354 
       0.871341         1.38845         1.26337 
       0.877463         1.36312         1.24373 
       0.883569         1.34458         1.22457 
       0.889708         1.32841         1.20571 
       0.895864         1.30923         1.18721 
       0.902008         1.28685         1.16914 
       0.908149         1.27084         1.15146 
       0.914301          1.2559         1.13412 
       0.920448         1.23816         1.11716 
       0.926574         1.22366          1.1006 
       0.932687         1.20513         1.08443 
       0.938823         1.18376         1.06852 
       0.944975         1.17134         1.05289 
       0.951105         1.15005         1.03764 
       0.957225         1.13582         1.02273 
       0.963368         1.12326         1.00805 
       0.969511         1.10995        0.993669 
       0.975621         1.09253        0.979648 
       0.981748         1.07376        0.965864 
       0.987916         1.06168        0.952261 
        0.99406         1.05077        0.938975 
        1.00019         1.03587        0.925971 
        1.00632         1.02603        0.913227 
        1.01246         1.01136        0.900708 
        1.01859        0.999025        0.888445 
        1.02471        0.982531        0.876429 
        1.03085        0.969806        0.864596 
        1.03698        0.960671        0.853008 
        1.04314         0.94843        0.841586 
        1.04929        0.939083        0.830402 
        1.05541        0.922959        0.819468 
        1.06154        0.914463        0.808705 
        1.06769        0.903864        0.798122 
        1.07382        0.892363        0.787765 
        1.07993        0.881822        0.777616 
        1.08607        0.871303        0.767607 
        1.09222        0.859256        0.757765 
        1.09836        0.850694        0.748108 
        1.10449        0.838721        0.738633 
        1.11063        0.828537        0.729312 
        1.11677         0.82134        0.720157 
         1.1229        0.808296        0.711176 
        1.12903        0.801769        0.702342 
        1.13518        0.791192        0.693652 
        1.14131        0.783557        0.685114 
        1.14745        0.776471        0.676727 
        1.15359        0.765549        0.668479 
        1.15973        0.757973        0.660367 
        1.16584        0.748053        0.652427 
        1.17197        0.739101        0.644607 
        1.17811        0.730563        0.636893 
        1.18424         0.72275        0.629328 
        1.19038        0.713856        0.621866 
        1.19652        0.708996        0.614528 
        1.20267        0.701664         0.60731 
        1.20881        0.690654         0.60021 
        1.21495        0.684706        0.593236 
        1.22108        0.678033        0.586375 
         1.2272        0.668905        0.579639 
        1.23334        0.662649        0.572995 
        1.23949        0.657277         0.56644 
        1.24562         0.64967        0.560007 
        1.25174        0.642773        0.553684 
        1.25789        0.634182        0.547441 
        1.26402           0.629        0.541306 
        1.27014        0.620759         0.53528 
        1.27628        0.616239        0.529329 
        1.28244        0.610084        0.523458 
        1.28858        0.602264        0.517684 
        1.29471        0.596686        0.512011 
        1.30084        0.590778        0.506429 
        1.30697        0.586497        0.500922 
        1.31312        0.580246         0.49549 
        1.31925         0.57388        0.490156 
        1.32537        0.568555        0.484906 
        1.33151         0.56245        0.479715 
        1.33765        0.556875        0.474604 
        1.34378        0.550194        0.469578 
        1.34992        0.547442        0.464622 
        1.35606        0.540498        0.459727 
         1.3622        0.535844        0.454912 
        1.36833        0.531622        0.450178 
        1.37445        0.526583        0.445514 
        1.38059         0.52112        0.440902 
        1.38675        0.515374        0.436345 
        1.39288        0.509766        0.431871 
        1.39901        0.506661        0.427462 
        1.40515        0.501148        0.423105 
         1.4113        0.498069        0.418811 
        1.41742        0.492586        0.414593 
        1.42355        0.486093        0.410426 
         1.4297         0.48413        0.406304 
        1.43585        0.478194         0.40224 
        1.44198        0.474722        0.398248 
        1.44809        0.469488        0.394319 
        1.45423         0.46617        0.390428 
        1.46036        0.461614        0.386597 
        1.46649        0.457348        0.382816 
        1.47263        0.452162        0.379084 
        1.47877        0.450853        0.375403 
        1.48491        0.444167        0.371765 
        1.49104        0.442795        0.368184 
        1.49718        0.437408        0.364648 
        1.50333        0.434312        0.361153 
        1.50947        0.430828        0.357711 
         1.5156         0.42643        0.354319 
        1.52172        0.423271        0.350972 
        1.52787        0.418123        0.347662 
          1.534        0.415988        0.344398 
        1.54013        0.412383         0.34118 
        1.54627        0.408949        0.337998 
        1.55241        0.405022        0.334856 
        1.55855        0.401795        0.331759 
        1.56467        0.398669         0.32871 
         1.5708        0.394751         0.32569 
        1.57695        0.391504        0.322705 
        1.58308        0.387044        0.319763 
        1.58922        0.385493        0.316857 
        1.59535        0.381468        0.313988 
         1.6015        0.378745         0.31115 
        1.60764        0.375396         0.30835 
        1.61376        0.372401        0.305591 
        1.61989        0.369087        0.302864 
        1.62604        0.365951        0.300165 
        1.63218        0.363981          0.2975 
        1.63831        0.360215        0.294875 
        1.64444        0.357797         0.29228 
        1.65059        0.354117         0.28971 
        1.65673          0.3517        0.287174 
        1.66285        0.349511        0.284676 
        1.66898        0.346235        0.282206 
        1.67512        0.343282        0.279762 
        1.68127         0.34034        0.277344 
         1.6874        0.338257        0.274961 
        1.69353        0.335383        0.272607 
        1.69967        0.332503        0.270276 
        1.70581        0.330775        0.267972 
        1.71193        0.328389        0.265705 
        1.71806         0.32541        0.263459 
        1.72421        0.322783        0.261235 
        1.73035        0.320013        0.259039 
        1.73649        0.318502        0.256869 
        1.74262        0.315073        0.254725 
        1.74876        0.313535        0.252605 
        1.75489        0.311121        0.250514 
        1.76101        0.308382        0.248447 
        1.76715        0.306431        0.246401 
        1.77329        0.303723        0.244375 
        1.77943         0.30138        0.242371 
        1.78557        0.300114        0.240393 
        1.79171        0.297736        0.238437 
        1.79785        0.295016        0.236502 
        1.80399        0.292288         0.23459 
        1.81012        0.291056        0.232701 
        1.81625         0.28921        0.230834 
        1.82239        0.287419        0.228985 
        1.82853        0.284553        0.227156 
        1.83466          0.2824         0.22535 
        1.84078        0.280465        0.223566 
        1.84692        0.278535        0.221797 
        1.85306        0.276795        0.220046 
         1.8592        0.274723        0.218317 
        1.86533        0.273032        0.216607 
        1.87147        0.270691        0.214914 
        1.87761        0.268786        0.213238 
        1.88375        0.266775        0.211582 
        1.88988        0.264873        0.209946 
        1.89601        0.262518        0.208326 
        1.90215        0.261221        0.206722 
        1.90829         0.25904        0.205136 
        1.91442        0.257973        0.203566 
        1.92056        0.256509        0.202014 
         1.9267        0.254246        0.200477 
        1.93284        0.252071        0.198956 
        1.93897        0.250727        0.197452 
        1.94509        0.249159        0.195968 
        1.95123        0.247082        0.194495 
        1.95737        0.245722        0.193037 
        1.96349        0.243927        0.191597 
        1.96964        0.242183        0.190168 
        1.97578        0.240473        0.188753 
        1.98192         0.23942        0.187355 
        1.98805        0.237879        0.185971 
        1.99419        0.236582        0.184602 
        2.00033        0.234527        0.183245 
        2.00647        0.232991        0.181903 
         2.0126        0.231645        0.180576 
        2.01874        0.230245         0.17926 
        2.02488        0.228693        0.177957 
        2.03101        0.226808        0.176669 
        2.03714         0.22628        0.175395 
        2.04328        0.223831        0.174133 
        2.04941         0.22308        0.172883 
        2.05554        0.221598        0.171647 
        2.06167        0.220069        0.170422 
        2.06781        0.217993        0.169208 
        2.07396        0.217267        0.168005 
        2.08009        0.215756        0.166815 
        2.08622        0.214646        0.165638 
        2.09237         0.21312        0.164471 
        2.09851        0.211462        0.163314 
        2.10464        0.210402        0.162171 
        2.11077        0.208884         0.16104 
        2.11691         0.20789        0.159917 
        2.12305        0.206094        0.158805 
        2.12918        0.204928        0.157706 
        2.13531        0.203908        0.156618 
        2.14145        0.202563        0.155537 
         2.1476        0.201471        0.154466 
        2.15372        0.200302         0.15341 
        2.15985         0.19881        0.152362 
        2.16599        0.197471        0.151322 
        2.17213         0.19675        0.150293 
        2.17827        0.195333        0.149273 
         2.1844        0.194293        0.148264 
        2.19054        0.193278        0.147263 
        2.19666        0.192094        0.146274 
         2.2028        0.190403        0.145293 
        2.20893        0.189663         0.14432 
        2.21508         0.18852        0.143355 
        2.22122        0.187567        0.142399 
        2.22736        0.186174        0.141453 
        2.23349        0.184969        0.140517 
        2.23962        0.184095        0.139588 
        2.24577        0.183169        0.138667 
         2.2519        0.181985        0.137755 
        2.25802        0.180878        0.136854 
        2.26417        0.180113        0.135958 
        2.27031        0.178763        0.135069 
        2.27644        0.178354         0.13419 
        2.28257        0.176878         0.13332 
        2.28872        0.175864        0.132456 
        2.29486        0.174961        0.131599 
        2.30099        0.173744        0.130752 
        2.30712        0.172911        0.129912 
        2.31326        0.171695        0.129078 
         2.3194        0.171019        0.128252 
        2.32553        0.170152        0.127434 
        2.33166        0.169031        0.126624 
         2.3378        0.168073         0.12582 
        2.34394        0.167202        0.125023 
        2.35007        0.166283        0.124234 
        2.35619        0.165594        0.123452 
        2.36233        0.164332        0.122676 
        2.36848        0.163608        0.121905 
        2.37462        0.162958        0.121141 
        2.38075        0.161873        0.120386 
        2.38689        0.161067        0.119636 
        2.39303        0.160223        0.118892 
        2.39916        0.159155        0.118156 
        2.40529        0.158324        0.117426 
        2.41143        0.157194        0.116702 
        2.41757        0.156559        0.115983 
         2.4237        0.155854        0.115272 
        2.42983        0.155202        0.114567 
        2.43598        0.154073        0.113866 
        2.44211        0.152883        0.113172 
        2.44823        0.152671        0.112486 
        2.45437        0.151775        0.111803 
        2.46052        0.150943        0.111125 
        2.46665        0.150058        0.110455 
        2.47279        0.149215         0.10979 
        2.47892        0.148911         0.10913 
        2.48507        0.147655        0.108475 
         2.4912        0.147154        0.107826 
