# k  (h/Mpc)    Pcb(k)  (Mpc/h)^3    Pcb_linear(k)  (Mpc/h)^3
     0.00783031         573.743         578.172 
       0.013688         722.617         729.169 
       0.019231         746.805         749.507 
      0.0249154         701.838         702.064 
      0.0312784         614.708         615.082 
      0.0375637         527.231         527.877 
      0.0433917         462.292         461.286 
      0.0492413         411.858         411.971 
      0.0555754         376.458         375.249 
      0.0619321         347.184         349.022 
       0.067871         327.528         327.708 
      0.0738098         304.996         305.099 
      0.0800417          278.66         278.226 
      0.0862327         249.301         249.385 
      0.0921407         222.413         222.379 
      0.0982031         198.523         197.814 
       0.104506         177.234         177.437 
       0.110769         162.707         162.738 
       0.116806         153.663         152.918 
       0.122832         145.844         145.818 
       0.129052         139.931         139.519 
       0.135211         133.515         132.839 
       0.141259         125.355         125.122 
       0.147318         116.115         116.307 
       0.153489         107.143         106.878 
       0.159709         98.4482         97.8342 
       0.165845         90.0603         90.1194 
       0.171974         84.8414         83.9872 
       0.178125         80.1578         79.3773 
       0.184229         76.4014         75.9782 
        0.19034         74.0573         73.2293 
       0.196428         71.3118         70.6243 
       0.202534         67.9103         67.7684 
       0.208729         65.0786         64.4666 
       0.214876         61.7545         60.8659 
       0.220989         57.6001         57.1966 
       0.227147         54.7049          53.689 
        0.23329         51.7077         50.5991 
       0.239377         49.2466         48.0461 
       0.245482          47.084         45.9746 
       0.251667         45.1129          44.259 
       0.257832         43.9553         42.7675 
       0.263955         42.2228          41.341 
       0.270079         40.7317          39.855 
        0.27624         38.9658         38.2585 
       0.282372         37.3614         36.5899 
        0.28843         36.0605         34.9326 
       0.294538         34.3946         33.3328 
       0.300721         32.7377         31.8551 
        0.30691         31.7148         30.5527 
       0.313033         30.4995         29.4346 
       0.319153           29.78         28.4538 
       0.325316         28.5129          27.553 
        0.33145         27.6127         26.6941 
       0.337538         26.8273         25.8428 
       0.343633         26.0552         24.9757 
       0.349808         25.0906         24.0871 
       0.355968         24.2023         23.2077 
       0.362074         23.5164         22.3684 
       0.368217         22.6848         21.5753 
       0.374374         22.1058         20.8449 
       0.380519         21.2551         20.1799 
       0.386598         20.5888         19.5756 
       0.392688          19.991         19.0106 
        0.39888         19.5231         18.4604 
       0.405048         19.0163         17.9254 
       0.411186          18.464         17.3996 
       0.417313         17.9409         16.8796 
       0.423458         17.3464         16.3686 
       0.429607          16.983         15.8738 
       0.435692          16.572         15.4057 
       0.441815         16.0014         14.9607 
       0.447964          15.516         14.5408 
       0.454126         15.2088          14.144 
       0.460267         14.9437         13.7687 
       0.466387         14.5138         13.4104 
        0.47254          14.216         13.0611 
       0.478662         13.8214         12.7218 
       0.484765         13.4979         12.3916 
       0.490885          13.114         12.0688 
       0.497035         12.7744         11.7538 
       0.503198         12.5194         11.4494 
       0.509342         12.1665         11.1587 
       0.515458         11.9525          10.882 
       0.521598         11.6844         10.6158 
       0.527764         11.4783         10.3593 
       0.533884         11.1334         10.1142 
           0.54         10.9318         9.87734 
       0.546137         10.6289         9.64636 
       0.552299         10.4265         9.42046 
       0.558452         10.1989         9.20114 
       0.564573         10.0208         8.98941 
       0.570708          9.8019         8.78385 
       0.576825         9.60279         8.58563 
       0.582926         9.39124         8.39453 
       0.589034          9.2235         8.20972 
       0.595184         9.08043         8.03001 
       0.601379         8.84873           7.855 
       0.607522         8.67436         7.68677 
       0.613639         8.47849           7.524 
       0.619772         8.35334          7.3652 
       0.625918         8.18406         7.21038 
       0.632068         8.05435         7.05979 
       0.638161         7.89572         6.91487 
         0.6443          7.7397         6.77308 
       0.650464         7.57106         6.63493 
       0.656582         7.49188         6.50176 
       0.662703         7.36191         6.37234 
       0.668861         7.17139         6.24584 
       0.675024         7.05406         6.12277 
       0.681124         7.02385         6.00435 
       0.687237         6.85707         5.88886 
       0.693381         6.68467         5.77589 
       0.699536         6.63272         5.66566 
       0.705665         6.51135         5.55876 
       0.711789         6.37068          5.4547 
       0.717957         6.25447         5.35259 
        0.72409         6.17346          5.2537 
       0.730186         6.11295         5.15796 
       0.736317         5.97655         5.06416 
       0.742472         5.90171         4.97241 
       0.748622         5.81299         4.88308 
        0.75476         5.67465         4.79618 
       0.760888         5.62208         4.71157 
       0.767043         5.48494         4.62868 
       0.773185         5.42299         4.54797 
       0.779291         5.38454         4.46965 
       0.785407         5.27837         4.39307 
       0.791564         5.20264         4.31782 
       0.797719         5.11296         4.24439 
       0.803834         5.04724         4.17314 
       0.809972         4.96377         4.10331 
       0.816124         4.89813         4.03494 
       0.822261         4.82971         3.96833 
       0.828378         4.75292         3.90346 
       0.834502         4.69017            3.84 
       0.840667         4.63875         3.77756 
       0.846816         4.55405          3.7167 
       0.852925         4.49047         3.65758 
       0.859047         4.43029         3.59964 
       0.865192         4.37061         3.54278 
       0.871341          4.3116         3.48712 
       0.877463         4.24474         3.43292 
       0.883569         4.19477         3.38002 
       0.889708         4.14338         3.32798 
       0.895864         4.08875         3.27691 
       0.902008         4.02251         3.22703 
       0.908149         3.97367         3.17823 
       0.914301         3.93129         3.13037 
       0.920448         3.88265         3.08355 
       0.926574          3.8511         3.03786 
       0.932687         3.78865          2.9932 
       0.938823         3.72351         2.94929 
       0.944975         3.69403         2.90617 
       0.951105         3.62538         2.86408 
       0.957225         3.59605          2.8229 
       0.963368          3.5591          2.7824 
       0.969511         3.51787          2.7427 
       0.975621          3.4665           2.704 
       0.981748          3.4047         2.66595 
       0.987916          3.3747          2.6284 
        0.99406         3.34989         2.59173 
        1.00019         3.30697         2.55584 
        1.00632         3.27498         2.52066 
        1.01246          3.2275         2.48611 
        1.01859         3.19244         2.45226 
        1.02471         3.14103         2.41909 
        1.03085         3.11438         2.38643 
        1.03698         3.08357         2.35445 
        1.04314         3.05141         2.32292 
        1.04929         3.01628         2.29205 
        1.05541          2.9726         2.26187 
        1.06154         2.95127         2.23217 
        1.06769         2.92744         2.20295 
        1.07382         2.88267         2.17437 
        1.07993         2.84665         2.14635 
        1.08607         2.82582         2.11873 
        1.09222         2.78561         2.09156 
        1.09836         2.77352         2.06491 
        1.10449         2.72076         2.03875 
        1.11063         2.69818         2.01303 
        1.11677         2.67639         1.98776 
         1.1229          2.6388         1.96297 
        1.12903         2.62334         1.93858 
        1.13518         2.58597          1.9146 
        1.14131          2.5634         1.89103 
        1.14745         2.53529         1.86788 
        1.15359          2.5103         1.84512 
        1.15973         2.48316         1.82273 
        1.16584         2.45741         1.80081 
        1.17197            2.43         1.77923 
        1.17811          2.4062         1.75793 
        1.18424         2.38163         1.73705 
        1.19038         2.35807         1.71646 
        1.19652         2.34097          1.6962 
        1.20267         2.32178         1.67628 
        1.20881         2.29307         1.65668 
        1.21495          2.2725         1.63743 
        1.22108         2.25321         1.61849 
         1.2272         2.22124          1.5999 
        1.23334         2.20993         1.58156 
        1.23949         2.18775         1.56347 
        1.24562          2.1679         1.54572 
        1.25174         2.14958         1.52826 
        1.25789         2.12214         1.51103 
        1.26402         2.10093          1.4941 
        1.27014         2.08035         1.47746 
        1.27628         2.06562         1.46104 
        1.28244         2.04829         1.44483 
        1.28858         2.02691          1.4289 
        1.29471         2.00429         1.41324 
        1.30084         1.99058         1.39783 
        1.30697         1.97719         1.38263 
        1.31312         1.95796         1.36764 
        1.31925         1.94012         1.35291 
        1.32537         1.92549         1.33842 
        1.33151         1.90424          1.3241 
        1.33765         1.88983         1.30999 
        1.34378         1.87244         1.29612 
        1.34992         1.85969         1.28244 
        1.35606         1.84086         1.26893 
         1.3622         1.82776         1.25564 
        1.36833         1.80866         1.24257 
        1.37445         1.79303         1.22969 
        1.38059         1.77887         1.21697 
        1.38675         1.76363         1.20439 
        1.39288         1.75143         1.19204 
        1.39901         1.73458         1.17987 
        1.40515         1.71905         1.16784 
         1.4113         1.71107         1.15599 
        1.41742         1.69012         1.14435 
        1.42355         1.67438         1.13285 
         1.4297         1.66703         1.12147 
        1.43585         1.65069         1.11025 
        1.44198         1.63867         1.09923 
        1.44809          1.6256         1.08839 
        1.45423         1.61379         1.07765 
        1.46036         1.60083         1.06707 
        1.46649         1.58185         1.05664 
        1.47263         1.57559         1.04634 
        1.47877         1.56798         1.03618 
        1.48491         1.54632         1.02614 
        1.49104         1.53908         1.01625 
        1.49718         1.52446         1.00649 
        1.50333         1.51385        0.996844 
        1.50947         1.50475        0.987343 
         1.5156         1.49133        0.977982 
        1.52172         1.48147        0.968743 
        1.52787         1.46832        0.959606 
          1.534         1.46095        0.950598 
        1.54013         1.44727        0.941716 
        1.54627         1.43661        0.932933 
        1.55241          1.4233        0.924261 
        1.55855         1.41493        0.915711 
        1.56467         1.40443        0.907295 
         1.5708         1.39408        0.898961 
        1.57695          1.3817         0.89072 
        1.58308         1.36959        0.882601 
        1.58922          1.3653        0.874579 
        1.59535         1.35048         0.86666 
         1.6015         1.34047        0.858828 
        1.60764         1.33311        0.851097 
        1.61376         1.32174        0.843484 
        1.61989          1.3142        0.835958 
        1.62604         1.30054        0.828507 
        1.63218         1.29733        0.821152 
        1.63831          1.2855        0.813904 
        1.64444         1.27627        0.806741 
        1.65059         1.26937        0.799648 
        1.65673         1.25733        0.792649 
        1.66285          1.2497        0.785753 
        1.66898         1.24317        0.778938 
        1.67512         1.22999        0.772191 
        1.68127         1.22169        0.765518 
         1.6874         1.21787        0.758939 
        1.69353         1.20626        0.752442 
        1.69967         1.19945        0.746007 
        1.70581         1.19406        0.739649 
        1.71193         1.18146        0.733391 
        1.71806         1.17544        0.727191 
        1.72421          1.1685        0.721052 
        1.73035          1.1556        0.714991 
        1.73649         1.15548        0.709002 
        1.74262         1.14329        0.703086 
        1.74876         1.13623        0.697234 
        1.75489         1.13005        0.691461 
        1.76101         1.11951        0.685756 
        1.76715         1.11404        0.680108 
        1.77329         1.10777        0.674517 
        1.77943         1.10001        0.668986 
        1.78557         1.09557        0.663527 
        1.79171         1.08801        0.658127 
        1.79785         1.08002        0.652787 
        1.80399         1.07113        0.647508 
        1.81012         1.06563        0.642294 
        1.81625         1.05811        0.637141 
        1.82239         1.05258        0.632036 
        1.82853         1.04544         0.62699 
        1.83466         1.03785        0.622005 
        1.84078         1.03083        0.617079 
        1.84692         1.02602        0.612199 
        1.85306          1.0216        0.607366 
         1.8592         1.01224        0.602592 
        1.86533         1.00777        0.597873 
        1.87147        0.998016          0.5932 
        1.87761        0.994489        0.588574 
        1.88375        0.988213        0.584004 
        1.88988        0.980997        0.579487 
        1.89601        0.975209        0.575016 
        1.90215        0.970589        0.570588 
        1.90829        0.964208         0.56621 
        1.91442        0.958148        0.561877 
        1.92056        0.954806        0.557594 
         1.9267        0.947449        0.553352 
        1.93284        0.940626        0.549151 
        1.93897        0.935807        0.545002 
        1.94509        0.932026        0.540905 
        1.95123        0.923551        0.536841 
        1.95737        0.919286        0.532815 
        1.96349        0.913684        0.528841 
        1.96964        0.910128        0.524896 
        1.97578        0.901566         0.52099 
        1.98192        0.897678        0.517132 
        1.98805        0.892986        0.513313 
        1.99419        0.888482        0.509532 
        2.00033        0.883561        0.505787 
        2.00647        0.878603        0.502082 
         2.0126        0.874508         0.49842 
        2.01874        0.868871        0.494789 
        2.02488        0.861912        0.491192 
        2.03101        0.857731        0.487637 
        2.03714        0.854708        0.484121 
        2.04328        0.848135        0.480635 
        2.04941        0.843645        0.477187 
        2.05554        0.839391        0.473776 
        2.06167        0.834869        0.470393 
        2.06781        0.827853        0.467043 
        2.07396        0.826432        0.463722 
        2.08009        0.820518        0.460438 
        2.08622        0.816253         0.45719 
        2.09237        0.812064        0.453967 
        2.09851        0.806491        0.450775 
        2.10464         0.80378        0.447619 
        2.11077        0.796796        0.444497 
        2.11691        0.793686        0.441398 
        2.12305        0.791324        0.438329 
        2.12918        0.785034        0.435296 
        2.13531        0.781105        0.432292 
        2.14145        0.776646         0.42931 
         2.1476        0.773994        0.426352 
        2.15372        0.768991        0.423437 
        2.15985        0.764517        0.420546 
        2.16599        0.761725        0.417674 
        2.17213        0.757043        0.414833 
        2.17827        0.751632        0.412018 
         2.1844        0.749669        0.409233 
        2.19054        0.745526        0.406472 
        2.19666        0.742013        0.403741 
         2.2028        0.737194        0.401032 
        2.20893         0.73418        0.398347 
        2.21508         0.72997        0.395684 
        2.22122        0.727384        0.393045 
        2.22736        0.720605        0.390435 
        2.23349        0.717381         0.38785 
        2.23962        0.715158        0.385286 
        2.24577        0.711336        0.382744 
         2.2519        0.707775        0.380228 
        2.25802        0.705369        0.377739 
        2.26417        0.699949        0.375266 
        2.27031        0.697263        0.372812 
        2.27644        0.695229        0.370388 
        2.28257        0.689357        0.367986 
        2.28872         0.68796          0.3656 
        2.29486        0.682991        0.363236 
        2.30099        0.680487        0.360898 
        2.30712         0.67695        0.358579 
        2.31326        0.673848        0.356277 
         2.3194        0.671024        0.353997 
        2.32553        0.666619         0.35174 
        2.33166        0.664881        0.349505 
         2.3378        0.660785        0.347285 
        2.34394        0.657616        0.345085 
        2.35007        0.653064        0.342906 
        2.35619        0.649572         0.34075 
        2.36233        0.647174        0.338606 
        2.36848        0.645545        0.336477 
        2.37462        0.642418        0.334371 
        2.38075        0.638239        0.332285 
        2.38689        0.636213        0.330215 
        2.39303        0.632578        0.328163 
        2.39916        0.629601        0.326131 
        2.40529        0.628171        0.324116 
        2.41143        0.622965        0.322117 
        2.41757         0.62114        0.320134 
         2.4237        0.618088        0.318171 
        2.42983        0.614962        0.316225 
        2.43598        0.612507         0.31429 
        2.44211        0.608725        0.312375 
        2.44823        0.607065         0.31048 
        2.45437        0.604625        0.308595 
        2.46052        0.601899        0.306725 
        2.46665        0.598425        0.304873 
        2.47279        0.595786        0.303038 
        2.47892        0.593286        0.301216 
        2.48507          0.5914        0.299408 
         2.4912        0.587836        0.297618 
