# k  (h/Mpc)    P(k)  (Mpc/h)^3    P_linear(k)  (Mpc/h)^3
     0.00783031         1000.78         1011.81 
       0.013688         1279.85         1282.16 
       0.019231         1334.37         1334.98 
      0.0249154         1267.62         1275.24 
      0.0312784         1146.87         1148.73 
      0.0375637         1017.36         1015.64 
      0.0433917         907.442         909.712 
      0.0492413         826.945         826.762 
      0.0555754         755.273         759.141 
      0.0619321         707.347         704.733 
       0.067871         654.784         657.326 
      0.0738098         605.243         608.083 
      0.0800417         549.315         553.463 
      0.0862327         497.013         498.917 
      0.0921407         450.033          450.53 
      0.0982031         406.441         407.912 
       0.104506          374.42         372.716 
       0.110769         347.517         346.275 
       0.116806         325.918         326.648 
       0.122832         310.732         310.054 
       0.129052         292.472         293.522 
       0.135211         275.093         276.188 
       0.141259         258.353         257.983 
       0.147318         240.826         239.337 
       0.153489         221.918         221.193 
       0.159709         206.192         204.962 
       0.165845          194.57         191.609 
       0.171974         182.305          180.89 
       0.178125         173.886         172.206 
       0.184229         166.955          164.82 
        0.19034         158.242         157.844 
       0.196428         152.404         150.743 
       0.202534         146.142         143.259 
       0.208729         137.702         135.427 
       0.214876         129.362          127.77 
       0.220989         123.788         120.655 
       0.227147         116.132         114.273 
        0.23329         110.827          108.79 
       0.239377         106.657         104.144 
       0.245482         101.657         100.062 
       0.251667         98.8989         96.2607 
       0.257832         95.1048         92.5811 
       0.263955         91.4432         88.9084 
       0.270079         87.8589         85.1907 
        0.27624         84.9327         81.4737 
       0.282372         81.3179         77.9036 
        0.28843         77.6792         74.6022 
       0.294538         74.6259         71.5649 
       0.300721         72.4871         68.7952 
        0.30691         69.4169         66.2927 
       0.313033         67.2115         64.0107 
       0.319153         64.2261         61.8517 
       0.325316         63.1109         59.7393 
        0.33145         60.7907         57.6713 
       0.337538         58.9779          55.648 
       0.343633         56.8399         53.6744 
       0.349808          55.096          51.755 
       0.355968         53.3578         49.9459 
       0.362074         51.6132         48.2707 
       0.368217         50.0947         46.7003 
       0.374374         48.4532         45.2293 
       0.380519         47.2341          43.841 
       0.386598         45.9532         42.5261 
       0.392688         44.8798         41.2519 
        0.39888         43.5138         39.9904 
       0.405048         42.4228         38.7698 
       0.411186         41.3558         37.5942 
       0.417313         39.9435         36.4659 
       0.423458         38.9389         35.3864 
       0.429607         37.8248         34.3592 
       0.435692         36.7233         33.3932 
       0.441815         35.9866         32.4675 
       0.447964         35.3408         31.5777 
       0.454126         34.0493         30.7191 
       0.460267         33.3463         29.8924 
       0.466387         32.3533         29.0947 
        0.47254         31.8081         28.3172 
       0.478662          31.175         27.5693 
       0.484765         30.2862         26.8506 
       0.490885         29.5609         26.1574 
       0.497035         29.1518         25.4877 
       0.503198         28.3856         24.8432 
       0.509342         27.6899         24.2255 
       0.515458         27.0589         23.6329 
       0.521598         26.5665         23.0577 
       0.527764         25.9575         22.4986 
       0.533884         25.4991         21.9613 
           0.54         24.9541         21.4411 
       0.546137         24.4967         20.9355 
       0.552299         24.0587          20.444 
       0.558452         23.3209         19.9697 
       0.564573         23.0114         19.5136 
       0.570708         22.5891         19.0717 
       0.576825         22.0055         18.6454 
       0.582926          21.635         18.2337 
       0.589034         21.0332         17.8339 
       0.595184         20.7366         17.4435 
       0.601379         20.3236         17.0621 
       0.607522         20.0083          16.695 
       0.613639         19.7684         16.3402 
       0.619772          19.246         15.9949 
       0.625918         19.0942         15.6589 
       0.632068         18.7763         15.3327 
       0.638161         18.3435          15.019 
         0.6443         17.9713         14.7121 
       0.650464         17.6291         14.4128 
       0.656582         17.4923         14.1241 
       0.662703          17.171         13.8433 
       0.668861         16.8589         13.5685 
       0.675024         16.5346          13.301 
       0.681124         16.2523         13.0434 
       0.687237         16.0032         12.7921 
       0.693381         15.8087         12.5465 
       0.699536          15.384         12.3069 
       0.705665         15.2432         12.0748 
       0.711789         14.9802         11.8489 
       0.717957         14.7468         11.6273 
        0.72409         14.5062         11.4127 
       0.730186          14.316         11.2049 
       0.736317         14.1602         11.0012 
       0.742472         13.9333         10.8018 
       0.748622         13.7225         10.6075 
        0.75476         13.4376         10.4186 
       0.760888         13.2877         10.2345 
       0.767043         13.1266         10.0542 
       0.773185         12.8639         9.87872 
       0.779291         12.7661         9.70845 
       0.785407         12.5702         9.54198 
       0.791564         12.3631         9.37841 
       0.797719         12.1565         9.21879 
       0.803834         12.0728         9.06394 
       0.809972         11.9531         8.91212 
       0.816124         11.6925         8.76348 
       0.822261         11.5421         8.61866 
       0.828378         11.4055         8.47757 
       0.834502         11.2993         8.33955 
       0.840667         11.1078         8.20374 
       0.846816         10.9218         8.07136 
       0.852925         10.8249         7.94276 
       0.859047          10.691         7.81672 
       0.865192         10.5952         7.69302 
       0.871341         10.4806         7.57195 
       0.877463         10.3164         7.45404 
       0.883569         10.1523         7.33897 
       0.889708         9.99055         7.22576 
       0.895864         9.92177         7.11467 
       0.902008         9.81181         7.00617 
       0.908149         9.70236         6.90001 
       0.914301         9.56749          6.7959 
       0.920448         9.42423         6.69406 
       0.926574         9.31613         6.59467 
       0.932687         9.23616         6.49753 
       0.938823          9.1113         6.40202 
       0.944975          8.9919         6.30822 
       0.951105          8.9133         6.21665 
       0.957225         8.86246         6.12707 
       0.963368         8.73912         6.03897 
       0.969511         8.64416         5.95262 
       0.975621         8.53377         5.86842 
       0.981748         8.44648         5.78566 
       0.987916         8.36742         5.70398 
        0.99406         8.23655          5.6242 
        1.00019         8.11991         5.54611 
        1.00632         8.09671         5.46959 
        1.01246         8.00387         5.39441 
        1.01859         7.89446         5.32078 
        1.02471         7.82368         5.24862 
        1.03085         7.74579         5.17756 
        1.03698          7.6396         5.10797 
        1.04314         7.58364         5.03937 
        1.04929         7.48464         4.97221 
        1.05541         7.40379         4.90654 
        1.06154          7.3429         4.84191 
        1.06769         7.30469         4.77835 
        1.07382           7.188         4.71614 
        1.07993         7.11705          4.6552 
        1.08607         7.07112         4.59508 
        1.09222         6.99836         4.53598 
        1.09836         6.93004         4.47799 
        1.10449         6.85833         4.42108 
        1.11063         6.79589         4.36511 
        1.11677         6.74191         4.31014 
         1.1229         6.67928         4.25621 
        1.12903         6.60779         4.20316 
        1.13518         6.53937         4.15098 
        1.14131         6.46253         4.09972 
        1.14745         6.39073         4.04936 
        1.15359         6.35903         3.99984 
        1.15973         6.29333         3.95113 
        1.16584         6.22397         3.90346 
        1.17197         6.17368         3.85651 
        1.17811         6.13293          3.8102 
        1.18424         6.08657         3.76479 
        1.19038         6.04129         3.71999 
        1.19652          5.9798         3.67594 
        1.20267         5.91272          3.6326 
        1.20881         5.87771         3.58998 
        1.21495         5.82795         3.54812 
        1.22108         5.76568         3.50693 
         1.2272         5.73785          3.4665 
        1.23334         5.66154         3.42662 
        1.23949         5.61405         3.38727 
        1.24562         5.58818         3.34865 
        1.25174         5.52231          3.3107 
        1.25789         5.48588         3.27322 
        1.26402         5.44018          3.2364 
        1.27014         5.39015         3.20023 
        1.27628         5.35316         3.16451 
        1.28244         5.28852         3.12927 
        1.28858         5.27239         3.09461 
        1.29471         5.21571         3.06056 
        1.30084         5.16707         3.02705 
        1.30697         5.16387           2.994 
        1.31312         5.06663          2.9614 
        1.31925         5.04959         2.92938 
        1.32537         5.00717         2.89787 
        1.33151         4.98561         2.86672 
        1.33765         4.92014         2.83604 
        1.34378         4.88592         2.80588 
        1.34992         4.86709         2.77614 
        1.35606         4.80723         2.74676 
         1.3622         4.78753         2.71787 
        1.36833         4.74892         2.68946 
        1.37445          4.7136         2.66147 
        1.38059         4.69159          2.6338 
        1.38675         4.65636         2.60646 
        1.39288         4.61336         2.57962 
        1.39901         4.56871         2.55316 
        1.40515         4.54178         2.52703 
         1.4113         4.51164         2.50126 
        1.41742          4.4817         2.47596 
        1.42355         4.44635         2.45097 
         1.4297         4.40605         2.42624 
        1.43585         4.39102         2.40187 
        1.44198         4.36769         2.37792 
        1.44809         4.31697         2.35435 
        1.45423         4.28609         2.33102 
        1.46036         4.25515         2.30804 
        1.46649         4.22191         2.28537 
        1.47263         4.19194         2.26298 
        1.47877         4.15756          2.2409 
        1.48491         4.13314         2.21909 
        1.49104         4.11255         2.19761 
        1.49718         4.08262          2.1764 
        1.50333          4.0578         2.15544 
        1.50947          4.0285          2.1348 
         1.5156         4.00122         2.11446 
        1.52172         3.97811         2.09439 
        1.52787         3.95237         2.07454 
          1.534         3.92092         2.05497 
        1.54013          3.9007         2.03567 
        1.54627         3.86282         2.01659 
        1.55241         3.83848         1.99775 
        1.55855         3.82406         1.97918 
        1.56467         3.79755          1.9609 
         1.5708         3.76686          1.9428 
        1.57695         3.74103          1.9249 
        1.58308         3.71454         1.90726 
        1.58922         3.70295         1.88984 
        1.59535         3.67707         1.87264 
         1.6015         3.65243         1.85563 
        1.60764         3.62996         1.83884 
        1.61376         3.60828         1.82231 
        1.61989         3.58453         1.80597 
        1.62604         3.55883         1.78979 
        1.63218         3.54881         1.77382 
        1.63831         3.51863         1.75808 
        1.64444         3.49615         1.74253 
        1.65059         3.47274         1.72713 
        1.65673         3.45789         1.71194 
        1.66285         3.42876         1.69697 
        1.66898         3.41425         1.68217 
        1.67512          3.3866         1.66752 
        1.68127          3.3693         1.65304 
         1.6874         3.35768         1.63876 
        1.69353         3.32152         1.62466 
        1.69967         3.30895         1.61069 
        1.70581         3.29701         1.59689 
        1.71193         3.27413          1.5833 
        1.71806         3.25825         1.56985 
        1.72421         3.23786         1.55652 
        1.73035         3.22073         1.54337 
        1.73649          3.1974         1.53037 
        1.74262         3.17811         1.51753 
        1.74876         3.17051         1.50483 
        1.75489         3.14657          1.4923 
        1.76101          3.1232         1.47992 
        1.76715         3.11056         1.46767 
        1.77329         3.09537         1.45553 
        1.77943         3.06802         1.44354 
        1.78557         3.05921         1.43169 
        1.79171         3.04338         1.41997 
        1.79785          3.0215         1.40839 
        1.80399         3.00758         1.39693 
        1.81012         2.99636         1.38562 
        1.81625         2.97362         1.37444 
        1.82239         2.95605         1.36337 
        1.82853         2.93692         1.35242 
        1.83466         2.93097         1.34161 
        1.84078         2.91291         1.33092 
        1.84692         2.89973         1.32034 
        1.85306         2.87655         1.30986 
         1.8592          2.8619          1.2995 
        1.86533         2.84763         1.28927 
        1.87147         2.83803         1.27913 
        1.87761         2.82087          1.2691 
        1.88375         2.80064         1.25919 
        1.88988         2.78934          1.2494 
        1.89601         2.77478          1.2397 
        1.90215          2.7565          1.2301 
        1.90829         2.74115         1.22061 
        1.91442         2.73285         1.21122 
        1.92056         2.71438         1.20193 
         1.9267         2.70521         1.19273 
        1.93284          2.6923         1.18362 
        1.93897         2.67737         1.17463 
        1.94509         2.65826         1.16575 
        1.95123         2.64433         1.15694 
        1.95737         2.63124         1.14821 
        1.96349         2.62153          1.1396 
        1.96964         2.61388         1.13105 
        1.97578         2.59494         1.12258 
        1.98192         2.58432         1.11422 
        1.98805         2.57063         1.10594 
        1.99419         2.55897         1.09774 
        2.00033         2.55285         1.08963 
        2.00647         2.53344          1.0816 
         2.0126         2.52505         1.07366 
        2.01874         2.50519          1.0658 
        2.02488         2.49797           1.058 
        2.03101         2.48018          1.0503 
        2.03714         2.46891         1.04268 
        2.04328         2.46055         1.03512 
        2.04941         2.44231         1.02765 
        2.05554         2.43782         1.02026 
        2.06167         2.42388         1.01293 
        2.06781         2.41649         1.00568 
        2.07396         2.40479        0.998479 
        2.08009         2.39174        0.991365 
        2.08622         2.37635        0.984329 
        2.09237          2.3725        0.977348 
        2.09851           2.359        0.970433 
        2.10464         2.35106        0.963597 
        2.11077         2.33701        0.956835 
        2.11691          2.3257        0.950123 
        2.12305         2.31842        0.943475 
        2.12918         2.30837        0.936907 
        2.13531         2.29773        0.930401 
        2.14145         2.28466        0.923942 
         2.1476         2.27308        0.917537 
        2.15372          2.2631        0.911224 
        2.15985          2.2529        0.904965 
        2.16599         2.24415        0.898747 
        2.17213         2.23115        0.892595 
        2.17827         2.22432        0.886501 
         2.1844         2.21477         0.88047 
        2.19054         2.20686        0.874493 
        2.19666          2.1944         0.86858 
         2.2028         2.18487        0.862716 
        2.20893         2.17486        0.856904 
        2.21508         2.16695         0.85114 
        2.22122         2.15385        0.845426 
        2.22736         2.14388        0.839777 
        2.23349         2.14003        0.834181 
        2.23962         2.12649        0.828633 
        2.24577         2.11863        0.823131 
         2.2519         2.10834        0.817686 
        2.25802         2.10422          0.8123 
        2.26417         2.09298        0.806947 
        2.27031         2.08474        0.801637 
        2.27644         2.07636        0.796391 
        2.28257         2.06565        0.791192 
        2.28872         2.05755         0.78603 
        2.29486          2.0503        0.780915 
        2.30099         2.03969        0.775856 
        2.30712         2.02973        0.770839 
        2.31326         2.02629        0.765859 
         2.3194         2.01497        0.760925 
        2.32553         2.00819        0.756043 
        2.33166         1.99805        0.751207 
         2.3378         1.99014        0.746406 
        2.34394         1.98163        0.741645 
        2.35007         1.97278        0.736933 
        2.35619         1.96971        0.732268 
        2.36233         1.95739        0.727632 
        2.36848          1.9505        0.723027 
        2.37462         1.94389        0.718471 
        2.38075         1.93453        0.713959 
        2.38689         1.92818        0.709482 
        2.39303         1.92054        0.705044 
        2.39916         1.91177        0.700649 
        2.40529         1.90488        0.696292 
        2.41143         1.89604        0.691969 
        2.41757         1.88857        0.687681 
         2.4237         1.88393        0.683437 
        2.42983          1.8714        0.679229 
        2.43598         1.87118        0.675045 
        2.44211         1.85976        0.670904 
        2.44823         1.85424        0.666807 
        2.45437         1.84605        0.662733 
        2.46052         1.83964        0.658689 
        2.46665         1.83354        0.654687 
        2.47279         1.82497        0.650719 
        2.47892         1.81849        0.646781 
        2.48507         1.81289        0.642873 
         2.4912         1.80317        0.639004 
