# k  (h/Mpc)    Pcb(k)  (Mpc/h)^3    Pcb_linear(k)  (Mpc/h)^3
     0.00783031         12645.4         12819.6 
       0.013688         14641.1         14533.9 
       0.019231         13550.1         13500.9 
      0.0249154         11193.7         11356.4 
      0.0312784         8837.78         8864.07 
      0.0375637         7009.22         6951.04 
      0.0433917         5767.28         5792.68 
      0.0492413         5130.02         5113.92 
      0.0555754         4629.72         4708.08 
      0.0619321         4457.59          4413.7 
       0.067871         4034.07         4089.27 
      0.0738098         3623.52         3664.01 
      0.0800417         3101.57         3146.07 
      0.0862327         2652.79         2645.04 
      0.0921407         2306.98         2251.34 
      0.0982031         2006.64         1966.53 
       0.104506         1876.74         1791.36 
       0.110769         1769.07         1702.97 
       0.116806         1697.76         1652.46 
       0.122832         1637.81         1594.46 
       0.129052         1514.43         1500.26 
       0.135211         1397.19         1370.24 
       0.141259          1285.9         1224.31 
       0.147318         1165.32         1084.24 
       0.153489         1043.09         967.574 
       0.159709         973.072         885.204 
       0.165845         931.642         835.748 
       0.171974         889.657         807.439 
       0.178125         859.442         786.647 
       0.184229         828.147         761.618 
        0.19034         773.469          725.48 
       0.196428          746.03         678.472 
       0.202534         707.978         625.592 
       0.208729         658.687         573.564 
       0.214876         617.456          529.68 
       0.220989         590.328         496.544 
       0.227147         563.595         473.242 
        0.23329         541.957         457.039 
       0.239377         531.117         443.851 
       0.245482         496.015         429.838 
       0.251667         490.531         412.609 
       0.257832         470.265          392.12 
       0.263955         450.557         369.939 
       0.270079         429.369         348.054 
        0.27624         420.627         328.286 
       0.282372         404.029         311.968 
        0.28843         391.228         299.142 
       0.294538         372.189         288.802 
       0.300721         368.939          279.72 
        0.30691         352.227         270.836 
       0.313033         344.313         261.423 
       0.319153         331.595         251.206 
       0.325316         322.349         240.368 
        0.33145         310.829         229.664 
       0.337538         305.268         219.691 
       0.343633          294.56         210.794 
       0.349808         284.073         202.962 
       0.355968         280.288         196.195 
       0.362074          274.42         190.152 
       0.368217         266.571         184.366 
       0.374374         255.616         178.588 
       0.380519         252.847         172.677 
       0.386598         246.046         166.755 
       0.392688         242.642         160.877 
        0.39888         236.135         155.127 
       0.405048         229.996         149.799 
       0.411186         225.359         144.938 
       0.417313          220.64         140.499 
       0.423458         215.726         136.388 
       0.429607         211.496         132.489 
       0.435692         205.157         128.734 
       0.441815         203.189         125.015 
       0.447964          198.97          121.32 
       0.454126         191.825         117.675 
       0.460267         189.064         114.156 
       0.466387         186.587         110.814 
        0.47254         182.166         107.636 
       0.478662         181.508         104.652 
       0.484765         175.058         101.846 
       0.490885         172.705         99.1695 
       0.497035         170.002         96.5752 
       0.503198         166.031         94.0437 
       0.509342         164.082         91.5808 
       0.515458         161.568         89.1946 
       0.521598         158.154         86.8681 
       0.527764         156.299         84.6094 
       0.533884         154.097         82.4536 
           0.54          151.41         80.3933 
       0.546137         150.225         78.4174 
       0.552299         147.175         76.5126 
       0.558452         145.466         74.6771 
       0.564573         143.142         72.9056 
       0.570708         140.072         71.1811 
       0.576825         138.429         69.5123 
       0.582926         135.864         67.8977 
       0.589034         134.387         66.3301 
       0.595184          132.74         64.8012 
       0.601379         130.755         63.3117 
       0.607522         128.442         61.8842 
       0.613639         127.469         60.5116 
       0.619772         124.879         59.1814 
       0.625918         123.522          57.891 
       0.632068         121.985         56.6387 
       0.638161         120.933         55.4328 
         0.6443         119.261          54.251 
       0.650464         118.112         53.0975 
       0.656582         116.113         51.9849 
       0.662703         115.099         50.9041 
       0.668861         113.102         49.8492 
       0.675024         111.734         48.8251 
       0.681124         111.002         47.8418 
       0.687237         109.039         46.8847 
       0.693381         107.423         45.9498 
       0.699536          106.77         45.0389 
       0.705665         106.222         44.1563 
       0.711789         104.155         43.2978 
       0.717957         103.944         42.4559 
        0.72409         102.146          41.641 
       0.730186         100.714         40.8524 
       0.736317         99.9724         40.0803 
       0.742472         99.2084         39.3256 
       0.748622         98.1062         38.5915 
        0.75476         97.1797         37.8781 
       0.760888         95.9514         37.1842 
       0.767043         95.4163         36.5052 
       0.773185         94.4181         35.8447 
       0.779291         92.8364         35.2045 
       0.785407         92.3869         34.5791 
       0.791564         91.7966          33.965 
       0.797719         89.9153         33.3662 
       0.803834         89.5575         32.7856 
       0.809972         88.5876         32.2169 
       0.816124          88.094         31.6606 
       0.822261         87.3181         31.1189 
       0.828378         86.6137         30.5917 
       0.834502         86.0232         30.0763 
       0.840667         84.8252         29.5696 
       0.846816         83.8023         29.0761 
       0.852925         83.3272          28.597 
       0.859047         82.3086         28.1279 
       0.865192         81.7977         27.6678 
       0.871341         81.1051         27.2178 
       0.877463         80.0556           26.78 
       0.883569         79.8568          26.353 
       0.889708         79.0561         25.9331 
       0.895864         78.4235         25.5214 
       0.902008         77.7739         25.1196 
       0.908149         77.3247         24.7268 
       0.914301         76.5143         24.3418 
       0.920448         75.9318         23.9654 
       0.926574          75.293         23.5983 
       0.932687         75.2713         23.2398 
       0.938823         74.0902         22.8875 
       0.944975         73.3297         22.5418 
       0.951105         72.8918         22.2044 
       0.957225         72.2127         21.8747 
       0.963368         71.6049         21.5505 
       0.969511         71.4706          21.233 
       0.975621         71.0276         20.9236 
       0.981748         70.3787         20.6196 
       0.987916         69.7136         20.3198 
        0.99406         69.2733         20.0271 
        1.00019         68.8671         19.7408 
        1.00632          68.244         19.4604 
        1.01246         67.8996         19.1851 
        1.01859         67.0758         18.9155 
        1.02471         66.7441         18.6515 
        1.03085         66.1904         18.3917 
        1.03698         65.9239         18.1374 
        1.04314         65.3353         17.8868 
        1.04929         64.8958         17.6416 
        1.05541         64.2458          17.402 
        1.06154          64.217         17.1663 
        1.06769         63.7815         16.9346 
        1.07382         63.3855          16.708 
        1.07993         62.9565         16.4861 
        1.08607         62.4684         16.2673 
        1.09222         62.2549         16.0523 
        1.09836         61.6547         15.8415 
        1.10449         61.4295         15.6347 
        1.11063         60.8431         15.4314 
        1.11677         60.5405         15.2318 
         1.1229         59.9788         15.0361 
        1.12903         59.4704         14.8437 
        1.13518         59.5676         14.6545 
        1.14131         59.1557         14.4688 
        1.14745         58.5962         14.2863 
        1.15359         58.3618         14.1071 
        1.15973         57.8698         13.9308 
        1.16584         57.4884         13.7584 
        1.17197         57.1908         13.5886 
        1.17811          56.964         13.4212 
        1.18424         56.4511         13.2572 
        1.19038         56.1615         13.0954 
        1.19652         55.9316         12.9364 
        1.20267         55.3204         12.7801 
        1.20881         55.1831         12.6264 
        1.21495         54.7482         12.4754 
        1.22108         54.6903          12.327 
         1.2272         53.9691         12.1814 
        1.23334         53.7888         12.0378 
        1.23949         53.6438         11.8961 
        1.24562         53.1562         11.7572 
        1.25174         52.9736         11.6207 
        1.25789         52.8127         11.4859 
        1.26402         52.3528         11.3535 
        1.27014         52.0187         11.2236 
        1.27628          51.712         11.0953 
        1.28244         51.4494         10.9688 
        1.28858          51.287         10.8444 
        1.29471         51.0261         10.7222 
        1.30084         50.7324         10.6021 
        1.30697         50.4002         10.4836 
        1.31312         50.0871         10.3667 
        1.31925         49.8267          10.252 
        1.32537         49.6671         10.1392 
        1.33151         49.2155         10.0277 
        1.33765         49.0549         9.91792 
        1.34378         48.7836         9.81001 
        1.34992         48.5041         9.70364 
        1.35606         48.2809         9.59863 
         1.3622         47.9629         9.49537 
        1.36833          47.758         9.39388 
        1.37445         47.5019         9.29393 
        1.38059         47.1816         9.19513 
        1.38675         46.9504         9.09755 
        1.39288         46.7285         9.00177 
        1.39901         46.5698         8.90743 
        1.40515         46.2445         8.81423 
         1.4113         46.0549         8.72241 
        1.41742         45.9554         8.63225 
        1.42355         45.5639          8.5432 
         1.4297         45.4683         8.45515 
        1.43585          45.224         8.36838 
        1.44198         44.8643         8.28316 
        1.44809         44.7584         8.19929 
        1.45423         44.5244         8.11628 
        1.46036         44.3512         8.03457 
        1.46649         44.1487         7.95396 
        1.47263          43.854         7.87439 
        1.47877         43.5914         7.79596 
        1.48491          43.614         7.71847 
        1.49104         43.2344         7.64221 
        1.49718         42.8598         7.56692 
        1.50333         42.8889         7.49253 
        1.50947          42.662          7.4193 
         1.5156         42.4026         7.34715 
        1.52172          42.301         7.27597 
        1.52787         42.1643          7.2056 
          1.534         41.8365         7.13624 
        1.54013         41.6278         7.06788 
        1.54627         41.5563         7.00028 
        1.55241         41.1161         6.93357 
        1.55855          41.085         6.86782 
        1.56467         40.7359          6.8031 
         1.5708         40.7932         6.73904 
        1.57695          40.553         6.67571 
        1.58308         40.2948         6.61334 
        1.58922         40.1782         6.55173 
        1.59535         40.0588         6.49093 
         1.6015         39.7407         6.43082 
        1.60764         39.5168          6.3715 
        1.61376         39.3847          6.3131 
        1.61989          39.203         6.25538 
        1.62604         39.0223         6.19826 
        1.63218         39.0039         6.14189 
        1.63831         38.7122         6.08635 
        1.64444         38.5463         6.03149 
        1.65059         38.4417         5.97717 
        1.65673         38.1903         5.92358 
        1.66285         37.9616          5.8708 
        1.66898         37.8579         5.81865 
        1.67512         37.6133         5.76703 
        1.68127         37.4825         5.71599 
         1.6874         37.3143         5.66569 
        1.69353         37.1307         5.61602 
        1.69967         36.9966         5.56683 
        1.70581         36.9436         5.51826 
        1.71193         36.7655         5.47045 
        1.71806         36.4007         5.42311 
        1.72421          36.374         5.37623 
        1.73035         36.2144         5.32997 
        1.73649         35.9253         5.28426 
        1.74262          35.828         5.23913 
        1.74876         35.7176         5.19449 
        1.75489         35.5739         5.15047 
        1.76101         35.4437         5.10697 
        1.76715         35.2841         5.06392 
        1.77329         35.1428         5.02131 
        1.77943         34.9903         4.97918 
        1.78557         34.7985         4.93759 
        1.79171          34.677         4.89647 
        1.79785          34.477         4.85582 
        1.80399         34.4741         4.81563 
        1.81012         34.1922         4.77595 
        1.81625         34.0599         4.73674 
        1.82239         33.9587         4.69792 
        1.82853         33.8026         4.65954 
        1.83466         33.5882         4.62164 
        1.84078         33.3966         4.58419 
        1.84692         33.3307         4.54711 
        1.85306         33.1442         4.51038 
         1.8592         32.9942         4.47413 
        1.86533         32.9019         4.43829 
        1.87147          32.831          4.4028 
        1.87761         32.6643         4.36769 
        1.88375         32.5195         4.33301 
        1.88988         32.4313         4.29874 
        1.89601         32.2827         4.26482 
        1.90215         32.1615         4.23124 
        1.90829         32.0713         4.19804 
        1.91442         31.8887          4.1652 
        1.92056         31.7006         4.13273 
         1.9267         31.6329         4.10058 
        1.93284          31.393         4.06876 
        1.93897         31.3944         4.03733 
        1.94509          31.207          4.0063 
        1.95123         31.0803         3.97552 
        1.95737         30.9313         3.94505 
        1.96349         30.8213         3.91497 
        1.96964         30.7406         3.88512 
        1.97578         30.5097         3.85557 
        1.98192         30.4413         3.82638 
        1.98805          30.383          3.7975 
        1.99419         30.2338         3.76891 
        2.00033         30.0802          3.7406 
        2.00647         29.9592          3.7126 
         2.0126         29.7931         3.68493 
        2.01874         29.7728          3.6575 
        2.02488         29.6408         3.63032 
        2.03101         29.5086         3.60347 
        2.03714         29.3897         3.57692 
        2.04328         29.2334         3.55061 
        2.04941         29.1349         3.52458 
        2.05554         29.0227         3.49884 
        2.06167         28.9274         3.47332 
        2.06781         28.7581         3.44805 
        2.07396         28.6965         3.42299 
        2.08009         28.5916         3.39823 
        2.08622          28.412         3.37374 
        2.09237         28.3278         3.34945 
        2.09851          28.216         3.32539 
        2.10464         28.1126          3.3016 
        2.11077          28.054         3.27808 
        2.11691         27.8759         3.25474 
        2.12305         27.7818         3.23162 
        2.12918         27.6605         3.20879 
        2.13531         27.6199         3.18617 
        2.14145          27.463         3.16372 
         2.1476          27.363         3.14146 
        2.15372         27.2437         3.11953 
        2.15985          27.164         3.09779 
        2.16599         27.0736         3.07619 
        2.17213         27.0056         3.05482 
        2.17827         26.7852         3.03366 
         2.1844         26.7374         3.01271 
        2.19054         26.6477         2.99196 
        2.19666         26.5235         2.97144 
         2.2028         26.3765         2.95109 
        2.20893         26.3575         2.93092 
        2.21508         26.2683         2.91092 
        2.22122         26.0717         2.89109 
        2.22736         26.0354          2.8715 
        2.23349         25.9115         2.85209 
        2.23962         25.8166         2.83285 
        2.24577         25.7064         2.81377 
         2.2519         25.6484         2.79489 
        2.25802         25.5207         2.77622 
        2.26417         25.4381         2.75766 
        2.27031         25.3121         2.73926 
        2.27644         25.2025         2.72108 
        2.28257         25.1396         2.70307 
        2.28872         25.0609         2.68518 
        2.29486         24.9675         2.66746 
        2.30099         24.8309         2.64994 
        2.30712         24.7608         2.63257 
        2.31326         24.7058         2.61532 
         2.3194          24.605         2.59824 
        2.32553         24.5023         2.58134 
        2.33166         24.3922          2.5646 
         2.3378         24.2764         2.54799 
        2.34394         24.1834         2.53152 
        2.35007         24.1275         2.51521 
        2.35619           24.02         2.49907 
        2.36233         23.9191         2.48304 
        2.36848         23.8527         2.46711 
        2.37462         23.7342         2.45135 
        2.38075         23.6949         2.43575 
        2.38689         23.5852         2.42027 
        2.39303         23.4794         2.40493 
        2.39916         23.3842         2.38974 
        2.40529         23.3361         2.37468 
        2.41143         23.2412         2.35974 
        2.41757         23.1521         2.34492 
         2.4237         23.0536         2.33025 
        2.42983         22.9084         2.31572 
        2.43598         22.8705         2.30127 
        2.44211         22.7763         2.28696 
        2.44823         22.7016         2.27281 
        2.45437         22.5967         2.25874 
        2.46052         22.4916         2.24478 
        2.46665         22.4561         2.23097 
        2.47279         22.3919         2.21727 
        2.47892         22.3048         2.20368 
        2.48507         22.1672         2.19019 
         2.4912         22.1415         2.17684 
