# k  (h/Mpc)    Pcb(k)  (Mpc/h)^3    Pcb_linear(k)  (Mpc/h)^3
     0.00783031         9121.36         9188.22 
       0.013688         10082.3         10286.6 
       0.019231         9411.91         9506.32 
      0.0249154         8070.54         8022.57 
      0.0312784         6351.84         6355.24 
      0.0375637          5072.3         5100.64 
      0.0433917         4356.94         4342.68 
      0.0492413         3871.61         3881.05 
      0.0555754         3577.91         3563.17 
      0.0619321         3223.81         3284.27 
       0.067871         2964.53         2979.56 
      0.0738098         2629.27         2623.64 
      0.0800417          2262.8         2238.72 
      0.0862327         1921.08         1902.35 
      0.0921407         1686.32         1658.53 
      0.0982031         1533.55         1491.81 
       0.104506         1402.17         1388.44 
       0.110769         1338.76         1323.02 
       0.116806         1291.88         1263.61 
       0.122832         1203.34          1187.7 
       0.129052         1110.01         1087.62 
       0.135211         1020.23         976.943 
       0.141259         910.342         872.916 
       0.147318         818.958         786.179 
       0.153489         759.471         721.403 
       0.159709         725.073         677.985 
       0.165845         676.226         649.178 
       0.171974         666.862         625.165 
       0.178125         638.379         598.328 
       0.184229         593.218         565.482 
        0.19034         566.597         527.301 
       0.196428          533.89         487.783 
       0.202534         487.494         451.067 
       0.208729         470.907         419.953 
       0.214876         447.762         396.088 
       0.220989         419.754         378.144 
       0.227147          410.85         363.554 
        0.23329           395.6         349.941 
       0.239377         386.747         335.591 
       0.245482         365.321         319.723 
       0.251667         347.358         302.614 
       0.257832          339.39         285.676 
       0.263955          317.75          270.15 
       0.270079          303.25         256.622 
        0.27624         290.337         245.181 
       0.282372         282.243         235.537 
        0.28843         279.268         227.045 
       0.294538         265.427         218.859 
       0.300721         255.645          210.49 
        0.30691         250.394         201.903 
       0.313033         238.213         193.343 
       0.319153         233.176         185.036 
       0.325316         226.114         177.209 
        0.33145         218.939         170.139 
       0.337538         210.579         163.839 
       0.343633         203.954         158.124 
       0.349808         197.757         152.751 
       0.355968         193.262         147.607 
       0.362074         187.629         142.613 
       0.368217         184.188         137.647 
       0.374374         179.199          132.77 
       0.380519         171.611         128.079 
       0.386598         168.301         123.675 
       0.392688         163.067         119.549 
        0.39888         159.825         115.639 
       0.405048         155.859          111.99 
       0.411186         153.675         108.554 
       0.417313         150.109         105.262 
       0.423458         146.094          102.06 
       0.429607         142.167         98.9478 
       0.435692         139.968         95.9629 
       0.441815         136.285         93.0653 
       0.447964          132.07         90.2821 
       0.454126         129.738         87.6297 
       0.460267          128.33         85.1155 
       0.466387         124.939          82.727 
        0.47254         123.444         80.4296 
       0.478662          119.36         78.2317 
       0.484765         117.478         76.1136 
       0.490885         115.023         74.0567 
       0.497035          113.83         72.0588 
       0.503198         111.798         70.1286 
       0.509342         108.851         68.2758 
       0.515458         107.011         66.5017 
       0.521598          104.31         64.7904 
       0.527764         103.326         63.1391 
       0.533884         102.465         61.5611 
           0.54         99.6813          60.039 
       0.546137         97.3413          58.561 
       0.552299         95.6763         57.1245 
       0.558452         94.0693         55.7373 
       0.564573         93.5693         54.4028 
       0.570708         90.9021         53.1098 
       0.576825         89.8723         51.8636 
       0.582926         88.8453         50.6618 
       0.589034         87.2208         49.4979 
       0.595184         86.0675         48.3642 
       0.601379         84.2911         47.2594 
       0.607522         82.4221         46.1984 
       0.613639         81.8483         45.1744 
       0.619772         80.3265         44.1788 
       0.625918         79.7666          43.211 
       0.632068         77.9322         42.2716 
       0.638161         76.9551         41.3688 
         0.6443         76.4285         40.4863 
       0.650464         74.6358         39.6269 
       0.656582         74.3471         38.7993 
       0.662703         73.3207         37.9955 
       0.668861         71.6995         37.2103 
       0.675024         71.5547         36.4469 
       0.681124          70.354         35.7127 
       0.687237         69.2538         34.9973 
       0.693381         68.4041         34.2983 
       0.699536         67.6501         33.6173 
       0.705665         66.7889         32.9579 
       0.711789         65.7586          32.317 
       0.717957         64.9062          31.689 
        0.72409         64.1941         31.0813 
       0.730186         63.8608         30.4935 
       0.736317         62.8487         29.9179 
       0.742472         61.7839         29.3552 
       0.748622         60.9251         28.8076 
        0.75476         60.7077         28.2753 
       0.760888         60.2114         27.7573 
       0.767043         58.9466         27.2503 
       0.773185         58.1492         26.7572 
       0.779291         57.5455         26.2792 
       0.785407         57.0443         25.8122 
       0.791564         56.7393         25.3538 
       0.797719         55.7057         24.9068 
       0.803834         55.4613         24.4735 
       0.809972         54.8867         24.0491 
       0.816124         54.0995         23.6339 
       0.822261         53.3744         23.2296 
       0.828378         53.2591         22.8362 
       0.834502         52.5765         22.4516 
       0.840667         52.1324         22.0734 
       0.846816         51.5538         21.7051 
       0.852925         50.9232         21.3476 
       0.859047         50.7322         20.9975 
       0.865192         50.0122         20.6541 
       0.871341         49.4849         20.3182 
       0.877463          48.935         19.9914 
       0.883569         48.9118         19.6727 
       0.889708         48.3068         19.3593 
       0.895864         47.9476         19.0521 
       0.902008         47.3912         18.7521 
       0.908149         46.7752         18.4589 
       0.914301         46.5077         18.1716 
       0.920448          46.427         17.8906 
       0.926574         45.4923         17.6167 
       0.932687         45.2395         17.3491 
       0.938823         44.8337         17.0861 
       0.944975          44.299         16.8281 
       0.951105         43.9514         16.5763 
       0.957225         43.7151         16.3302 
       0.963368         43.3138         16.0882 
       0.969511         42.9617         15.8512 
       0.975621         42.5445         15.6203 
       0.981748         42.2106         15.3934 
       0.987916         41.7954         15.1696 
        0.99406         41.5862         14.9511 
        1.00019          41.083         14.7374 
        1.00632         40.7938         14.5281 
        1.01246          40.523         14.3226 
        1.01859         40.2416         14.1214 
        1.02471         39.8602         13.9244 
        1.03085         39.5444         13.7304 
        1.03698         39.3266         13.5406 
        1.04314         38.9758         13.3536 
        1.04929         38.5832         13.1706 
        1.05541         38.4515         12.9917 
        1.06154         38.0986         12.8158 
        1.06769         37.7274         12.6428 
        1.07382         37.3989         12.4737 
        1.07993         37.2652          12.308 
        1.08607          36.911         12.1447 
        1.09222         36.7335         11.9842 
        1.09836         36.4568         11.8268 
        1.10449           36.23         11.6725 
        1.11063         35.8907         11.5207 
        1.11677         35.8044         11.3717 
         1.1229         35.4065         11.2256 
        1.12903         35.2094          11.082 
        1.13518         35.0641         10.9408 
        1.14131         34.7503         10.8022 
        1.14745          34.498          10.666 
        1.15359         34.0864         10.5322 
        1.15973         34.0997         10.4006 
        1.16584         33.7968         10.2719 
        1.17197         33.4699         10.1452 
        1.17811         33.2867         10.0202 
        1.18424         32.8523         9.89777 
        1.19038         32.7199         9.77702 
        1.19652         32.5901         9.65833 
        1.20267         32.3375         9.54162 
        1.20881           32.15         9.42688 
        1.21495         32.0409         9.31421 
        1.22108         31.9305         9.20341 
         1.2272         31.5271         9.09469 
        1.23334         31.4146         8.98748 
        1.23949         31.1912         8.88175 
        1.24562         30.9926         8.77802 
        1.25174         30.8045         8.67612 
        1.25789         30.6243         8.57553 
        1.26402         30.4544         8.47672 
        1.27014         30.3349         8.37972 
        1.27628         30.0275         8.28395 
        1.28244         30.0647         8.18951 
        1.28858         29.7097         8.09666 
        1.29471         29.4667         8.00547 
        1.30084         29.2719         7.91577 
        1.30697         29.2699         7.82732 
        1.31312          29.034         7.74009 
        1.31925         28.7781         7.65448 
        1.32537         28.5974         7.57025 
        1.33151          28.416         7.48699 
        1.33765         28.3793         7.40504 
        1.34378         28.2217         7.32448 
        1.34992          27.976         7.24507 
        1.35606         27.7183         7.16667 
         1.3622         27.6886         7.08958 
        1.36833         27.5965         7.01382 
        1.37445         27.3045          6.9392 
        1.38059         27.1733         6.86545 
        1.38675         27.0507          6.7926 
        1.39288          26.906          6.7211 
        1.39901         26.7049         6.65067 
        1.40515         26.5955         6.58109 
         1.4113         26.5286         6.51255 
        1.41742         26.3444         6.44524 
        1.42355         26.1051         6.37876 
         1.4297         26.0856         6.31303 
        1.43585         25.9175         6.24826 
        1.44198         25.7276         6.18464 
        1.44809         25.5533         6.12203 
        1.45423         25.4969         6.06007 
        1.46036         25.4211         5.99907 
        1.46649         25.2017          5.9389 
        1.47263         25.0714         5.87951 
        1.47877         24.9311         5.82096 
        1.48491         24.7917         5.76312 
        1.49104         24.6537         5.70618 
        1.49718         24.6275         5.64998 
        1.50333         24.4892         5.59444 
        1.50947         24.2598         5.53977 
         1.5156          24.239         5.48591 
        1.52172          24.049         5.43277 
        1.52787         24.0282         5.38022 
          1.534          23.794         5.32844 
        1.54013         23.8272          5.2774 
        1.54627         23.6002         5.22693 
        1.55241         23.4995         5.17712 
        1.55855         23.3682         5.12803 
        1.56467         23.2054         5.07971 
         1.5708         23.1875         5.03189 
        1.57695         23.0688          4.9846 
        1.58308         22.8721         4.93804 
        1.58922         22.7856         4.89205 
        1.59535         22.7085         4.84666 
         1.6015         22.6579         4.80178 
        1.60764         22.4532         4.75749 
        1.61376         22.3479         4.71389 
        1.61989         22.2123          4.6708 
        1.62604         22.1154         4.62816 
        1.63218         21.9592         4.58608 
        1.63831         21.9257         4.54462 
        1.64444          21.842         4.50366 
        1.65059         21.6909         4.46311 
        1.65673         21.6365          4.4231 
        1.66285         21.5533          4.3837 
        1.66898         21.4307         4.34476 
        1.67512         21.3438         4.30623 
        1.68127         21.2312         4.26813 
         1.6874          21.163         4.23058 
        1.69353         21.0333          4.1935 
        1.69967         20.9343         4.15678 
        1.70581         20.8522         4.12052 
        1.71193         20.7511         4.08483 
        1.71806         20.6823         4.04948 
        1.72421         20.5824         4.01449 
        1.73035         20.4789         3.97995 
        1.73649         20.3377         3.94582 
        1.74262         20.2564         3.91213 
        1.74876         20.2654          3.8788 
        1.75489         20.0845         3.84593 
        1.76101         20.0344         3.81346 
        1.76715         19.8818         3.78131 
        1.77329         19.7882          3.7495 
        1.77943         19.7575         3.71804 
        1.78557         19.7037         3.68699 
        1.79171         19.5897         3.65629 
        1.79785         19.4932         3.62593 
        1.80399         19.3674         3.59593 
        1.81012         19.3437          3.5663 
        1.81625         19.1834         3.53703 
        1.82239          19.131         3.50804 
        1.82853         19.0579         3.47939 
        1.83466         18.9631         3.45109 
        1.84078         18.8663         3.42313 
        1.84692          18.794         3.39544 
        1.85306         18.7247         3.36803 
         1.8592          18.706         3.34096 
        1.86533         18.5839          3.3142 
        1.87147         18.4857         3.28771 
        1.87761         18.3974         3.26149 
        1.88375         18.3258          3.2356 
        1.88988         18.2539         3.21001 
        1.89601         18.1733         3.18469 
        1.90215         18.0993         3.15962 
        1.90829         18.0438         3.13483 
        1.91442         17.9216         3.11031 
        1.92056         17.8897         3.08607 
         1.9267         17.8295         3.06207 
        1.93284         17.7638         3.03831 
        1.93897         17.6675         3.01485 
        1.94509         17.6101         2.99168 
        1.95123         17.5116          2.9687 
        1.95737         17.4325         2.94595 
        1.96349         17.3884          2.9235 
        1.96964         17.3066         2.90121 
        1.97578         17.2456         2.87915 
        1.98192         17.1563         2.85736 
        1.98805         17.0786          2.8358 
        1.99419         17.0096         2.81445 
        2.00033         16.9387         2.79332 
        2.00647         16.8848         2.77241 
         2.0126         16.7758         2.75175 
        2.01874         16.7399         2.73127 
        2.02488         16.6554         2.71098 
        2.03101         16.5893         2.69093 
        2.03714         16.5368         2.67111 
        2.04328         16.4517         2.65146 
        2.04941         16.3817         2.63203 
        2.05554         16.3498         2.61281 
        2.06167         16.2975         2.59375 
        2.06781         16.2201         2.57488 
        2.07396         16.1602         2.55618 
        2.08009         16.0684         2.53769 
        2.08622         16.0319          2.5194 
        2.09237         15.9643         2.50126 
        2.09851         15.9212          2.4833 
        2.10464         15.8042         2.46554 
        2.11077         15.7686         2.44798 
        2.11691         15.6991         2.43055 
        2.12305         15.6627         2.41329 
        2.12918         15.5856         2.39624 
        2.13531         15.5333         2.37936 
        2.14145         15.4664          2.3626 
         2.1476         15.3765         2.34598 
        2.15372         15.3707          2.3296 
        2.15985         15.2915         2.31336 
        2.16599         15.2099         2.29723 
        2.17213         15.1661         2.28128 
        2.17827         15.0993         2.26548 
         2.1844         15.0306         2.24984 
        2.19054         15.0396         2.23435 
        2.19666         14.9342         2.21902 
         2.2028         14.9188         2.20383 
        2.20893         14.8103         2.18877 
        2.21508          14.761         2.17383 
        2.22122         14.6977         2.15903 
        2.22736         14.6776          2.1444 
        2.23349         14.5953         2.12991 
        2.23962          14.563         2.11554 
        2.24577         14.4911         2.10129 
         2.2519         14.4257          2.0872 
        2.25802         14.3547         2.07326 
        2.26417         14.3465          2.0594 
        2.27031         14.2759         2.04566 
        2.27644         14.2225         2.03209 
        2.28257         14.1652         2.01864 
        2.28872         14.1487         2.00529 
        2.29486         14.1017         1.99206 
        2.30099         14.0047         1.97898 
        2.30712         13.9825         1.96601 
        2.31326         13.9001         1.95313 
         2.3194         13.8668         1.94038 
        2.32553         13.8104         1.92776 
        2.33166         13.7449         1.91526 
         2.3378         13.7068         1.90285 
        2.34394         13.6549         1.89055 
        2.35007          13.613         1.87838 
        2.35619         13.5838         1.86633 
        2.36233         13.4767         1.85435 
        2.36848         13.4578         1.84246 
        2.37462         13.4195          1.8307 
        2.38075         13.3571         1.81905 
        2.38689         13.2989         1.80749 
        2.39303         13.2487         1.79604 
        2.39916         13.2016         1.78469 
        2.40529         13.1657         1.77345 
        2.41143         13.0938         1.76229 
        2.41757         13.0404         1.75123 
         2.4237          13.007         1.74028 
        2.42983         12.9834         1.72943 
        2.43598         12.9297         1.71864 
        2.44211         12.8839         1.70796 
        2.44823         12.8076         1.69739 
        2.45437         12.8028         1.68689 
        2.46052         12.7411         1.67646 
        2.46665         12.7222         1.66614 
        2.47279         12.6461         1.65592 
        2.47892         12.6011         1.64577 
        2.48507         12.5745          1.6357 
         2.4912         12.5027         1.62573 
