#  k  (h/Mpc)          P(k)  (Mpc/h)^3     P_linear(k) (Mpc/h)^3
     0.00783031         12954.3         13131.8 
       0.013688         14918.2         14791.9 
       0.019231         13994.2         13941.6 
      0.0249154         11902.9           12086 
      0.0312784         9821.24          9866.7 
      0.0375637         8127.22         8079.74 
      0.0433917         6857.48         6911.12 
      0.0492413         6134.76         6133.94 
      0.0555754         5463.54          5567.4 
      0.0619321         5153.01         5103.83 
       0.067871         4591.68            4654 
      0.0738098         4110.59         4155.95 
      0.0800417         3559.24         3613.78 
      0.0862327         3118.18         3117.34 
      0.0921407         2782.93         2729.98 
      0.0982031         2469.71          2437.8 
       0.104506         2324.06         2234.08 
       0.110769          2168.7         2098.29 
       0.116806         2045.36         1992.04 
       0.122832         1938.63         1880.15 
       0.129052          1771.9         1743.69 
       0.135211         1635.32         1590.77 
       0.141259         1520.59         1438.27 
       0.147318         1400.03         1299.94 
       0.153489         1272.95         1185.42 
       0.159709         1200.06         1099.73 
       0.165845          1151.2         1039.26 
       0.171974         1092.05         993.055 
       0.178125         1043.28         950.604 
       0.184229         995.575         904.935 
        0.19034          924.55         852.965 
       0.196428         893.256          796.79 
       0.202534          851.37          740.54 
       0.208729         799.058          688.41 
       0.214876         755.323         644.724 
       0.220989         726.408         609.836 
       0.227147         693.533         581.778 
        0.23329         665.533         558.112 
       0.239377         649.939         536.098 
       0.245482         604.918         513.418 
       0.251667         597.036         489.096 
       0.257832         571.583         464.008 
       0.263955         549.129         439.463 
       0.270079          525.33          416.59 
        0.27624         516.488         396.139 
       0.282372         495.817         378.528 
        0.28843         482.333         363.441 
       0.294538         457.986         349.789 
       0.300721         454.144         336.777 
        0.30691         432.879         323.926 
       0.313033         423.025         311.157 
       0.319153         408.656         298.399 
       0.325316         396.575         285.879 
        0.33145         383.505         274.067 
       0.337538         376.836          263.24 
       0.343633          364.19         253.352 
       0.349808         351.155         244.226 
       0.355968          347.03           235.8 
       0.362074          340.12         227.886 
       0.368217         330.216         220.193 
       0.374374         316.118          212.64 
       0.380519         313.254         205.271 
       0.386598         304.795         198.204 
       0.392688         301.351         191.421 
        0.39888         292.905         184.906 
       0.405048         285.662         178.815 
       0.411186         280.122         173.125 
       0.417313         274.438         167.769 
       0.423458         268.478         162.648 
       0.429607         263.381         157.716 
       0.435692         255.955         152.997 
       0.441815           253.4         148.394 
       0.447964         248.004         143.921 
       0.454126         239.903         139.611 
       0.460267          236.19         135.504 
       0.466387         233.248         131.596 
        0.47254         227.862         127.848 
       0.478662         227.137         124.289 
       0.484765         218.991         120.887 
       0.490885         216.307         117.602 
       0.497035         212.639         114.412 
       0.503198         208.121         111.324 
       0.509342         206.073          108.35 
       0.515458         203.031         105.492 
       0.521598         198.532         102.725 
       0.527764         195.884         100.052 
       0.533884         193.393         97.5015 
           0.54         190.272          95.049 
       0.546137         188.971         92.6759 
       0.552299          184.93         90.3747 
       0.558452         183.299         88.1538 
       0.564573         180.446         86.0166 
       0.570708         176.469          83.944 
       0.576825         174.085         81.9443 
       0.582926         171.471         80.0142 
       0.589034         169.695         78.1443 
       0.595184         167.778         76.3232 
       0.601379         165.388         74.5498 
       0.607522         162.465         72.8489 
       0.613639         161.166         71.2092 
       0.619772         157.874         69.6162 
       0.625918         156.496         68.0685 
       0.632068         154.316         66.5661 
       0.638161         153.224          65.122 
         0.6443         150.903         63.7102 
       0.650464         149.391         62.3353 
       0.656582         147.324         61.0114 
       0.662703         146.323         59.7261 
       0.668861         143.694         58.4711 
       0.675024         141.786         57.2515 
       0.681124         141.004         56.0791 
       0.687237          138.78         54.9372 
       0.693381         136.618         53.8218 
       0.699536         135.725         52.7354 
       0.705665         134.896         51.6836 
       0.711789         132.616         50.6615 
       0.717957         132.352         49.6603 
        0.72409         130.263         48.6917 
       0.730186         128.517         47.7551 
       0.736317         127.262         46.8381 
       0.742472         126.422         45.9419 
       0.748622         125.197         45.0701 
        0.75476          123.99         44.2229 
       0.760888         122.458         43.3988 
       0.767043         121.959         42.5924 
       0.773185         120.718         41.8082 
       0.779291         118.466         41.0482 
       0.785407         117.987         40.3061 
       0.791564         117.068         39.5776 
       0.797719         114.917         38.8676 
       0.803834          114.43         38.1795 
       0.809972         113.488         37.5056 
       0.816124         112.918         36.8465 
       0.822261         111.756         36.2051 
       0.828378         110.717          35.581 
       0.834502         110.314          34.971 
       0.840667         108.599         34.3715 
       0.846816         107.421         33.7877 
       0.852925         106.936         33.2212 
       0.859047         105.672         32.6665 
       0.865192         104.794         32.1226 
       0.871341         103.927         31.5908 
       0.877463         102.784         31.0735 
       0.883569         102.542          30.569 
       0.889708         101.523         30.0732 
       0.895864         100.482         29.5872 
       0.902008         99.7903         29.1129 
       0.908149         99.3588         28.6494 
       0.914301          98.221         28.1951 
       0.920448         97.4737         27.7512 
       0.926574         96.7692         27.3184 
       0.932687         96.7399         26.8958 
       0.938823         95.1742         26.4805 
       0.944975         94.2337         26.0732 
       0.951105         93.7562         25.6758 
       0.957225         92.8718         25.2875 
       0.963368         91.9112         24.9058 
       0.969511         91.8486          24.532 
       0.975621         91.2404         24.1679 
       0.981748          90.656         23.8103 
       0.987916         89.7012         23.4577 
        0.99406          89.032         23.1135 
        1.00019         88.7344         22.7769 
        1.00632          87.823         22.4473 
        1.01246         87.4117         22.1238 
        1.01859         86.4475         21.8071 
        1.02471         85.8505          21.497 
        1.03085         85.1094         21.1919 
        1.03698         84.8649         20.8934 
        1.04314         84.0094         20.5994 
        1.04929         83.5628         20.3116 
        1.05541         82.8499         20.0306 
        1.06154         82.5742         19.7541 
        1.06769         82.2406         19.4824 
        1.07382         81.5758         19.2168 
        1.07993         81.0058         18.9567 
        1.08607         80.3663         18.7003 
        1.09222         80.2066         18.4484 
        1.09836         79.4307         18.2014 
        1.10449         78.9825         17.9593 
        1.11063         78.3331         17.7213 
        1.11677         77.9977         17.4877 
         1.1229         77.2699         17.2587 
        1.12903         76.7238         17.0336 
        1.13518         76.7239         16.8123 
        1.14131         76.1438         16.5951 
        1.14745         75.5281         16.3818 
        1.15359         75.1262         16.1723 
        1.15973         74.7567         15.9663 
        1.16584         74.0849         15.7649 
        1.17197         73.7179         15.5666 
        1.17811         73.3485         15.3711 
        1.18424         72.8443         15.1796 
        1.19038         72.5262         14.9907 
        1.19652         72.0789         14.8052 
        1.20267         71.3775         14.6227 
        1.20881         71.1032         14.4434 
        1.21495         70.6031         14.2674 
        1.22108          70.425         14.0943 
         1.2272         69.5955         13.9245 
        1.23334         69.3957         13.7571 
        1.23949         69.0168         13.5921 
        1.24562         68.5402         13.4302 
        1.25174         68.2115         13.2712 
        1.25789         67.9814         13.1142 
        1.26402         67.3987         12.9601 
        1.27014         67.0471         12.8089 
        1.27628         66.7225         12.6596 
        1.28244         66.2813         12.5124 
        1.28858         66.1552         12.3677 
        1.29471         65.7166         12.2256 
        1.30084         65.3302         12.0859 
        1.30697         64.9187         11.9481 
        1.31312         64.5548         11.8123 
        1.31925         64.1662          11.679 
        1.32537         63.9463         11.5479 
        1.33151         63.3479         11.4184 
        1.33765         63.1402         11.2909 
        1.34378         62.7946         11.1656 
        1.34992         62.4968         11.0421 
        1.35606         62.1777         10.9202 
         1.3622         61.6655         10.8003 
        1.36833         61.5207         10.6826 
        1.37445          61.129         10.5666 
        1.38059         60.6903         10.4521 
        1.38675         60.4152         10.3389 
        1.39288         60.1154         10.2279 
        1.39901         59.8728         10.1185 
        1.40515         59.4603         10.0105 
         1.4113         59.2288         9.90412 
        1.41742         59.1183         9.79967 
        1.42355         58.6201         9.69654 
         1.4297         58.4669         9.59458 
        1.43585         58.0158         9.49412 
        1.44198         57.6614         9.39548 
        1.44809         57.4605         9.29843 
        1.45423         57.2108         9.20238 
        1.46036         56.9625         9.10786 
        1.46649         56.6275         9.01464 
        1.47263         56.2883         8.92264 
        1.47877         56.0663         8.83196 
        1.48491         55.8231          8.7424 
        1.49104         55.5312         8.65426 
        1.49718         55.1321         8.56727 
        1.50333         54.9782         8.48133 
        1.50947         54.6975         8.39674 
         1.5156         54.3976         8.31342 
        1.52172          54.177         8.23123 
        1.52787         54.0502         8.14998 
          1.534         53.5887         8.06992 
        1.54013         53.3014         7.99102 
        1.54627         53.2011         7.91302 
        1.55241         52.7065         7.83605 
        1.55855         52.5653         7.76021 
        1.56467         52.2669         7.68558 
         1.5708         52.1687         7.61172 
        1.57695         51.9788         7.53872 
        1.58308         51.5686         7.46684 
        1.58922         51.3667         7.39584 
        1.59535         51.2548         7.32579 
         1.6015         50.7716         7.25655 
        1.60764         50.6492         7.18823 
        1.61376          50.381         7.12098 
        1.61989         50.1416         7.05453 
        1.62604         49.9319         6.98878 
        1.63218         49.8312         6.92391 
        1.63831         49.3946            6.86 
        1.64444         49.2332         6.79688 
        1.65059         49.0634          6.7344 
        1.65673         48.8182         6.67277 
        1.66285         48.4645         6.61208 
        1.66898          48.369         6.55213 
        1.67512         47.9795          6.4928 
        1.68127         47.8505         6.43415 
         1.6874         47.6438         6.37635 
        1.69353          47.394          6.3193 
        1.69967         47.1959          6.2628 
        1.70581          47.087         6.20702 
        1.71193          46.897         6.15212 
        1.71806         46.4413         6.09778 
        1.72421         46.3892         6.04397 
        1.73035         46.1823         5.99088 
        1.73649         45.8529         5.93843 
        1.74262         45.7271         5.88665 
        1.74876         45.4929         5.83544 
        1.75489         45.3393         5.78495 
        1.76101         45.1573         5.73507 
        1.76715         44.8559         5.68571 
        1.77329         44.6626         5.63686 
        1.77943         44.4253         5.58857 
        1.78557         44.2717         5.54091 
        1.79171         44.0948         5.49379 
        1.79785         43.8365         5.44721 
        1.80399         43.8049         5.40118 
        1.81012         43.4644         5.35575 
        1.81625         43.2156         5.31085 
        1.82239         43.1215          5.2664 
        1.82853          42.859         5.22247 
        1.83466          42.645         5.17909 
        1.84078         42.4193         5.13625 
        1.84692         42.2515         5.09382 
        1.85306         42.0486         5.05181 
         1.8592         41.8192         5.01035 
        1.86533         41.7016         4.96937 
        1.87147         41.5169          4.9288 
        1.87761         41.3745         4.88866 
        1.88375         41.1653         4.84901 
        1.88988         41.0386         4.80985 
        1.89601          40.829          4.7711 
        1.90215         40.6428         4.73274 
        1.90829         40.5529         4.69482 
        1.91442         40.3189          4.6573 
        1.92056         40.0343         4.62024 
         1.9267          39.909         4.58353 
        1.93284         39.6854          4.5472 
        1.93897         39.6164         4.51134 
        1.94509          39.384         4.47593 
        1.95123         39.2307         4.44082 
        1.95737         39.0418         4.40605 
        1.96349         38.8421         4.37175 
        1.96964         38.7723         4.33771 
        1.97578         38.5055         4.30401 
        1.98192         38.3626         4.27074 
        1.98805         38.2969         4.23782 
        1.99419         38.0547         4.20524 
        2.00033          37.875         4.17298 
        2.00647         37.7393         4.14108 
         2.0126         37.4564         4.10955 
        2.01874         37.4698         4.07831 
        2.02488         37.2694         4.04736 
        2.03101         37.0831         4.01679 
        2.03714         36.9315         3.98656 
        2.04328         36.7537          3.9566 
        2.04941         36.5592         3.92698 
        2.05554         36.3919         3.89768 
        2.06167         36.3187         3.86864 
        2.06781         36.0707         3.83989 
        2.07396         36.0045         3.81139 
        2.08009         35.8518         3.78323 
        2.08622         35.6065         3.75538 
        2.09237         35.5114         3.72775 
        2.09851         35.3784          3.7004 
        2.10464         35.2229         3.67337 
        2.11077         35.1055         3.64664 
        2.11691         34.8616         3.62011 
        2.12305         34.7352         3.59385 
        2.12918         34.5973         3.56791 
        2.13531         34.4303         3.54222 
        2.14145         34.2731         3.51672 
         2.1476         34.1365         3.49145 
        2.15372         33.9401         3.46655 
        2.15985         33.8753         3.44186 
        2.16599         33.7449         3.41734 
        2.17213         33.6466         3.39309 
        2.17827         33.4068         3.36908 
         2.1844         33.3243         3.34532 
        2.19054         33.1607         3.32178 
        2.19666         33.0055          3.2985 
         2.2028         32.8428         3.27542 
        2.20893         32.7867         3.25255 
        2.21508         32.6642         3.22987 
        2.22122         32.4685          3.2074 
        2.22736         32.3863         3.18519 
        2.23349         32.2195         3.16319 
        2.23962         32.0328         3.14139 
        2.24577         31.8937         3.11978 
         2.2519          31.758          3.0984 
        2.25802         31.7104         3.07725 
        2.26417         31.5089         3.05623 
        2.27031         31.3919          3.0354 
        2.27644         31.2657         3.01482 
        2.28257          31.176         2.99443 
        2.28872         31.0067         2.97419 
        2.29486         30.9115         2.95414 
        2.30099         30.7544         2.93431 
        2.30712         30.6735         2.91466 
        2.31326         30.4816         2.89515 
         2.3194         30.3905         2.87583 
        2.32553         30.2819         2.85672 
        2.33166         30.1673         2.83779 
         2.3378         29.9511         2.81901 
        2.34394         29.9204         2.80039 
        2.35007         29.7652         2.78196 
        2.35619         29.6295         2.76372 
        2.36233         29.5292          2.7456 
        2.36848          29.441          2.7276 
        2.37462         29.2404          2.7098 
        2.38075         29.2297         2.69218 
        2.38689         29.0691          2.6747 
        2.39303         28.9262         2.65737 
        2.39916         28.7564         2.64022 
        2.40529         28.6737         2.62322 
        2.41143         28.6004         2.60636 
        2.41757         28.4885         2.58963 
         2.4237         28.3945         2.57308 
        2.42983         28.1936         2.55668 
        2.43598         28.1355         2.54038 
        2.44211          27.983         2.52425 
        2.44823         27.9247         2.50829 
        2.45437         27.7445         2.49242 
        2.46052         27.5982         2.47668 
        2.46665          27.551          2.4611 
        2.47279         27.4323         2.44566 
        2.47892         27.3275         2.43034 
        2.48507         27.1925         2.41514 
         2.4912         27.1228          2.4001 
