# k  (h/Mpc)    P(k)  (Mpc/h)^3    P_linear(k)  (Mpc/h)^3
     0.00783031         338.482         341.748 
       0.013688         397.304         400.642 
       0.019231         389.108          390.22 
      0.0249154         348.875         348.723 
      0.0312784         292.416         292.119 
      0.0375637         242.157         242.001 
      0.0433917         207.177         206.526 
      0.0492413          181.85         181.606 
      0.0555754         164.247         163.637 
      0.0619321         150.335         150.752 
       0.067871         140.017         139.945 
      0.0738098         128.429         128.342 
      0.0800417         115.114         114.849 
      0.0862327         101.097         100.983 
      0.0921407         88.7865         88.6458 
      0.0982031         78.3574         78.0153 
       0.104506         69.7137         69.6751 
       0.110769         64.0234         63.9493 
       0.116806         60.4493         60.1995 
       0.122832         57.4053         57.3581 
       0.129052         54.7188         54.5614 
       0.135211         51.6061         51.3901 
       0.141259         47.8476         47.7462 
       0.147318         43.7754          43.768 
       0.153489         39.8842         39.7648 
       0.159709         36.3602         36.1695 
       0.165845         33.3093          33.291 
       0.171974         31.3584         31.1206 
       0.178125         29.7188         29.5283 
       0.184229         28.4229          28.312 
        0.19034         27.4341         27.2225 
       0.196428          26.248         26.0799 
       0.202534          24.815         24.7849 
       0.208729         23.4809         23.3294 
       0.214876          22.052         21.8312 
       0.220989         20.5107         20.4017 
       0.227147         19.3592         19.1196 
        0.23329         18.2965         18.0482 
       0.239377         17.4447         17.1885 
       0.245482           16.73         16.4846 
       0.251667         16.0401         15.8685 
       0.257832         15.5362         15.2856 
       0.263955         14.8727         14.6917 
       0.270079         14.2458         14.0649 
        0.27624         13.5524         13.4093 
       0.282372         12.9125         12.7582 
        0.28843         12.3748         12.1459 
       0.294538         11.7975         11.5834 
       0.300721         11.2476         11.0816 
        0.30691         10.8698         10.6438 
       0.313033          10.467         10.2612 
       0.319153         10.1767         9.90997 
       0.325316         9.74507         9.57084 
        0.33145         9.40231         9.23549 
       0.337538         9.08526         8.90099 
       0.343633         8.77789         8.56649 
       0.349808         8.42518         8.23517 
       0.355968          8.1035         7.92002 
       0.362074         7.84475         7.62845 
       0.368217         7.56226         7.35908 
       0.374374         7.34884         7.11127 
       0.380519         7.08072         6.88267 
       0.386598          6.8492         6.66957 
       0.392688         6.63158         6.46429 
        0.39888         6.44836         6.26102 
       0.405048         6.25584         6.06224 
       0.411186          6.0556         5.86877 
       0.417313         5.86947         5.68162 
       0.423458         5.66614         5.50155 
       0.429607         5.52634         5.33047 
       0.435692         5.37428         5.17089 
       0.441815         5.20073         5.01923 
       0.447964         5.03818         4.87498 
       0.454126         4.92089         4.73714 
       0.460267         4.80707         4.60492 
       0.466387         4.66704          4.4772 
        0.47254         4.55098         4.35257 
       0.478662         4.42068         4.23224 
       0.484765         4.30689         4.11609 
       0.490885         4.18095         4.00384 
       0.497035         4.05922         3.89566 
       0.503198         3.97292         3.79194 
       0.509342         3.85647         3.69288 
       0.515458         3.77351         3.59831 
       0.521598         3.68369         3.50703 
       0.527764         3.60647         3.41859 
       0.533884         3.49482         3.33361 
           0.54         3.42289         3.25127 
       0.546137         3.32949          3.1712 
       0.552299         3.25676         3.09338 
       0.558452          3.1792         3.01828 
       0.564573          3.1109         2.94609 
       0.570708         3.04061         2.87622 
       0.576825         2.97263         2.80901 
       0.582926         2.89979         2.74431 
       0.589034         2.84625         2.68167 
       0.595184         2.79047         2.62059 
       0.601379         2.71987         2.56095 
       0.607522         2.65741         2.50358 
       0.613639         2.59501         2.44815 
       0.619772         2.55101         2.39426 
       0.625918         2.49647         2.34188 
       0.632068         2.44579         2.29105 
       0.638161         2.39447         2.24221 
         0.6443          2.3427         2.19447 
       0.650464          2.2958         2.14799 
       0.656582         2.25892         2.10322 
       0.662703         2.21188         2.05973 
       0.668861         2.15691         2.01724 
       0.675024         2.11747         1.97592 
       0.681124          2.0971         1.93617 
       0.687237         2.04571         1.89742 
       0.693381         1.99613         1.85954 
       0.699536         1.97112         1.82262 
       0.705665         1.93319         1.78688 
       0.711789         1.88903         1.75214 
       0.717957         1.85559          1.7181 
        0.72409         1.82274         1.68517 
       0.730186         1.79906         1.65332 
       0.736317         1.75735         1.62212 
       0.742472         1.73212         1.59162 
       0.748622         1.70357         1.56194 
        0.75476           1.665         1.53307 
       0.760888         1.64321         1.50498 
       0.767043         1.59975         1.47748 
       0.773185          1.5795         1.45074 
       0.779291         1.56198         1.42481 
       0.785407         1.53098         1.39948 
       0.791564         1.50404         1.37461 
       0.797719           1.478         1.35037 
       0.803834         1.45384         1.32687 
       0.809972         1.43002         1.30385 
       0.816124         1.40728         1.28133 
       0.822261         1.38539          1.2594 
       0.828378         1.36159         1.23806 
       0.834502         1.33909          1.2172 
       0.840667         1.32157         1.19668 
       0.846816         1.29821          1.1767 
       0.852925          1.2754          1.1573 
       0.859047         1.25614          1.1383 
       0.865192         1.23806         1.11966 
       0.871341         1.22105         1.10143 
       0.877463          1.1974          1.0837 
       0.883569         1.18114         1.06639 
       0.889708         1.16622         1.04938 
       0.895864         1.14867          1.0327 
       0.902008         1.12798         1.01642 
       0.908149         1.11335          1.0005 
       0.914301         1.09915        0.984893 
       0.920448         1.08414        0.969636 
       0.926574         1.07092        0.954758 
       0.932687          1.0543        0.940225 
       0.938823         1.03401        0.925942 
       0.944975         1.02336        0.911925 
       0.951105         1.00328        0.898249 
       0.957225        0.991782        0.884879 
       0.963368        0.980007        0.871736 
       0.969511        0.967815        0.858861 
       0.975621        0.951447        0.846316 
       0.981748        0.934583        0.833991 
       0.987916         0.92422        0.821835 
        0.99406        0.914272        0.809967 
        1.00019         0.90078        0.798359 
        1.00632        0.891821         0.78699 
        1.01246        0.878851        0.775827 
        1.01859        0.867733        0.764899 
        1.02471        0.852798        0.754196 
        1.03085        0.841237        0.743661 
        1.03698        0.833078        0.733352 
        1.04314        0.821714        0.723195 
        1.04929        0.813573        0.713254 
        1.05541        0.799305        0.703542 
        1.06154        0.791529        0.693987 
        1.06769        0.782221        0.684595 
        1.07382        0.771558        0.675409 
        1.07993        0.761896        0.666413 
        1.08607        0.753175        0.657544 
        1.09222        0.742187        0.648827 
        1.09836        0.734805         0.64028 
        1.10449        0.723513        0.631897 
        1.11063        0.714683        0.623655 
        1.11677        0.707847        0.615563 
         1.1229        0.696575        0.607629 
        1.12903        0.690777        0.599828 
        1.13518        0.681328        0.592158 
        1.14131        0.674481        0.584627 
        1.14745        0.667998        0.577231 
        1.15359         0.65842        0.569961 
        1.15973        0.651491        0.562814 
        1.16584        0.642901        0.555822 
        1.17197        0.634739        0.548938 
        1.17811          0.6272         0.54215 
        1.18424        0.620361        0.535497 
        1.19038        0.612366        0.528937 
        1.19652        0.607679        0.522489 
        1.20267         0.60156        0.516149 
        1.20881        0.591797        0.509915 
        1.21495        0.586542        0.503795 
        1.22108        0.580529        0.497776 
         1.2272        0.572433         0.49187 
        1.23334        0.566954        0.486047 
        1.23949        0.561815        0.480304 
        1.24562        0.555284         0.47467 
        1.25174        0.549564        0.469135 
        1.25789        0.541684        0.463672 
        1.26402        0.537102        0.458306 
        1.27014        0.529586        0.453038 
        1.27628        0.525872        0.447838 
        1.28244        0.520072        0.442709 
        1.28858         0.51335        0.437668 
        1.29471        0.508356        0.432716 
        1.30084        0.503343        0.427846 
        1.30697        0.499556        0.423044 
        1.31312        0.493894        0.418309 
        1.31925        0.488335        0.413661 
        1.32537        0.483645        0.409088 
        1.33151        0.478229        0.404569 
        1.33765        0.473435         0.40012 
        1.34378        0.467874        0.395747 
        1.34992        0.464998        0.391436 
        1.35606        0.458926        0.387181 
         1.3622        0.454952        0.382996 
        1.36833        0.451066        0.378883 
        1.37445        0.446444        0.374833 
        1.38059          0.4419        0.370829 
        1.38675        0.437002        0.366875 
        1.39288        0.432188        0.362994 
        1.39901        0.428964        0.359171 
        1.40515        0.424359        0.355394 
         1.4113        0.421688        0.351673 
        1.41742        0.416936         0.34802 
        1.42355        0.411247        0.344412 
         1.4297        0.409223        0.340843 
        1.43585        0.404236        0.337327 
        1.44198        0.401233        0.333874 
        1.44809        0.396746        0.330476 
        1.45423        0.393593        0.327112 
        1.46036        0.389731        0.323802 
        1.46649         0.38592        0.320536 
        1.47263        0.381606        0.317312 
        1.47877        0.380426        0.314135 
        1.48491        0.374496        0.310996 
        1.49104        0.373164        0.307906 
        1.49718        0.368463        0.304856 
        1.50333        0.365726        0.301843 
        1.50947         0.36273        0.298877 
         1.5156        0.359052        0.295955 
        1.52172        0.356101        0.293072 
        1.52787        0.351889        0.290221 
          1.534        0.349888        0.287412 
        1.54013        0.346619        0.284644 
        1.54627        0.343801        0.281906 
        1.55241        0.340491        0.279205 
        1.55855        0.337518        0.276542 
        1.56467        0.334872        0.273922 
         1.5708        0.331471        0.271328 
        1.57695        0.328565        0.268764 
        1.58308        0.324927        0.266239 
        1.58922        0.323313        0.263745 
        1.59535         0.31989        0.261284 
         1.6015        0.317425         0.25885 
        1.60764        0.314537        0.256449 
        1.61376        0.311958        0.254085 
        1.61989        0.309242        0.251749 
        1.62604        0.306259        0.249437 
        1.63218        0.304635        0.247155 
        1.63831        0.301452        0.244907 
        1.64444        0.299427        0.242686 
        1.65059        0.296261        0.240488 
        1.65673        0.294069        0.238319 
        1.66285        0.291941        0.236183 
        1.66898          0.2894        0.234072 
        1.67512        0.286689        0.231983 
        1.68127        0.284247        0.229917 
         1.6874        0.282445        0.227881 
        1.69353        0.279844        0.225871 
        1.69967        0.277603        0.223881 
        1.70581        0.275863        0.221915 
        1.71193        0.273823        0.219981 
        1.71806        0.271392        0.218065 
        1.72421        0.269015        0.216168 
        1.73035        0.266582        0.214297 
        1.73649        0.265332        0.212447 
        1.74262         0.26236        0.210621 
        1.74876        0.260921        0.208815 
        1.75489        0.259013        0.207034 
        1.76101        0.256642        0.205275 
        1.76715         0.25484        0.203533 
        1.77329        0.252682         0.20181 
        1.77943          0.2506        0.200105 
        1.78557        0.249402        0.198423 
        1.79171         0.24745         0.19676 
        1.79785        0.245095        0.195116 
        1.80399        0.242736        0.193491 
        1.81012        0.241696        0.191887 
        1.81625         0.24013        0.190301 
        1.82239        0.238593        0.188731 
        1.82853        0.236023        0.187179 
        1.83466        0.234262        0.185647 
        1.84078         0.23257        0.184133 
        1.84692        0.231003        0.182634 
        1.85306        0.229474        0.181149 
         1.8592        0.227708        0.179683 
        1.86533        0.226279        0.178235 
        1.87147        0.224065          0.1768 
        1.87761        0.222529        0.175381 
        1.88375        0.220947        0.173979 
        1.88988        0.219061        0.172594 
        1.89601        0.217208        0.171223 
        1.90215        0.216156        0.169866 
        1.90829        0.214233        0.168524 
        1.91442        0.213315        0.167197 
        1.92056         0.21201        0.165885 
         1.9267        0.210073        0.164585 
        1.93284        0.208286        0.163299 
        1.93897        0.207095        0.162029 
        1.94509        0.205872        0.160775 
        1.95123        0.203877        0.159532 
        1.95737        0.202684          0.1583 
        1.96349        0.201225        0.157085 
        1.96964        0.199767        0.155879 
        1.97578         0.19828        0.154685 
        1.98192        0.197405        0.153506 
        1.98805        0.195995        0.152339 
        1.99419        0.194927        0.151184 
        2.00033        0.193215        0.150041 
        2.00647        0.191969         0.14891 
         2.0126        0.190708        0.147792 
        2.01874        0.189469        0.146684 
        2.02488        0.188187        0.145586 
        2.03101        0.186637        0.144502 
        2.03714         0.18616         0.14343 
        2.04328        0.184165        0.142367 
        2.04941        0.183459        0.141316 
        2.05554        0.182146        0.140277 
        2.06167        0.180829        0.139246 
        2.06781        0.179146        0.138226 
        2.07396        0.178573        0.137214 
        2.08009        0.177165        0.136214 
        2.08622        0.176207        0.135226 
        2.09237        0.175042        0.134245 
        2.09851        0.173562        0.133273 
        2.10464        0.172682        0.132313 
        2.11077        0.171291        0.131364 
        2.11691        0.170437        0.130422 
        2.12305        0.169196        0.129489 
        2.12918        0.168005        0.128567 
        2.13531        0.167133        0.127654 
        2.14145        0.165979        0.126748 
         2.1476        0.165008         0.12585 
        2.15372        0.164188        0.124965 
        2.15985        0.162776        0.124087 
        2.16599        0.161775        0.123216 
        2.17213        0.161015        0.122354 
        2.17827        0.159866          0.1215 
         2.1844        0.159062        0.120655 
        2.19054        0.158071        0.119818 
        2.19666        0.157086         0.11899 
         2.2028        0.155634        0.118168 
        2.20893        0.155022        0.117355 
        2.21508        0.154146        0.116548 
        2.22122         0.15329        0.115748 
        2.22736        0.152035        0.114958 
        2.23349        0.150983        0.114175 
        2.23962        0.150263        0.113399 
        2.24577        0.149494        0.112629 
         2.2519        0.148584        0.111868 
        2.25802        0.147564        0.111115 
        2.26417        0.146909        0.110366 
        2.27031        0.145871        0.109624 
        2.27644        0.145487        0.108891 
        2.28257        0.144233        0.108165 
        2.28872        0.143414        0.107444 
        2.29486        0.142617        0.106729 
        2.30099        0.141563        0.106023 
        2.30712        0.140852        0.105323 
        2.31326        0.139873        0.104627 
         2.3194        0.139232        0.103939 
        2.32553        0.138441        0.103258 
        2.33166        0.137606        0.102583 
         2.3378        0.136801        0.101913 
        2.34394        0.136018        0.101249 
        2.35007         0.13525        0.100592 
        2.35619        0.134501       0.0999412 
        2.36233         0.13369       0.0992949 
        2.36848        0.132927        0.098653 
        2.37462        0.132443        0.098018 
        2.38075        0.131569       0.0973893 
        2.38689        0.130862       0.0967655 
        2.39303        0.130108       0.0961473 
        2.39916        0.129288       0.0955351 
        2.40529         0.12854       0.0949284 
        2.41143        0.127655       0.0943264 
        2.41757        0.127082       0.0937294 
         2.4237         0.12642       0.0931386 
        2.42983         0.12586        0.092553 
        2.43598        0.125032       0.0919708 
        2.44211        0.123973       0.0913946 
        2.44823        0.123804       0.0908247 
        2.45437        0.123049        0.090258 
        2.46052        0.122299       0.0896957 
        2.46665        0.121661       0.0891391 
        2.47279        0.120925       0.0885875 
        2.47892        0.120567       0.0880402 
        2.48507        0.119539       0.0874969 
         2.4912        0.119092       0.0869593 
