# k  (h/Mpc)    P(k)  (Mpc/h)^3    P_linear(k)  (Mpc/h)^3
     0.00783031         8844.67         8967.84 
       0.013688         11153.8         11095.1 
       0.019231         11290.3         11278.3 
      0.0249154         10297.8           10465 
      0.0312784          9004.7         9074.12 
      0.0375637         7712.14          7705.4 
      0.0433917         6587.43         6667.91 
      0.0492413         5882.29         5903.62 
      0.0555754         5227.23         5340.58 
      0.0619321         4970.73         4949.21 
       0.067871         4555.01         4642.78 
      0.0738098         4239.23         4324.31 
      0.0800417         3832.98         3945.07 
      0.0862327         3470.43         3532.51 
      0.0921407         3128.72         3139.97 
      0.0982031         2758.42         2777.49 
       0.104506         2527.12         2472.84 
       0.110769         2304.67         2251.54 
       0.116806         2144.28         2104.98 
       0.122832         2048.36         2003.04 
       0.129052         1923.11         1918.22 
       0.135211         1838.23         1831.63 
       0.141259         1760.74         1730.74 
       0.147318         1656.03         1612.04 
       0.153489          1514.6          1480.8 
       0.159709         1412.58         1351.05 
       0.165845         1331.59         1237.56 
       0.171974         1238.15         1145.85 
       0.178125         1172.35         1076.78 
       0.184229         1122.78         1027.19 
        0.19034         1055.92           989.5 
       0.196428         1040.41         956.108 
       0.202534         1009.62         920.369 
       0.208729          961.03         878.226 
       0.214876         910.904         830.495 
       0.220989         877.345         779.918 
       0.227147         827.978         729.909 
        0.23329         789.514         684.735 
       0.239377          768.22         646.948 
       0.245482         716.214         616.491 
       0.251667         709.172         592.087 
       0.257832          684.32         572.019 
       0.263955         662.617         553.766 
       0.270079         639.304         535.101 
        0.27624         631.428         514.748 
       0.282372         605.098         492.772 
        0.28843         588.979         470.176 
       0.294538         559.828         447.683 
       0.300721         554.933         426.464 
        0.30691         528.901         407.601 
       0.313033         517.767         391.564 
       0.319153         501.086         377.865 
       0.325316          486.92         365.763 
        0.33145          472.89         354.606 
       0.337538         466.596         343.725 
       0.343633         451.683         332.563 
       0.349808         436.859         320.901 
       0.355968         432.013         309.047 
       0.362074         422.923         297.467 
       0.368217         411.209         286.345 
       0.374374         395.105         276.037 
       0.380519         391.092         266.718 
       0.386598         381.394          258.39 
       0.392688         378.294          250.79 
        0.39888         367.652         243.548 
       0.405048         359.872         236.587 
       0.411186          352.75         229.752 
       0.417313         346.186         222.917 
       0.423458         339.695         216.096 
       0.429607         332.598         209.389 
       0.435692         324.116          202.97 
       0.441815         321.597         196.835 
       0.447964         315.189         191.069 
       0.454126         304.609         185.666 
       0.460267         300.603         180.625 
       0.466387         297.098         175.876 
        0.47254         290.817         171.286 
       0.478662         289.643         166.834 
       0.484765          280.54         162.487 
       0.490885         277.182         158.208 
       0.497035          272.73         153.993 
       0.503198         267.024          149.89 
       0.509342         264.574         145.956 
       0.515458          261.13         142.217 
       0.521598         256.332         138.634 
       0.527764         252.308         135.202 
       0.533884         249.493         131.947 
           0.54         245.863          128.82 
       0.546137         244.619         125.778 
       0.552299         239.654         122.801 
       0.558452         237.138         119.901 
       0.564573         233.378         117.091 
       0.570708          229.08         114.355 
       0.576825         226.044         111.709 
       0.582926         223.201         109.156 
       0.589034         220.754          106.69 
       0.595184          218.46           104.3 
       0.601379           216.1         101.983 
       0.607522         211.899         99.7613 
       0.613639         210.863         97.6162 
       0.619772         206.224         95.5238 
       0.625918         204.729         93.4822 
       0.632068         202.057         91.4945 
       0.638161         200.947         89.5794 
         0.6443         197.807         87.7043 
       0.650464         195.825         85.8764 
       0.656582         194.089         84.1147 
       0.662703         192.114         82.4037 
       0.668861         188.947         80.7333 
       0.675024         186.811         79.1111 
       0.681124             186         77.5525 
       0.687237         183.076         76.0344 
       0.693381         180.469         74.5501 
       0.699536         179.205         73.1022 
       0.705665         178.683         71.6972 
       0.711789         175.413         70.3287 
       0.717957         174.849         68.9856 
        0.72409         172.536         67.6848 
       0.730186         170.128         66.4257 
       0.736317         168.786         65.1928 
       0.742472         167.862         63.9882 
       0.748622         166.424         62.8164 
        0.75476         165.027         61.6773 
       0.760888         162.703         60.5688 
       0.767043         162.108         59.4834 
       0.773185         160.335         58.4268 
       0.779291         157.719         57.4015 
       0.785407         157.124          56.399 
       0.791564         155.717          55.414 
       0.797719         153.515          54.453 
       0.803834         152.807         53.5208 
       0.809972         151.308         52.6073 
       0.816124         151.104         51.7134 
       0.822261         149.159          50.843 
       0.828378           147.8         49.9956 
       0.834502         147.517          49.167 
       0.840667         145.253         48.3521 
       0.846816         144.024         47.5582 
       0.852925         143.242         46.7873 
       0.859047         141.569         46.0319 
       0.865192         140.691         45.2908 
       0.871341         139.348         44.5656 
       0.877463         138.259         43.8596 
       0.883569         137.382         43.1707 
       0.889708         136.332         42.4932 
       0.895864         134.907         41.8285 
       0.902008         134.099         41.1796 
       0.908149         133.495         40.5448 
       0.914301         132.057         39.9225 
       0.920448         131.108         39.3138 
       0.926574         130.353         38.7201 
       0.932687         129.931         38.1399 
       0.938823         128.068         37.5697 
       0.944975         126.884         37.0098 
       0.951105         126.377         36.4635 
       0.957225         124.947         35.9291 
       0.963368         123.976         35.4038 
       0.969511         123.702          34.889 
       0.975621           123.1         34.3872 
       0.981748         122.262         33.8941 
       0.987916         120.911         33.4076 
        0.99406         120.178         32.9325 
        1.00019         119.626         32.4677 
        1.00632         118.637         32.0123 
        1.01246         117.878          31.565 
        1.01859          116.64          31.127 
        1.02471         116.301          30.698 
        1.03085         115.173         30.2755 
        1.03698         114.581          29.862 
        1.04314         113.554         29.4545 
        1.04929          112.86         29.0555 
        1.05541         112.162         28.6656 
        1.06154         111.535         28.2819 
        1.06769         111.296         27.9047 
        1.07382         110.536         27.5356 
        1.07993         109.634         27.1741 
        1.08607         108.821         26.8176 
        1.09222         108.396         26.4671 
        1.09836          107.48         26.1234 
        1.10449         106.804         25.7862 
        1.11063         106.134         25.4546 
        1.11677         105.701         25.1289 
         1.1229         104.551         24.8096 
        1.12903         103.845         24.4955 
        1.13518         104.009         24.1866 
        1.14131         102.995         23.8833 
        1.14745         102.266         23.5853 
        1.15359         101.656         23.2924 
        1.15973         101.325         23.0043 
        1.16584         100.427         22.7224 
        1.17197         99.9143         22.4449 
        1.17811         99.2731         22.1712 
        1.18424         98.7015         21.9028 
        1.19038         98.2254         21.6382 
        1.19652         97.6578          21.378 
        1.20267         96.8769         21.1221 
        1.20881         96.3242         20.8705 
        1.21495         95.7248         20.6234 
        1.22108         95.2511         20.3803 
         1.2272         94.4467         20.1418 
        1.23334         94.1169         19.9065 
        1.23949          93.316         19.6745 
        1.24562         93.0571         19.4468 
        1.25174         92.3429          19.223 
        1.25789         91.9723         19.0021 
        1.26402         91.5432         18.7851 
        1.27014           90.82         18.5721 
        1.27628         90.4991         18.3617 
        1.28244         89.8035         18.1541 
        1.28858         89.4953         17.9501 
        1.29471         88.8457         17.7496 
        1.30084         88.3904         17.5524 
        1.30697         87.8803         17.3579 
        1.31312         87.4846         17.1661 
        1.31925         86.9222         16.9778 
        1.32537         86.6071         16.7925 
        1.33151         85.7583         16.6093 
        1.33765         85.3601          16.429 
        1.34378         84.8569         16.2517 
        1.34992         84.6801         16.0769 
        1.35606         84.1639         15.9043 
         1.3622         83.3994         15.7346 
        1.36833          83.287         15.5677 
        1.37445          82.696         15.4034 
        1.38059         82.1617         15.2409 
        1.38675          81.646         15.0804 
        1.39288         81.2392         14.9228 
        1.39901         81.0976         14.7676 
        1.40515         80.5623         14.6142 
         1.4113         79.9796         14.4631 
        1.41742         79.9095         14.3147 
        1.42355         79.1697         14.1681 
         1.4297         78.8582         14.0231 
        1.43585         78.2643         13.8802 
        1.44198         78.0112         13.7399 
        1.44809         77.5676         13.6017 
        1.45423         77.1181          13.465 
        1.46036         76.9283         13.3304 
        1.46649         76.4167         13.1976 
        1.47263          75.954         13.0664 
        1.47877         75.7698         12.9372 
        1.48491          75.275         12.8095 
        1.49104         74.8486         12.6837 
        1.49718         74.3895         12.5596 
        1.50333         74.0282         12.4369 
        1.50947         73.6409         12.3162 
         1.5156         73.3385         12.1972 
        1.52172         72.9415         12.0798 
        1.52787         72.7744         11.9637 
          1.534         72.2592         11.8493 
        1.54013         71.7554         11.7365 
        1.54627         71.5297         11.6249 
        1.55241         71.0729         11.5148 
        1.55855         70.7805         11.4063 
        1.56467         70.2933         11.2995 
         1.5708         70.1011         11.1937 
        1.57695           69.86         11.0892 
        1.58308         69.2154         10.9862 
        1.58922           69.15         10.8844 
        1.59535         68.8949          10.784 
         1.6015         68.2509         10.6847 
        1.60764         68.0699         10.5867 
        1.61376         67.6608         10.4903 
        1.61989         67.3226         10.3949 
        1.62604          67.123         10.3005 
        1.63218         66.8275         10.2073 
        1.63831         66.3647         10.1155 
        1.64444         66.0555         10.0248 
        1.65059         65.6078         9.93504 
        1.65673         65.4144         9.84644 
        1.66285         65.0499         9.75917 
        1.66898         64.7557         9.67293 
        1.67512         64.3404         9.58757 
        1.68127         64.0524         9.50316 
         1.6874         63.8237         9.41995 
        1.69353         63.5079          9.3378 
        1.69967         63.1043         9.25643 
        1.70581         62.9942         9.17606 
        1.71193         62.7524         9.09695 
        1.71806         62.1358         9.01861 
        1.72421          62.029         8.94104 
        1.73035         61.6858         8.86447 
        1.73649         61.2958         8.78881 
        1.74262         61.1444          8.7141 
        1.74876         60.8175         8.64021 
        1.75489         60.4514         8.56732 
        1.76101         60.2643          8.4953 
        1.76715         59.8541         8.42402 
        1.77329          59.653         8.35346 
        1.77943         59.2454         8.28368 
        1.78557          59.113          8.2148 
        1.79171         58.7613          8.1467 
        1.79785         58.5549         8.07935 
        1.80399         58.2838         8.01278 
        1.81012         58.0707         7.94705 
        1.81625         57.5505         7.88209 
        1.82239         57.3586         7.81775 
        1.82853         57.0196         7.75417 
        1.83466         56.8531         7.69135 
        1.84078         56.4679          7.6293 
        1.84692          56.183         7.56783 
        1.85306         56.0022         7.50696 
         1.8592         55.6037         7.44686 
        1.86533         55.4783         7.38745 
        1.87147         55.1604         7.32862 
        1.87761         54.9538          7.2704 
        1.88375         54.6936         7.21289 
        1.88988         54.5878         7.15605 
        1.89601         54.1609          7.0998 
        1.90215         53.9404         7.04411 
        1.90829         53.7836         6.98905 
        1.91442         53.4437         6.93457 
        1.92056         53.0952         6.88072 
         1.9267         52.8876         6.82738 
        1.93284         52.6696         6.77458 
        1.93897         52.3747         6.72244 
        1.94509         52.0548         6.67096 
        1.95123         51.9576         6.61989 
        1.95737         51.7155         6.56931 
        1.96349         51.3839          6.5194 
        1.96964         51.3239         6.46986 
        1.97578         50.9564         6.42081 
        1.98192          50.752         6.37237 
        1.98805         50.6114         6.32443 
        1.99419         50.2346         6.27697 
        2.00033         50.0124         6.22998 
        2.00647         49.8089         6.18348 
         2.0126         49.4971         6.13754 
        2.01874         49.3477         6.09199 
        2.02488         49.1889         6.04687 
        2.03101         48.8761         6.00228 
        2.03714         48.6434         5.95819 
        2.04328         48.4173         5.91449 
        2.04941         48.1384         5.87127 
        2.05554         47.8463          5.8285 
        2.06167         47.7891         5.78611 
        2.06781         47.5738         5.74413 
        2.07396         47.2868         5.70251 
        2.08009         47.1226         5.66137 
        2.08622         46.8144         5.62069 
        2.09237         46.6336         5.58033 
        2.09851         46.4483         5.54035 
        2.10464         46.2162         5.50084 
        2.11077         46.0463         5.46175 
        2.11691         45.7767         5.42296 
        2.12305         45.5324         5.38455 
        2.12918         45.3116          5.3466 
        2.13531         45.0941         5.30901 
        2.14145         44.9301          5.2717 
         2.1476         44.7505          5.2347 
        2.15372         44.4643         5.19824 
        2.15985         44.2854         5.16209 
        2.16599         44.1928         5.12618 
        2.17213         44.0143         5.09065 
        2.17827         43.7365         5.05547 
         2.1844         43.4992         5.02065 
        2.19054         43.2679         4.98615 
        2.19666         43.1075         4.95202 
         2.2028         42.9261         4.91818 
        2.20893         42.7867         4.88464 
        2.21508         42.6165         4.85137 
        2.22122         42.3383         4.81841 
        2.22736         42.1746         4.78581 
        2.23349          42.035         4.75353 
        2.23962         41.6767         4.72153 
        2.24577         41.5376         4.68979 
         2.2519         41.3234          4.6584 
        2.25802         41.2867         4.62733 
        2.26417          41.023         4.59647 
        2.27031         40.8902         4.56586 
        2.27644         40.5718         4.53561 
        2.28257         40.4729         4.50564 
        2.28872         40.1902         4.47589 
        2.29486         40.0866         4.44641 
        2.30099         39.9309         4.41725 
        2.30712         39.7376         4.38834 
        2.31326         39.5611         4.35965 
         2.3194         39.3443         4.33122 
        2.32553         39.2009          4.3031 
        2.33166         39.0366         4.27524 
         2.3378         38.7623         4.24758 
        2.34394         38.5528         4.22017 
        2.35007         38.4256         4.19303 
        2.35619         38.3466         4.16616 
        2.36233           38.21         4.13947 
        2.36848         37.8944         4.11296 
        2.37462         37.8283         4.08673 
        2.38075         37.6422         4.06076 
        2.38689         37.5673         4.03499 
        2.39303         37.3272         4.00945 
        2.39916         37.1183         3.98415 
        2.40529          36.878         3.95908 
        2.41143         36.8366          3.9342 
        2.41757         36.7013         3.90953 
         2.4237         36.5227         3.88512 
        2.42983         36.3518         3.86091 
        2.43598         36.1202         3.83685 
        2.44211         35.9791         3.81303 
        2.44823         35.8412         3.78946 
        2.45437         35.7298         3.76604 
        2.46052         35.4566         3.74279 
        2.46665         35.3879         3.71977 
        2.47279         35.2253         3.69696 
        2.47892         35.0197         3.67432 
        2.48507         34.8894         3.65186 
         2.4912         34.7478         3.62962 
