# k  (h/Mpc)    P(k)  (Mpc/h)^3    P_linear(k)  (Mpc/h)^3
     0.00783031         7531.32         7643.86 
       0.013688         8495.87         8462.62 
       0.019231         7753.52         7732.04 
      0.0249154         6357.14         6422.98 
      0.0312784         4982.56         4983.75 
      0.0375637         3957.64         3926.45 
      0.0433917         3301.62         3307.59 
      0.0492413         2955.19         2947.67 
      0.0555754         2682.99         2713.69 
      0.0619321         2531.29         2509.21 
       0.067871         2257.73         2274.52 
      0.0738098         1979.75         1990.42 
      0.0800417         1667.29         1678.84 
      0.0862327         1414.99         1407.55 
      0.0921407          1237.2         1214.69 
      0.0982031         1100.09         1088.08 
       0.104506         1045.15          1015.7 
       0.110769         994.554         974.534 
       0.116806         947.078         936.138 
       0.122832         896.571         881.169 
       0.129052         809.906         803.343 
       0.135211         727.718         714.856 
       0.141259         657.727         631.674 
       0.147318         595.265         563.777 
       0.153489         541.789         515.408 
       0.159709         513.542         485.699 
       0.165845          497.82         468.201 
       0.171974         476.036         453.972 
       0.178125         457.452         435.977 
       0.184229          433.79         411.315 
        0.19034         396.802         380.998 
       0.196428         374.822         349.144 
       0.202534         352.279         319.962 
       0.208729         326.969         296.238 
       0.214876         307.854         279.303 
       0.220989         297.279         267.723 
       0.227147         284.705         258.918 
        0.23329         274.442         250.421 
       0.239377         266.459         240.508 
       0.245482         247.884         228.531 
       0.251667         240.541         215.019 
       0.257832         228.713         201.534 
       0.263955         217.247         189.423 
       0.270079         206.751         179.383 
        0.27624         201.715          171.44 
       0.282372         194.772          165.17 
        0.28843         187.483           159.8 
       0.294538         179.333         154.434 
       0.300721         176.137         148.582 
        0.30691         167.437         142.181 
       0.313033         161.866         135.599 
       0.319153          154.07         129.169 
       0.325316         150.104         123.249 
        0.33145          143.85         118.103 
       0.337538         140.767         113.742 
       0.343633         135.574         109.932 
       0.349808         131.177         106.382 
       0.355968         128.513          102.92 
       0.362074         124.645         99.4045 
       0.368217          120.55         95.7917 
       0.374374         116.271         92.1564 
       0.380519         113.722         88.6476 
       0.386598         110.347         85.4142 
       0.392688         107.987         82.4528 
        0.39888         104.951         79.7324 
       0.405048         101.969         77.2534 
       0.411186         99.5259         74.9223 
       0.417313         96.9428         72.6637 
       0.423458          94.495         70.4286 
       0.429607         92.0879          68.201 
       0.435692          88.854         66.0373 
       0.441815         87.7843           63.94 
       0.447964         85.9838          61.941 
       0.454126         81.9863         60.0573 
       0.460267         80.9777         58.3056 
       0.466387           79.46         56.6636 
        0.47254         77.5518         55.0857 
       0.478662         76.6739         53.5639 
       0.484765         74.1413         52.0867 
       0.490885         72.6939         50.6421 
       0.497035          71.668         49.2265 
       0.503198         69.4597         47.8537 
       0.509342          67.967         46.5411 
       0.515458         66.7391         45.2981 
       0.521598         65.5613         44.1098 
       0.527764         64.4524         42.9673 
       0.533884         63.4258         41.8752 
           0.54         61.8846           40.82 
       0.546137         61.1341         39.7942 
       0.552299         60.0853         38.7954 
       0.558452         58.5789         37.8275 
       0.564573         57.4812         36.8938 
       0.570708         56.5102         35.9889 
       0.576825         55.6368         35.1191 
       0.582926         54.3151         34.2848 
       0.589034          53.246         33.4809 
       0.595184          52.496         32.6997 
       0.601379           51.58         31.9383 
       0.607522         50.3836         31.2056 
       0.613639         50.0869         30.4964 
       0.619772         48.9781         29.8059 
       0.625918         48.2946         29.1347 
       0.632068         47.6918         28.4841 
       0.638161         46.9631         27.8602 
         0.6443         46.2275         27.2518 
       0.650464         45.5468         26.6602 
       0.656582         44.8722          26.091 
       0.662703         43.9512         25.5382 
       0.668861         43.3415         24.9981 
       0.675024         42.7545         24.4726 
       0.681124         42.0931         23.9672 
       0.687237         41.2562         23.4748 
       0.693381           40.84         22.9939 
       0.699536         40.1448         22.5257 
       0.705665         40.1714         22.0728 
       0.711789          39.088          21.633 
       0.717957         38.6343         21.2024 
        0.72409         38.0661          20.786 
       0.730186         37.4417         20.3835 
       0.736317         37.2647         19.9895 
       0.742472         36.6784         19.6044 
       0.748622         36.2039         19.2298 
        0.75476         35.7594         18.8657 
       0.760888         35.1747         18.5115 
       0.767043          34.748          18.165 
       0.773185         34.2769          17.828 
       0.779291         34.0157         17.5015 
       0.785407         33.6971         17.1827 
       0.791564         33.2139         16.8699 
       0.797719         32.5204         16.5651 
       0.803834         32.3942         16.2698 
       0.809972          31.809         15.9806 
       0.816124         31.4569         15.6979 
       0.822261         31.1566         15.4228 
       0.828378         30.9615         15.1551 
       0.834502           30.53         14.8936 
       0.840667         30.1704         14.6366 
       0.846816         29.6805         14.3864 
       0.852925         29.4464         14.1436 
       0.859047         29.0338          13.906 
       0.865192         28.7569          13.673 
       0.871341          28.605         13.4452 
       0.877463         28.0468         13.2237 
       0.883569         27.7939         13.0077 
       0.889708         27.5625         12.7955 
       0.895864         27.2524         12.5874 
       0.902008         26.9865         12.3844 
       0.908149         26.7101          12.186 
       0.914301         26.5544         11.9917 
       0.920448          26.244         11.8017 
       0.926574         25.8939         11.6166 
       0.932687         25.6902         11.4358 
       0.938823         25.3074         11.2582 
       0.944975         25.1621          11.084 
       0.951105         24.8701          10.914 
       0.957225         24.5699          10.748 
       0.963368         24.5791         10.5848 
       0.969511         24.2453          10.425 
       0.975621         24.0781         10.2693 
       0.981748         23.7166         10.1164 
       0.987916         23.5131         9.96571 
        0.99406         23.3574         9.81862 
        1.00019         23.0849         9.67479 
        1.00632         22.9217         9.53397 
        1.01246         22.8124         9.39574 
        1.01859         22.4202         9.26048 
        1.02471         22.3483         9.12805 
        1.03085         22.1553         8.99775 
        1.03698         21.8234         8.87028 
        1.04314         21.6892         8.74473 
        1.04929         21.4813         8.62191 
        1.05541         21.2558         8.50194 
        1.06154         21.1899         8.38396 
        1.06769         20.9763         8.26805 
        1.07382         20.8155          8.1547 
        1.07993         20.6655         8.04374 
        1.08607         20.4303         7.93439 
        1.09222         20.3121         7.82697 
        1.09836         20.1121         7.72165 
        1.10449         19.9547          7.6184 
        1.11063         19.6904         7.51692 
        1.11677         19.6144         7.41732 
         1.1229         19.4813          7.3197 
        1.12903         19.2487         7.22375 
        1.13518         19.1969         7.12944 
        1.14131         19.0635         7.03686 
        1.14745         18.8062         6.94598 
        1.15359         18.7803         6.85669 
        1.15973         18.5364         6.76892 
        1.16584         18.3812         6.68308 
        1.17197          18.331         6.59861 
        1.17811         18.1256         6.51533 
        1.18424         17.9875         6.43373 
        1.19038         17.9026         6.35329 
        1.19652         17.8167         6.27425 
        1.20267         17.6631         6.19655 
        1.20881         17.4946         6.12018 
        1.21495         17.3746         6.04521 
        1.22108         17.2471         5.97151 
         1.2272         17.0817         5.89921 
        1.23334         17.0231         5.82793 
        1.23949         16.9095         5.75767 
        1.24562         16.7526         5.68875 
        1.25174          16.679         5.62107 
        1.25789         16.5295         5.55428 
        1.26402         16.4269         5.48869 
        1.27014         16.2449         5.42432 
        1.27628         16.1644         5.36079 
        1.28244         16.0863         5.29816 
        1.28858         15.9975         5.23661 
        1.29471         15.8882         5.17617 
        1.30084         15.7812         5.11674 
        1.30697         15.6594         5.05815 
        1.31312         15.5189          5.0004 
        1.31925         15.4265         4.94373 
        1.32537         15.3474         4.88799 
        1.33151          15.245         4.83291 
        1.33765         15.1743         4.77871 
        1.34378         15.0419         4.72544 
        1.34992         14.9149         4.67295 
        1.35606         14.8595         4.62115 
         1.3622         14.7771         4.57021 
        1.36833         14.6373         4.52017 
        1.37445         14.6259          4.4709 
        1.38059         14.4789          4.4222 
        1.38675         14.3114         4.37412 
        1.39288         14.2974         4.32694 
        1.39901         14.1892         4.28047 
        1.40515         14.1233         4.23458 
         1.4113         14.0305         4.18938 
        1.41742         13.9035           4.145 
        1.42355         13.8728         4.10119 
         1.4297         13.8029         4.05788 
        1.43585         13.7361          4.0152 
        1.44198         13.6113          3.9733 
        1.44809         13.5151         3.93208 
        1.45423         13.4522         3.89129 
        1.46036         13.4039         3.85115 
        1.46649         13.3167         3.81156 
        1.47263         13.2007         3.77249 
        1.47877         13.1632         3.73399 
        1.48491         13.1306         3.69596 
        1.49104         13.0267         3.65854 
        1.49718         12.9186         3.62161 
        1.50333         12.8758         3.58513 
        1.50947         12.8024         3.54923 
         1.5156         12.7267         3.51387 
        1.52172         12.6462         3.47899 
        1.52787         12.5944         3.44451 
          1.534         12.4999         3.41054 
        1.54013         12.4125         3.37706 
        1.54627         12.3547         3.34397 
        1.55241         12.2713         3.31132 
        1.55855         12.2102         3.27914 
        1.56467         12.1367         3.24749 
         1.5708         12.1279         3.21616 
        1.57695         12.0056         3.18519 
        1.58308           11.98          3.1547 
        1.58922         11.9167         3.12459 
        1.59535         11.8277         3.09488 
         1.6015         11.7719         3.06551 
        1.60764         11.7347         3.03654 
        1.61376         11.6093         3.00802 
        1.61989         11.5717         2.97984 
        1.62604         11.5467         2.95196 
        1.63218         11.4809         2.92445 
        1.63831         11.4295         2.89736 
        1.64444         11.3387          2.8706 
        1.65059         11.2843         2.84411 
        1.65673         11.2207         2.81798 
        1.66285         11.1906         2.79225 
        1.66898         11.1516         2.76683 
        1.67512         11.0844         2.74168 
        1.68127         11.0344         2.71682 
         1.6874         10.9556         2.69232 
        1.69353         10.8925         2.66814 
        1.69967         10.8409          2.6442 
        1.70581         10.7893         2.62056 
        1.71193           10.75         2.59729 
        1.71806         10.6787         2.57426 
        1.72421         10.6322         2.55146 
        1.73035         10.5633         2.52897 
        1.73649         10.5447         2.50674 
        1.74262         10.5008          2.4848 
        1.74876         10.4519         2.46311 
        1.75489         10.3895         2.44172 
        1.76101         10.3268         2.42059 
        1.76715         10.2915         2.39969 
        1.77329         10.2409           2.379 
        1.77943         10.1873         2.35854 
        1.78557         10.1589         2.33836 
        1.79171          10.098         2.31841 
        1.79785         10.0238         2.29868 
        1.80399         9.99542         2.27919 
        1.81012         9.98499         2.25995 
        1.81625         9.92292         2.24094 
        1.82239         9.87891         2.22212 
        1.82853          9.8029         2.20352 
        1.83466         9.74698         2.18515 
        1.84078          9.7121         2.16701 
        1.84692         9.69384         2.14905 
        1.85306          9.6249         2.13127 
         1.8592         9.59137         2.11371 
        1.86533         9.55895         2.09636 
        1.87147         9.50922         2.07919 
        1.87761          9.4794          2.0622 
        1.88375         9.42307         2.04542 
        1.88988         9.36682         2.02884 
        1.89601          9.3393         2.01244 
        1.90215         9.30175          1.9962 
        1.90829         9.25604         1.98015 
        1.91442         9.22238         1.96428 
        1.92056          9.1762         1.94859 
         1.9267         9.12951         1.93306 
        1.93284         9.08752         1.91769 
        1.93897         9.05529         1.90251 
        1.94509         9.01236         1.88753 
        1.95123         8.98578         1.87267 
        1.95737         8.94941         1.85796 
        1.96349         8.90081         1.84345 
        1.96964         8.85424         1.82904 
        1.97578         8.82034         1.81479 
        1.98192         8.78248         1.80071 
        1.98805          8.7581         1.78679 
        1.99419         8.71146           1.773 
        2.00033         8.64707         1.75936 
        2.00647         8.61902         1.74586 
         2.0126         8.61139         1.73253 
        2.01874         8.55001         1.71931 
        2.02488         8.51655         1.70622 
        2.03101         8.49516         1.69329 
        2.03714         8.46566         1.68051 
        2.04328         8.40358         1.66784 
        2.04941         8.36906         1.65532 
        2.05554         8.36202         1.64293 
        2.06167         8.31476         1.63065 
        2.06781         8.29245         1.61849 
        2.07396         8.26311         1.60644 
        2.08009         8.23155         1.59453 
        2.08622         8.15689         1.58276 
        2.09237         8.15671         1.57108 
        2.09851         8.11559         1.55952 
        2.10464         8.07917         1.54809 
        2.11077         8.04228         1.53679 
        2.11691         8.01176         1.52558 
        2.12305         8.00488         1.51447 
        2.12918         7.94312         1.50351 
        2.13531           7.919         1.49265 
        2.14145           7.888         1.48187 
         2.1476         7.87814         1.47119 
        2.15372         7.82244         1.46066 
        2.15985          7.7843         1.45023 
        2.16599         7.77746         1.43987 
        2.17213         7.72849         1.42962 
        2.17827         7.71391         1.41947 
         2.1844         7.68101         1.40943 
        2.19054         7.65677         1.39949 
        2.19666         7.63921         1.38965 
         2.2028         7.60054          1.3799 
        2.20893         7.56057         1.37023 
        2.21508         7.51446         1.36065 
        2.22122         7.49623         1.35116 
        2.22736         7.47892         1.34177 
        2.23349         7.43872         1.33248 
        2.23962         7.40642         1.32327 
        2.24577         7.38963         1.31413 
         2.2519         7.36122          1.3051 
        2.25802          7.3409         1.29617 
        2.26417         7.31296         1.28729 
        2.27031         7.25998         1.27849 
        2.27644         7.25473         1.26979 
        2.28257         7.21983         1.26118 
        2.28872         7.20538         1.25263 
        2.29486         7.17214         1.24416 
        2.30099          7.1555         1.23579 
        2.30712         7.12059         1.22749 
        2.31326         7.09093         1.21925 
         2.3194         7.07202         1.21109 
        2.32553         7.03583         1.20302 
        2.33166         7.00467         1.19502 
         2.3378         6.98052         1.18709 
        2.34394          6.9664         1.17922 
        2.35007         6.92718         1.17144 
        2.35619         6.88717         1.16374 
        2.36233          6.8842         1.15609 
        2.36848         6.87054         1.14849 
        2.37462         6.84154         1.14097 
        2.38075         6.79416         1.13353 
        2.38689         6.79075         1.12615 
        2.39303         6.75204         1.11884 
        2.39916         6.74208          1.1116 
        2.40529         6.71217         1.10442 
        2.41143         6.69697          1.0973 
        2.41757         6.66753         1.09024 
         2.4237          6.6484         1.08325 
        2.42983         6.60927         1.07633 
        2.43598         6.60648         1.06945 
        2.44211          6.5791         1.06263 
        2.44823         6.54965          1.0559 
        2.45437         6.54087          1.0492 
        2.46052         6.49892         1.04256 
        2.46665          6.4747         1.03598 
        2.47279         6.44644         1.02946 
        2.47892         6.43366           1.023 
        2.48507         6.40823         1.01658 
         2.4912         6.39705         1.01023 
