# k  (h/Mpc)    P(k)  (Mpc/h)^3    P_linear(k)  (Mpc/h)^3
     0.00783031         1753.03         1775.25 
       0.013688         1964.28         1966.71 
       0.019231         1799.06         1797.45 
      0.0249154         1486.85         1493.38 
      0.0312784         1161.43         1158.88 
      0.0375637         918.455         913.088 
      0.0433917         770.139         769.208 
      0.0492413         687.183         685.526 
      0.0555754         628.268         631.126 
      0.0619321         586.289         583.583 
       0.067871         527.377         529.006 
      0.0738098         461.746         462.935 
      0.0800417         389.177         390.471 
      0.0862327         328.147         327.377 
      0.0921407         284.343         282.521 
      0.0982031         253.672         253.074 
       0.104506         238.779         236.241 
       0.110769         228.176         226.667 
       0.116806         217.906         217.737 
       0.122832         205.953         204.953 
       0.129052         186.885         186.851 
       0.135211         166.709          166.27 
       0.141259         148.609         146.923 
       0.147318         133.437         131.131 
       0.153489         121.678         119.881 
       0.159709         114.755         112.971 
       0.165845         111.183         108.901 
       0.171974         106.707         105.591 
       0.178125          102.72         101.406 
       0.184229         97.1792           95.67 
        0.19034         89.3098         88.6184 
       0.196428         82.7857         81.2092 
       0.202534         76.8325         74.4219 
       0.208729         70.9325         68.9036 
       0.214876         66.6287         64.9648 
       0.220989          64.307         62.2713 
       0.227147         61.6554         60.2234 
        0.23329         59.5877          58.247 
       0.239377         57.4578         55.9414 
       0.245482         54.1667         53.1556 
       0.251667          51.636         50.0128 
       0.257832          48.541         46.8762 
       0.263955         45.8139         44.0591 
       0.270079         43.4886         41.7239 
        0.27624         41.9282         39.8765 
       0.282372         40.4549         38.4182 
        0.28843         38.9129         37.1691 
       0.294538         37.5117         35.9209 
       0.300721         36.4098         34.5598 
        0.30691         34.6797         33.0708 
       0.313033         33.1728           31.54 
       0.319153         31.3663         30.0443 
       0.325316         30.5006         28.6674 
        0.33145         29.1679         27.4703 
       0.337538         28.2133         26.4561 
       0.343633         27.1504           25.57 
       0.349808         26.3859         24.7443 
       0.355968         25.5951         23.9388 
       0.362074         24.7064         23.1212 
       0.368217         23.8376         22.2809 
       0.374374         22.9337         21.4354 
       0.380519          22.222         20.6192 
       0.386598         21.5044         19.8671 
       0.392688         20.9122         19.1783 
        0.39888         20.1865         18.5456 
       0.405048         19.6287          17.969 
       0.411186          19.089         17.4268 
       0.417313         18.4662         16.9014 
       0.423458         17.9441         16.3815 
       0.429607         17.3897         15.8634 
       0.435692         16.8257         15.3601 
       0.441815         16.3874         14.8723 
       0.447964         16.0155         14.4073 
       0.454126         15.3977         13.9692 
       0.460267         15.0602         13.5617 
       0.466387         14.5711         13.1798 
        0.47254          14.269         12.8128 
       0.478662         13.9776         12.4588 
       0.484765         13.5146         12.1152 
       0.490885         13.1836         11.7792 
       0.497035         12.9664           11.45 
       0.503198          12.574         11.1307 
       0.509342         12.2455         10.8254 
       0.515458         11.9251         10.5362 
       0.521598         11.6711         10.2599 
       0.527764         11.3613          9.9941 
       0.533884         11.1638         9.74009 
           0.54         10.8764         9.49464 
       0.546137         10.6575         9.25605 
       0.552299         10.4391         9.02374 
       0.558452         10.1122          8.7986 
       0.564573         9.94047         8.58143 
       0.570708         9.72265         8.37095 
       0.576825         9.46857         8.16864 
       0.582926         9.27227         7.97459 
       0.589034         9.01008         7.78759 
       0.595184         8.86552         7.60588 
       0.601379         8.65156         7.42879 
       0.607522          8.5092         7.25836 
       0.613639         8.37567          7.0934 
       0.619772         8.13955         6.93279 
       0.625918         8.05512         6.77667 
       0.632068         7.91787         6.62534 
       0.638161          7.7048         6.48023 
         0.6443          7.5424         6.33871 
       0.650464         7.37495         6.20112 
       0.656582           7.305         6.06871 
       0.662703         7.15312         5.94014 
       0.668861         7.01301          5.8145 
       0.675024         6.86476         5.69228 
       0.681124         6.73696         5.57472 
       0.687237         6.62226          5.4602 
       0.693381         6.51669         5.34834 
       0.699536         6.33714         5.23944 
       0.705665         6.25986         5.13409 
       0.711789         6.14141         5.03179 
       0.717957         6.02364         4.93164 
        0.72409         5.91759          4.8348 
       0.730186         5.82951         4.74117 
       0.736317         5.75812         4.64952 
       0.742472          5.6569         4.55995 
       0.748622         5.55691         4.47281 
        0.75476         5.43989         4.38812 
       0.760888         5.35342         4.30574 
       0.767043         5.28097         4.22514 
       0.773185         5.16998         4.14676 
       0.779291         5.11832         4.07082 
       0.785407         5.03306         3.99668 
       0.791564         4.95355         3.92392 
       0.797719         4.85502         3.85301 
       0.803834         4.81729         3.78432 
       0.809972         4.75081         3.71706 
       0.816124         4.64811          3.6513 
       0.822261         4.56449         3.58731 
       0.828378         4.50804         3.52505 
       0.834502         4.46542         3.46423 
       0.840667         4.37087         3.40445 
       0.846816         4.29235         3.34625 
       0.852925         4.25299         3.28979 
       0.859047         4.18678         3.23451 
       0.865192         4.14107         3.18032 
       0.871341         4.08937         3.12734 
       0.877463         4.02219         3.07581 
       0.883569         3.95088         3.02558 
       0.889708         3.88484         2.97621 
       0.895864         3.83217         2.92781 
       0.902008         3.78987          2.8806 
       0.908149         3.74786         2.83445 
       0.914301         3.68475         2.78925 
       0.920448         3.62997         2.74507 
       0.926574         3.57756           2.702 
       0.932687         3.53304         2.65995 
       0.938823         3.48747         2.61864 
       0.944975         3.44087         2.57811 
       0.951105         3.39925         2.53859 
       0.957225         3.37938         2.49996 
       0.963368         3.32829           2.462 
       0.969511         3.27861         2.42483 
       0.975621         3.23342         2.38863 
       0.981748         3.19602         2.35307 
       0.987916         3.15916         2.31801 
        0.99406         3.10243          2.2838 
        1.00019         3.06287         2.25034 
        1.00632         3.03862         2.21759 
        1.01246         2.99836         2.18544 
        1.01859         2.95693         2.15397 
        1.02471         2.92576         2.12317 
        1.03085         2.88629         2.09286 
        1.03698         2.84648         2.06321 
        1.04314         2.81978         2.03401 
        1.04929         2.78599         2.00544 
        1.05541         2.74963         1.97754 
        1.06154         2.72109          1.9501 
        1.06769         2.70351         1.92314 
        1.07382         2.65663         1.89677 
        1.07993         2.62115         1.87096 
        1.08607         2.60675         1.84553 
        1.09222         2.57043         1.82054 
        1.09836          2.5428         1.79604 
        1.10449         2.51746         1.77203 
        1.11063         2.48166         1.74842 
        1.11677         2.46086         1.72526 
         1.1229          2.4351         1.70255 
        1.12903         2.40208         1.68023 
        1.13518         2.37644          1.6583 
        1.14131         2.34581         1.63676 
        1.14745         2.31263         1.61563 
        1.15359         2.29895         1.59486 
        1.15973         2.26621         1.57444 
        1.16584         2.24718         1.55448 
        1.17197         2.22258         1.53483 
        1.17811          2.2078         1.51546 
        1.18424         2.18095         1.49648 
        1.19038         2.16294         1.47777 
        1.19652         2.13689         1.45938 
        1.20267         2.11546         1.44131 
        1.20881         2.09621         1.42354 
        1.21495         2.07492         1.40611 
        1.22108         2.05297         1.38896 
         1.2272          2.0362         1.37215 
        1.23334         2.00891         1.35557 
        1.23949         1.98748         1.33923 
        1.24562         1.97334          1.3232 
        1.25174          1.9504         1.30745 
        1.25789         1.93446         1.29192 
        1.26402         1.91427         1.27666 
        1.27014         1.89467         1.26169 
        1.27628         1.88118         1.24691 
        1.28244         1.85588         1.23234 
        1.28858         1.84507         1.21803 
        1.29471         1.82075         1.20397 
        1.30084         1.80134         1.19015 
        1.30697         1.79629         1.17652 
        1.31312         1.76469         1.16309 
        1.31925         1.75303          1.1499 
        1.32537         1.73556         1.13694 
        1.33151         1.72629         1.12413 
        1.33765         1.70259         1.11152 
        1.34378         1.69202         1.09913 
        1.34992         1.67957         1.08692 
        1.35606         1.65363         1.07487 
         1.3622          1.6472         1.06303 
        1.36833         1.62953         1.05139 
        1.37445         1.61301         1.03992 
        1.38059         1.60667          1.0286 
        1.38675         1.59339         1.01741 
        1.39288         1.57714         1.00644 
        1.39901         1.55743        0.995632 
        1.40515         1.54537        0.984958 
         1.4113         1.53409        0.974444 
        1.41742         1.52146        0.964123 
        1.42355         1.50922        0.953932 
         1.4297         1.49456        0.943857 
        1.43585         1.48446        0.933931 
        1.44198         1.47367        0.924186 
        1.44809         1.45767        0.914597 
        1.45423         1.44511        0.905109 
        1.46036         1.43123        0.895772 
        1.46649          1.4218        0.886564 
        1.47263         1.40717        0.877477 
        1.47877         1.39545        0.868521 
        1.48491         1.38461        0.859676 
        1.49104          1.3747        0.850973 
        1.49718         1.36373        0.842383 
        1.50333         1.35208        0.833897 
        1.50947         1.34153        0.825546 
         1.5156         1.33008        0.817321 
        1.52172         1.31924        0.809208 
        1.52787         1.30844        0.801188 
          1.534         1.29653        0.793287 
        1.54013          1.2872          0.7855 
        1.54627         1.27667        0.777803 
        1.55241         1.26522        0.770208 
        1.55855         1.25742        0.762725 
        1.56467         1.24909        0.755361 
         1.5708         1.23666        0.748074 
        1.57695         1.22863        0.740871 
        1.58308         1.21736         0.73378 
        1.58922         1.21047        0.726776 
        1.59535         1.20054        0.719865 
         1.6015         1.19017        0.713035 
        1.60764         1.18369        0.706296 
        1.61376         1.17516        0.699662 
        1.61989         1.16405        0.693108 
        1.62604         1.15466        0.686623 
        1.63218         1.15027        0.680225 
        1.63831         1.13832        0.673922 
        1.64444         1.13065        0.667697 
        1.65059         1.12229        0.661536 
        1.65673         1.11382        0.655458 
        1.66285         1.10522        0.649474 
        1.66898         1.09976        0.643562 
        1.67512         1.08796        0.637713 
        1.68127         1.08069         0.63193 
         1.6874         1.07737        0.626232 
        1.69353         1.06379        0.620607 
        1.69967         1.05665        0.615037 
        1.70581         1.05303        0.609539 
        1.71193         1.04291        0.604128 
        1.71806         1.03829         0.59877 
        1.72421         1.03007        0.593467 
        1.73035          1.0219        0.588235 
        1.73649         1.01531        0.583066 
        1.74262         1.00781        0.577963 
        1.74876         1.00158        0.572917 
        1.75489        0.991838        0.567942 
        1.76101        0.985659        0.563028 
        1.76715        0.981121        0.558164 
        1.77329        0.974584        0.553352 
        1.77943        0.965165        0.548595 
        1.78557        0.958709          0.5439 
        1.79171        0.955725        0.539259 
        1.79785        0.946242        0.534671 
        1.80399        0.940843        0.530137 
        1.81012        0.934971        0.525662 
        1.81625        0.929332         0.52124 
        1.82239        0.922167        0.516862 
        1.82853        0.913313        0.512537 
        1.83466        0.909533        0.508265 
        1.84078        0.904595        0.504045 
        1.84692        0.899339        0.499867 
        1.85306         0.89224        0.495731 
         1.8592        0.885761        0.491647 
        1.86533        0.879779        0.487612 
        1.87147        0.875341        0.483618 
        1.87761        0.869002        0.479666 
        1.88375        0.862964        0.475763 
        1.88988        0.859422        0.471907 
        1.89601        0.852682        0.468091 
        1.90215        0.844719        0.464315 
        1.90829        0.838719        0.460582 
        1.91442        0.836744         0.45689 
        1.92056        0.830096        0.453241 
         1.9267        0.824383        0.449628 
        1.93284        0.823023        0.446052 
        1.93897        0.815194        0.442522 
        1.94509        0.810489        0.439038 
        1.95123        0.804098        0.435581 
        1.95737        0.799404         0.43216 
        1.96349        0.795214        0.428784 
        1.96964        0.790865        0.425434 
        1.97578         0.78425        0.422118 
        1.98192        0.780599        0.418844 
        1.98805        0.775813        0.415605 
        1.99419        0.773327        0.412399 
        2.00033        0.768665        0.409225 
        2.00647        0.761295        0.406086 
         2.0126        0.758316        0.402984 
        2.01874        0.752409        0.399911 
        2.02488        0.749316        0.396866 
        2.03101        0.742497        0.393859 
        2.03714        0.738693        0.390885 
        2.04328        0.735982        0.387939 
        2.04941        0.729845        0.385025 
        2.05554        0.726278        0.382143 
        2.06167        0.721153        0.379287 
        2.06781        0.718465        0.376459 
        2.07396        0.713599        0.373657 
        2.08009        0.709676        0.370887 
        2.08622        0.705544        0.368148 
        2.09237        0.701253        0.365432 
        2.09851        0.697357        0.362743 
        2.10464        0.695336        0.360084 
        2.11077        0.689844        0.357456 
        2.11691        0.685319        0.354848 
        2.12305        0.682437        0.352265 
        2.12918         0.67843        0.349715 
        2.13531        0.673806        0.347189 
        2.14145         0.67059        0.344683 
         2.1476         0.66529        0.342198 
        2.15372        0.662962        0.339749 
        2.15985        0.658194        0.337323 
        2.16599        0.655083        0.334913 
        2.17213        0.650015        0.332529 
        2.17827        0.648749        0.330168 
         2.1844        0.644912        0.327833 
        2.19054        0.642261        0.325519 
        2.19666        0.637973        0.323231 
         2.2028        0.634258        0.320963 
        2.20893        0.631884        0.318715 
        2.21508         0.62796        0.316486 
        2.22122        0.622619        0.314278 
        2.22736        0.620398        0.312095 
        2.23349        0.618512        0.309933 
        2.23962        0.613423        0.307791 
        2.24577        0.611168        0.305667 
         2.2519         0.60714        0.303566 
        2.25802        0.603991        0.301488 
        2.26417        0.600966        0.299423 
        2.27031        0.598166        0.297376 
        2.27644        0.594563        0.295353 
        2.28257        0.590931         0.29335 
        2.28872        0.588757        0.291361 
        2.29486        0.584651        0.289391 
        2.30099        0.581665        0.287443 
        2.30712        0.578683        0.285513 
        2.31326        0.576585        0.283596 
         2.3194        0.574357        0.281698 
        2.32553        0.571474        0.279821 
        2.33166        0.567107        0.277961 
         2.3378        0.564236        0.276116 
        2.34394        0.560591        0.274287 
        2.35007        0.558525        0.272477 
        2.35619        0.556579        0.270685 
        2.36233        0.552269        0.268905 
        2.36848        0.549864        0.267138 
        2.37462        0.547607         0.26539 
        2.38075          0.5451        0.263659 
        2.38689        0.542304        0.261942 
        2.39303        0.538892        0.260241 
        2.39916        0.536503        0.258557 
        2.40529        0.533947        0.256887 
        2.41143        0.531195        0.255231 
        2.41757        0.529106        0.253589 
         2.4237        0.527306        0.251964 
        2.42983        0.523513        0.250353 
        2.43598        0.521728        0.248752 
        2.44211        0.519479        0.247168 
        2.44823        0.516159        0.245601 
        2.45437        0.513889        0.244044 
        2.46052         0.51231        0.242498 
        2.46665        0.508859        0.240968 
        2.47279        0.506526        0.239452 
        2.47892        0.503319        0.237948 
        2.48507        0.501992        0.236456 
         2.4912        0.498887        0.234979 
