# k  (h/Mpc)    P(k)  (Mpc/h)^3    P_linear(k)  (Mpc/h)^3
     0.00783031          5472.2         5523.54 
       0.013688          6449.9          6571.6 
       0.019231         6375.81         6436.34 
      0.0249154         5783.25         5768.83 
      0.0312784         4849.76         4863.12 
      0.0375637         4057.55         4086.08 
      0.0433917         3560.17         3557.11 
      0.0492413         3181.09         3195.14 
      0.0555754         2930.69         2925.75 
      0.0619321         2654.57          2702.9 
       0.067871         2468.75         2485.33 
      0.0738098         2238.01         2242.12 
      0.0800417          1980.9         1973.53 
      0.0862327         1725.68          1723.1 
      0.0921407         1531.39         1523.78 
      0.0982031         1390.13         1370.18 
       0.104506         1262.56         1260.65 
       0.110769         1190.99         1186.42 
       0.116806         1145.72         1128.59 
       0.122832         1074.12         1068.78 
       0.129052         1007.21         996.549 
       0.135211         939.181         915.387 
       0.141259         851.997         833.567 
       0.147318         771.594         758.233 
       0.153489         715.092         694.759 
       0.159709          675.83         646.381 
       0.165845         626.406         611.725 
       0.171974         613.763         585.169 
       0.178125         588.855         561.106 
       0.184229         552.661         535.624 
        0.19034         532.194         506.775 
       0.196428         504.586         475.448 
       0.202534          464.65         443.755 
       0.208729         446.946         414.002 
       0.214876         424.862          388.73 
       0.220989         396.208         368.329 
       0.227147         386.998         351.844 
        0.23329          372.94         337.984 
       0.239377         363.805         325.214 
       0.245482         345.745          312.17 
       0.251667         329.917         298.185 
       0.257832         323.179         283.676 
       0.263955         303.254         269.369 
       0.270079         289.983         255.898 
        0.27624         276.693         243.759 
       0.282372         268.181         233.249 
        0.28843         265.156         224.231 
       0.294538         252.698          216.11 
       0.300721         242.956         208.401 
        0.30691         238.586         200.822 
       0.313033         227.949         193.271 
       0.319153         223.322         185.707 
       0.325316         215.535         178.225 
        0.33145         208.632         171.128 
       0.337538         201.176         164.585 
       0.343633         194.797         158.596 
       0.349808         188.793         153.069 
       0.355968         184.108         147.972 
       0.362074         179.768         143.203 
       0.368217         175.978         138.564 
       0.374374         171.496         134.011 
       0.380519         164.241         129.553 
       0.386598         160.758         125.255 
       0.392688         155.969          121.12 
        0.39888         152.887         117.131 
       0.405048         149.305         113.393 
       0.411186         146.741         109.907 
       0.417313         143.105         106.622 
       0.423458         139.342         103.484 
       0.429607         136.252         100.467 
       0.435692             134         97.5738 
       0.441815         130.141         94.7429 
       0.447964         126.153         91.9899 
       0.454126         123.847         89.3299 
       0.460267         122.664         86.7854 
       0.466387          119.65         84.3623 
        0.47254         118.164         82.0405 
       0.478662         114.082         79.8329 
       0.484765         112.369         77.7209 
       0.490885         109.842         75.6812 
       0.497035         108.864         73.7018 
       0.503198          106.52         71.7823 
       0.509342         103.725          69.928 
       0.515458         102.281         68.1432 
       0.521598         99.7461         66.4146 
       0.527764          98.651         64.7434 
       0.533884          97.826         63.1461 
           0.54         95.1552          61.608 
       0.546137         92.8524         60.1192 
       0.552299         91.3858         58.6759 
       0.558452         89.6919         57.2828 
       0.564573         89.2547         55.9405 
       0.570708          86.671          54.636 
       0.576825         85.7531         53.3754 
       0.582926         84.7379         52.1577 
       0.589034         83.1876         50.9775 
       0.595184         82.1274          49.828 
       0.601379         80.1591         48.7077 
       0.607522         78.7474         47.6318 
       0.613639         78.0773         46.5934 
       0.619772         76.6164         45.5837 
       0.625918         75.8319         44.6019 
       0.632068         74.5356         43.6485 
       0.638161         73.2822         42.7317 
         0.6443         72.7725         41.8349 
       0.650464         71.1306         40.9607 
       0.656582         70.8585         40.1181 
       0.662703          69.859         39.2992 
       0.668861         68.2642         38.4988 
       0.675024         68.0875         37.7204 
       0.681124         67.0573         36.9716 
       0.687237         65.7704         36.2419 
       0.693381         65.2029         35.5288 
       0.699536          64.445         34.8338 
       0.705665         63.4788         34.1606 
       0.711789         62.5482          33.506 
       0.717957         61.7074         32.8642 
        0.72409         61.1067         32.2429 
       0.730186         60.7311         31.6416 
       0.736317         59.6334         31.0525 
       0.742472         58.8692         30.4763 
       0.748622         58.0089         29.9154 
        0.75476         57.4031         29.3699 
       0.760888         57.2018          28.839 
       0.767043         56.0212         28.3192 
       0.773185         55.3494         27.8134 
       0.779291         54.7088         27.3229 
       0.785407         54.0323         26.8437 
       0.791564         53.9837          26.373 
       0.797719         53.0387          25.914 
       0.803834         52.6404         25.4689 
       0.809972         52.0453         25.0327 
       0.816124         51.4519         24.6059 
       0.822261         50.7478         24.1903 
       0.828378         50.5744         23.7856 
       0.834502         49.8797         23.3899 
       0.840667          49.495         23.0007 
       0.846816         48.8533         22.6216 
       0.852925         48.3925         22.2534 
       0.859047         48.2532         21.8928 
       0.865192         47.4286          21.539 
       0.871341         46.8924         21.1928 
       0.877463         46.4849         20.8559 
       0.883569         46.3584         20.5272 
       0.889708         45.8128          20.204 
       0.895864         45.3919          19.887 
       0.902008         44.9166         19.5775 
       0.908149         44.4293         19.2748 
       0.914301          44.107         18.9781 
       0.920448         43.8766          18.688 
       0.926574         43.1183          18.405 
       0.932687          42.837         18.1284 
       0.938823         42.3865         17.8567 
       0.944975         41.9509         17.5899 
       0.951105          41.656         17.3295 
       0.957225         41.3956         17.0749 
       0.963368         40.9853         16.8246 
       0.969511         40.6211         16.5794 
       0.975621         40.3263         16.3403 
       0.981748         39.8996         16.1054 
       0.987916         39.5993         15.8737 
        0.99406         39.2426         15.6474 
        1.00019         38.9074          15.426 
        1.00632         38.6263         15.2092 
        1.01246         38.2988         14.9962 
        1.01859         38.0272         14.7876 
        1.02471         37.6266         14.5833 
        1.03085         37.4366         14.3822 
        1.03698         37.1967         14.1853 
        1.04314         36.8757         13.9912 
        1.04929          36.447         13.8013 
        1.05541         36.3527         13.6157 
        1.06154         36.0772          13.433 
        1.06769         35.5789         13.2535 
        1.07382         35.4243         13.0778 
        1.07993         35.1788         12.9058 
        1.08607         34.8835         12.7361 
        1.09222         34.6981         12.5694 
        1.09836         34.3725         12.4058 
        1.10449         34.2226         12.2454 
        1.11063         33.8784         12.0876 
        1.11677         33.8283         11.9327 
         1.1229         33.4548         11.7808 
        1.12903         33.2352         11.6315 
        1.13518         33.1539         11.4846 
        1.14131         32.8041         11.3403 
        1.14745         32.4888         11.1986 
        1.15359         32.1877         11.0594 
        1.15973         32.1108         10.9224 
        1.16584           31.86         10.7884 
        1.17197         31.4772         10.6565 
        1.17811         31.3712         10.5264 
        1.18424         30.9564         10.3988 
        1.19038         30.8998          10.273 
        1.19652         30.6876         10.1493 
        1.20267         30.5376         10.0277 
        1.20881         30.2997         9.90811 
        1.21495         30.1762         9.79067 
        1.22108         30.0605         9.67515 
         1.2272         29.7765         9.56178 
        1.23334          29.605         9.44998 
        1.23949          29.387          9.3397 
        1.24562         29.1431          9.2315 
        1.25174         28.9954         9.12518 
        1.25789         28.9027         9.02022 
        1.26402         28.6958         8.91711 
        1.27014         28.5424         8.81586 
        1.27628         28.2524         8.71589 
        1.28244           28.25         8.61728 
        1.28858         27.9656         8.52033 
        1.29471         27.7778          8.4251 
        1.30084         27.5905         8.33142 
        1.30697         27.4935         8.23902 
        1.31312         27.2663          8.1479 
        1.31925         27.0509         8.05845 
        1.32537          26.895         7.97043 
        1.33151         26.7149         7.88343 
        1.33765         26.6817         7.79777 
        1.34378         26.5371         7.71357 
        1.34992         26.3185         7.63056 
        1.35606         26.1309         7.54859 
         1.3622         26.0069         7.46799 
        1.36833         25.9044         7.38875 
        1.37445         25.6838         7.31072 
        1.38059         25.5675         7.23357 
        1.38675         25.3882         7.15736 
        1.39288         25.2507         7.08255 
        1.39901         25.0962         7.00886 
        1.40515         24.9944         6.93605 
         1.4113          24.921         6.86431 
        1.41742         24.7697         6.79386 
        1.42355         24.5434         6.72427 
         1.4297         24.4302         6.65545 
        1.43585         24.2844         6.58762 
        1.44198         24.1976         6.52101 
        1.44809         24.0365         6.45544 
        1.45423         23.9302         6.39053 
        1.46036         23.8317         6.32664 
        1.46649         23.6708          6.2636 
        1.47263         23.5213         6.20137 
        1.47877         23.4044         6.14001 
        1.48491         23.3094         6.07939 
        1.49104         23.1448         6.01971 
        1.49718         23.1082          5.9608 
        1.50333         22.9798         5.90258 
        1.50947           22.82         5.84526 
         1.5156         22.7149         5.78879 
        1.52172         22.5658         5.73307 
        1.52787         22.5014         5.67797 
          1.534         22.3592         5.62366 
        1.54013         22.3179         5.57013 
        1.54627         22.1126         5.51719 
        1.55241         22.0053         5.46494 
        1.55855         21.9184         5.41344 
        1.56467         21.8386         5.36275 
         1.5708         21.7056         5.31257 
        1.57695         21.6343         5.26295 
        1.58308         21.4283         5.21409 
        1.58922         21.3448         5.16581 
        1.59535         21.2618         5.11817 
         1.6015          21.175         5.07106 
        1.60764         21.0591         5.02457 
        1.61376         20.9744         4.97879 
        1.61989          20.789         4.93355 
        1.62604         20.7321         4.88877 
        1.63218         20.6512         4.84457 
        1.63831          20.532         4.80103 
        1.64444         20.4424         4.75801 
        1.65059         20.3507         4.71541 
        1.65673         20.2628         4.67338 
        1.66285         20.1708         4.63199 
        1.66898         20.0634         4.59108 
        1.67512         20.0239         4.55059 
        1.68127         19.9087         4.51055 
         1.6874         19.8103         4.47108 
        1.69353         19.6938         4.43211 
        1.69967         19.5989         4.39352 
        1.70581         19.5122          4.3554 
        1.71193         19.4037         4.31787 
        1.71806         19.3439         4.28071 
        1.72421         19.2663         4.24392 
        1.73035          19.153         4.20759 
        1.73649         19.0571         4.17171 
        1.74262         18.9743         4.13627 
        1.74876          18.899         4.10122 
        1.75489         18.8076         4.06665 
        1.76101         18.7016         4.03249 
        1.76715         18.6637         3.99867 
        1.77329         18.5256         3.96521 
        1.77943         18.4765         3.93211 
        1.78557         18.4137         3.89944 
        1.79171         18.3007         3.86714 
        1.79785         18.2199         3.83519 
        1.80399          18.118         3.80362 
        1.81012         18.0843         3.77244 
        1.81625          17.975         3.74163 
        1.82239         17.8887         3.71112 
        1.82853         17.8242         3.68096 
        1.83466         17.7222         3.65117 
        1.84078         17.6561         3.62174 
        1.84692         17.6316         3.59259 
        1.85306         17.5226         3.56372 
         1.8592         17.4793         3.53522 
        1.86533         17.3427         3.50704 
        1.87147         17.2666         3.47914 
        1.87761         17.2086         3.45154 
        1.88375         17.1722         3.42426 
        1.88988         17.0558         3.39731 
        1.89601         17.0049         3.37064 
        1.90215         16.8953         3.34423 
        1.90829         16.8465         3.31812 
        1.91442         16.7268         3.29228 
        1.92056         16.7035         3.26675 
         1.9267         16.6306         3.24146 
        1.93284         16.6286         3.21642 
        1.93897         16.5173          3.1917 
        1.94509          16.444         3.16729 
        1.95123         16.3408         3.14307 
        1.95737         16.2729         3.11909 
        1.96349         16.2196         3.09542 
        1.96964         16.2226         3.07193 
        1.97578         16.0986         3.04867 
        1.98192         16.0434          3.0257 
        1.98805         15.9092         3.00296 
        1.99419         15.9164         2.98046 
        2.00033         15.8216         2.95818 
        2.00647         15.7658         2.93613 
         2.0126         15.6946         2.91434 
        2.01874         15.6398         2.89274 
        2.02488         15.5267         2.87135 
        2.03101         15.4922         2.85021 
        2.03714         15.4194          2.8293 
        2.04328         15.3862         2.80858 
        2.04941         15.2942         2.78808 
        2.05554          15.266          2.7678 
        2.06167         15.2164          2.7477 
        2.06781          15.151         2.72779 
        2.07396         15.1115         2.70806 
        2.08009         15.0112         2.68855 
        2.08622         14.9612         2.66926 
        2.09237         14.9379         2.65012 
        2.09851         14.8314         2.63116 
        2.10464          14.771         2.61243 
        2.11077         14.7177         2.59389 
        2.11691         14.6539          2.5755 
        2.12305         14.6144         2.55728 
        2.12918         14.5489         2.53929 
        2.13531         14.4977         2.52146 
        2.14145         14.4124         2.50377 
         2.1476         14.3397         2.48622 
        2.15372         14.3382         2.46894 
        2.15985         14.2679         2.45179 
        2.16599         14.2057         2.43477 
        2.17213         14.1729         2.41792 
        2.17827         14.0928         2.40124 
         2.1844         14.0395         2.38473 
        2.19054         14.0215         2.36837 
        2.19666         13.9411         2.35219 
         2.2028         13.9163         2.33614 
        2.20893         13.8149         2.32024 
        2.21508         13.7744         2.30446 
        2.22122         13.7012         2.28883 
        2.22736         13.7051         2.27338 
        2.23349         13.6174         2.25807 
        2.23962         13.5852         2.24289 
        2.24577         13.5412         2.22785 
         2.2519         13.4734         2.21296 
        2.25802         13.3916         2.19823 
        2.26417         13.3882         2.18359 
        2.27031         13.3353         2.16908 
        2.27644         13.3104         2.15473 
        2.28257         13.2124         2.14052 
        2.28872         13.2157         2.12641 
        2.29486         13.1532         2.11243 
        2.30099         13.0769         2.09861 
        2.30712         13.0234          2.0849 
        2.31326         12.9765         2.07129 
         2.3194         12.9187         2.05781 
        2.32553          12.893         2.04448 
        2.33166         12.8137         2.03127 
         2.3378         12.8001         2.01815 
        2.34394          12.724         2.00515 
        2.35007          12.704         1.99229 
        2.35619         12.6625         1.97955 
        2.36233         12.5937         1.96689 
        2.36848         12.5286         1.95432 
        2.37462         12.4858         1.94188 
        2.38075         12.4524         1.92956 
        2.38689         12.4296         1.91734 
        2.39303         12.3525         1.90523 
        2.39916         12.3256         1.89324 
        2.40529         12.2952         1.88135 
        2.41143         12.2218         1.86955 
        2.41757         12.1757         1.85785 
         2.4237         12.1338         1.84627 
        2.42983         12.1127          1.8348 
        2.43598          12.063         1.82338 
        2.44211         12.0009         1.81209 
        2.44823         11.9695         1.80091 
        2.45437         11.9484          1.7898 
        2.46052         11.8821         1.77878 
        2.46665         11.8649         1.76786 
        2.47279         11.8005         1.75705 
        2.47892         11.7483         1.74631 
        2.48507         11.7138         1.73566 
         2.4912         11.6723         1.72511 
