# k  (h/Mpc)    P(k)  (Mpc/h)^3    P_linear(k)  (Mpc/h)^3
     0.00783031         759.715         766.383 
       0.013688         947.124          957.23 
       0.019231         966.257         970.489 
      0.0249154         894.143         894.045 
      0.0312784         770.201         770.383 
      0.0375637         654.753         655.606 
      0.0433917         575.326         573.975 
      0.0492413         517.131         517.272 
      0.0555754         477.542         476.291 
      0.0619321         441.944         444.708 
       0.067871         414.188         414.783 
      0.0738098         380.025          380.19 
      0.0800417         340.237         339.535 
      0.0862327         299.137         298.948 
      0.0921407         264.744         264.545 
      0.0982031         237.695         236.601 
       0.104506         215.813         216.077 
       0.110769         202.524         202.659 
       0.116806         194.332         193.534 
       0.122832          185.07         185.285 
       0.129052         175.779         175.463 
       0.135211         164.446         163.598 
       0.141259          150.83         150.456 
       0.147318         137.117         137.201 
       0.153489         125.593         125.094 
       0.159709         116.231         115.305 
       0.165845         108.179         108.216 
       0.171974         104.246         103.207 
       0.178125         100.246         99.3823 
       0.184229         96.1662         95.8417 
        0.19034         92.7433          91.854 
       0.196428         87.9823          87.167 
       0.202534         82.0612         81.9087 
       0.208729         77.3388         76.4549 
       0.214876         72.7452         71.4302 
       0.220989         67.7791         67.1735 
       0.227147         65.1177         63.7561 
        0.23329          62.506           61.11 
       0.239377         60.4393         58.9789 
       0.245482          58.278         57.0235 
       0.251667         55.9103          54.973 
       0.257832         54.1576         52.7263 
       0.263955         51.3726         50.3065 
       0.270079          48.925         47.8218 
        0.27624         46.3488         45.4174 
       0.282372         44.3006         43.2574 
        0.28843         42.9166         41.4182 
       0.294538         41.2196         39.8508 
       0.300721         39.5808         38.4901 
        0.30691         38.6443         37.2506 
       0.313033         37.3006          36.054 
       0.319153         36.4245         34.8248 
       0.325316         34.6868          33.542 
        0.33145         33.3756         32.2422 
       0.337538         32.2099         30.9784 
       0.343633         31.1488         29.7858 
       0.349808         29.9698         28.6839 
       0.355968         28.9428         27.7008 
       0.362074         28.2602          26.824 
       0.368217         27.3796         26.0138 
       0.374374         26.7797          25.239 
       0.380519         25.7601         24.4781 
       0.386598         24.9363         23.7261 
       0.392688         24.1428         22.9722 
        0.39888         23.5291         22.2191 
       0.405048         22.8537         21.4966 
       0.411186         22.1434         20.8167 
       0.417313          21.504         20.1857 
       0.423458         20.8104         19.5977 
       0.429607         20.4149         19.0466 
       0.435692         19.9724         18.5292 
       0.441815          19.288         18.0265 
       0.447964          18.693         17.5315 
       0.454126         18.3324         17.0445 
       0.460267         18.0077         16.5697 
       0.466387         17.4615         16.1096 
        0.47254         17.0957         15.6643 
       0.478662          16.596         15.2425 
       0.484765         16.2034         14.8437 
       0.490885         15.7397         14.4629 
       0.497035         15.3504         14.0972 
       0.503198         15.0578          13.745 
       0.509342         14.6258         13.4051 
       0.515458         14.3811         13.0752 
       0.521598         14.0504         12.7519 
       0.527764         13.8068         12.4363 
       0.533884         13.3811         12.1333 
           0.54         13.1321         11.8413 
       0.546137         12.7531         11.5591 
       0.552299         12.5153         11.2863 
       0.558452         12.2398         11.0246 
       0.564573          12.033         10.7736 
       0.570708         11.7651         10.5302 
       0.576825         11.5354         10.2947 
       0.582926         11.2831         10.0659 
       0.589034         11.0754         9.84297 
       0.595184         10.9077         9.62499 
       0.601379         10.6167         9.41223 
       0.607522         10.4114         9.20807 
       0.613639         10.1789         9.01128 
       0.619772         10.0245         8.82013 
       0.625918         9.81576         8.63441 
       0.632068         9.67235         8.45411 
       0.638161         9.47445         8.28065 
         0.6443         9.28875         8.11086 
       0.650464          9.0806         7.94523 
       0.656582         8.98955         7.78539 
       0.662703         8.83893         7.62985 
       0.668861         8.60394         7.47763 
       0.675024         8.46382         7.32944 
       0.681124         8.43074          7.1868 
       0.687237         8.22995         7.04775 
       0.693381         8.02096         6.91185 
       0.699536         7.95901         6.77942 
       0.705665         7.81112         6.65114 
       0.711789         7.64199         6.52638 
       0.717957         7.49702         6.40402 
        0.72409         7.40728         6.28551 
       0.730186         7.33891         6.17072 
       0.736317         7.17084         6.05818 
       0.742472         7.08088         5.94804 
       0.748622         6.97119         5.84075 
        0.75476         6.79983         5.73636 
       0.760888         6.74096          5.6347 
       0.767043         6.58283         5.53513 
       0.773185         6.50335         5.43821 
       0.779291         6.46198         5.34419 
       0.785407         6.32918          5.2523 
       0.791564         6.24113         5.16202 
       0.797719         6.12967         5.07393 
       0.803834         6.05827         4.98849 
       0.809972         5.95179         4.90473 
       0.816124         5.87205         4.82274 
       0.822261         5.79356         4.74287 
       0.828378         5.70326         4.66507 
       0.834502         5.62815         4.58897 
       0.840667         5.56721          4.5141 
       0.846816         5.45943         4.44112 
       0.852925         5.39059         4.37024 
       0.859047         5.31653         4.30078 
       0.865192         5.24269         4.23262 
       0.871341         5.17037          4.1659 
       0.877463         5.09354         4.10095 
       0.883569         5.03677         4.03755 
       0.889708         4.96916         3.97519 
       0.895864         4.90348           3.914 
       0.902008         4.82535         3.85424 
       0.908149         4.76595         3.79578 
       0.914301         4.71531         3.73845 
       0.920448         4.65658         3.68237 
       0.926574          4.6207         3.62765 
       0.932687         4.54248         3.57416 
       0.938823         4.46528         3.52158 
       0.944975          4.4327         3.46994 
       0.951105         4.34906         3.41953 
       0.957225         4.31792         3.37022 
       0.963368         4.27058         3.32172 
       0.969511         4.22007         3.27419 
       0.975621         4.15895         3.22785 
       0.981748          4.0856          3.1823 
       0.987916         4.04904         3.13734 
        0.99406         4.02067         3.09344 
        1.00019         3.97112         3.05046 
        1.00632         3.93222         3.00835 
        1.01246         3.87409         2.96698 
        1.01859         3.83064         2.92646 
        1.02471         3.77012         2.88675 
        1.03085         3.74225         2.84765 
        1.03698         3.70204         2.80937 
        1.04314         3.66302         2.77163 
        1.04929         3.61715         2.73468 
        1.05541         3.56913         2.69856 
        1.06154         3.54257         2.66301 
        1.06769         3.51721         2.62806 
        1.07382         3.45928         2.59385 
        1.07993          3.4161         2.56033 
        1.08607         3.39374         2.52727 
        1.09222         3.34522         2.49477 
        1.09836           3.334         2.46289 
        1.10449         3.26524          2.4316 
        1.11063         3.24249         2.40083 
        1.11677         3.21464         2.37061 
         1.1229          3.1725         2.34096 
        1.12903         3.15288          2.3118 
        1.13518         3.10591         2.28312 
        1.14131          3.0773         2.25494 
        1.14745         3.04277         2.22726 
        1.15359         3.01459         2.20005 
        1.15973          2.9812         2.17328 
        1.16584         2.95392         2.14708 
        1.17197         2.91953         2.12128 
        1.17811         2.89063         2.09582 
        1.18424         2.86202         2.07086 
        1.19038         2.83434         2.04624 
        1.19652         2.81326         2.02203 
        1.20267         2.78989         1.99822 
        1.20881         2.75623          1.9748 
        1.21495         2.73176         1.95179 
        1.22108         2.70836         1.92916 
         1.2272         2.66965         1.90694 
        1.23334         2.65938         1.88502 
        1.23949         2.62914         1.86339 
        1.24562         2.60666         1.84217 
        1.25174         2.58671         1.82131 
        1.25789         2.55196         1.80071 
        1.26402         2.52785         1.78048 
        1.27014         2.50384          1.7606 
        1.27628          2.4836         1.74097 
        1.28244          2.4639         1.72161 
        1.28858         2.44149         1.70256 
        1.29471         2.41094         1.68385 
        1.30084         2.39358         1.66545 
        1.30697         2.37862         1.64729 
        1.31312         2.35561         1.62937 
        1.31925         2.33419         1.61179 
        1.32537         2.31692         1.59448 
        1.33151         2.29174         1.57736 
        1.33765         2.27429         1.56051 
        1.34378         2.25588         1.54394 
        1.34992         2.23849          1.5276 
        1.35606         2.21826         1.51147 
         1.3622         2.20115          1.4956 
        1.36833           2.177         1.47999 
        1.37445         2.15777         1.46462 
        1.38059         2.14093         1.44942 
        1.38675         2.12406          1.4344 
        1.39288         2.11144         1.41966 
        1.39901         2.08771         1.40513 
        1.40515         2.07104         1.39077 
         1.4113          2.0601         1.37662 
        1.41742         2.03558         1.36272 
        1.42355         2.01811         1.34899 
         1.4297         2.00834         1.33541 
        1.43585         1.98983         1.32202 
        1.44198         1.97398         1.30887 
        1.44809         1.96054         1.29592 
        1.45423         1.94509          1.2831 
        1.46036         1.93043         1.27048 
        1.46649         1.90652         1.25802 
        1.47263         1.90056         1.24573 
        1.47877         1.89014          1.2336 
        1.48491         1.86523         1.22162 
        1.49104         1.85558         1.20982 
        1.49718         1.83962         1.19817 
        1.50333         1.82567         1.18666 
        1.50947         1.81384         1.17532 
         1.5156           1.799         1.16415 
        1.52172         1.78727         1.15312 
        1.52787         1.77298         1.14222 
          1.534         1.76251         1.13147 
        1.54013         1.74628         1.12087 
        1.54627         1.73366         1.11039 
        1.55241         1.71772         1.10004 
        1.55855         1.70781         1.08984 
        1.56467          1.6958          1.0798 
         1.5708         1.68355         1.06985 
        1.57695         1.66808         1.06002 
        1.58308         1.65432         1.05034 
        1.58922          1.6488         1.04076 
        1.59535         1.63106         1.03132 
         1.6015         1.61935         1.02198 
        1.60764         1.61104         1.01275 
        1.61376         1.59642         1.00367 
        1.61989          1.5873        0.994697 
        1.62604         1.57183         0.98581 
        1.63218         1.56771        0.977038 
        1.63831         1.55525        0.968394 
        1.64444         1.54326        0.959852 
        1.65059         1.53549        0.951393 
        1.65673         1.52011        0.943045 
        1.66285         1.51085        0.934822 
        1.66898         1.50327        0.926694 
        1.67512         1.48748        0.918648 
        1.68127         1.47782        0.910691 
         1.6874         1.47411        0.902846 
        1.69353         1.45886        0.895099 
        1.69967         1.45096        0.887425 
        1.70581         1.44517        0.879845 
        1.71193          1.4281        0.872383 
        1.71806          1.4219        0.864991 
        1.72421          1.4145        0.857672 
        1.73035          1.3993        0.850445 
        1.73649         1.39773        0.843304 
        1.74262         1.38471        0.836251 
        1.74876          1.3758        0.829275 
        1.75489         1.36781        0.822392 
        1.76101         1.35552        0.815591 
        1.76715         1.34947        0.808857 
        1.77329         1.34108        0.802192 
        1.77943         1.33291        0.795599 
        1.78557         1.32651         0.78909 
        1.79171           1.318        0.782654 
        1.79785         1.30872        0.776288 
        1.80399         1.29877        0.769995 
        1.81012         1.29078        0.763781 
        1.81625         1.28125        0.757638 
        1.82239         1.27527        0.751554 
        1.82853         1.26711         0.74554 
        1.83466         1.25755        0.739598 
        1.84078         1.25007        0.733728 
        1.84692         1.24366        0.727912 
        1.85306         1.23872        0.722152 
         1.8592         1.22744        0.716464 
        1.86533         1.22188        0.710841 
        1.87147         1.21139        0.705272 
        1.87761         1.20669         0.69976 
        1.88375         1.19887        0.694314 
        1.88988         1.19083        0.688932 
        1.89601         1.18376        0.683604 
        1.90215         1.17762        0.678329 
        1.90829         1.17136        0.673112 
        1.91442         1.16311         0.66795 
        1.92056         1.15872        0.662847 
         1.9267         1.15155        0.657792 
        1.93284         1.14238        0.652787 
        1.93897          1.1358        0.647844 
        1.94509         1.13176        0.642963 
        1.95123           1.122        0.638121 
        1.95737         1.11777        0.633324 
        1.96349         1.11052         0.62859 
        1.96964         1.10661        0.623891 
        1.97578         1.09634        0.619238 
        1.98192         1.09011        0.614642 
        1.98805         1.08523        0.610093 
        1.99419         1.07941        0.605589 
        2.00033         1.07367        0.601129 
        2.00647         1.06841        0.596715 
         2.0126         1.06388        0.592354 
        2.01874         1.05633        0.588029 
        2.02488         1.04825        0.583744 
        2.03101         1.04363         0.57951 
        2.03714         1.03961        0.575322 
        2.04328         1.03223        0.571171 
        2.04941         1.02625        0.567064 
        2.05554         1.02085        0.563001 
        2.06167         1.01547        0.558972 
        2.06781         1.00844        0.554983 
        2.07396         1.00565        0.551027 
        2.08009        0.999426        0.547116 
        2.08622        0.993526        0.543248 
        2.09237        0.989297         0.53941 
        2.09851        0.982594        0.535609 
        2.10464        0.979166         0.53185 
        2.11077        0.971837        0.528133 
        2.11691        0.966922        0.524443 
        2.12305        0.964263        0.520788 
        2.12918        0.956455        0.517177 
        2.13531        0.952119          0.5136 
        2.14145        0.946975        0.510049 
         2.1476        0.942729        0.506528 
        2.15372        0.937515        0.503057 
        2.15985         0.93235        0.499616 
        2.16599        0.928883        0.496197 
        2.17213        0.923284        0.492814 
        2.17827        0.917343        0.489463 
         2.1844        0.913741        0.486147 
        2.19054        0.909115         0.48286 
        2.19666        0.905239        0.479609 
         2.2028         0.89983        0.476384 
        2.20893        0.895601        0.473188 
        2.21508        0.890749        0.470018 
        2.22122        0.887598        0.466876 
        2.22736        0.879937        0.463769 
        2.23349        0.876358        0.460692 
        2.23962        0.873554         0.45764 
        2.24577        0.868738        0.454614 
         2.2519        0.863902         0.45162 
        2.25802        0.861748        0.448657 
        2.26417        0.855138        0.445713 
        2.27031        0.851988        0.442793 
        2.27644        0.848975        0.439908 
        2.28257        0.842201        0.437048 
        2.28872        0.841027        0.434209 
        2.29486        0.835076        0.431395 
        2.30099         0.83139        0.428613 
        2.30712        0.828287        0.425854 
        2.31326        0.824084        0.423114 
         2.3194        0.819671          0.4204 
        2.32553        0.815064        0.417715 
        2.33166        0.813213        0.415054 
         2.3378        0.808413        0.412413 
        2.34394        0.804675        0.409795 
        2.35007        0.798667        0.407202 
        2.35619        0.795666        0.404636 
        2.36233        0.792214        0.402085 
        2.36848        0.790314        0.399552 
        2.37462        0.786087        0.397045 
        2.38075         0.78147        0.394563 
        2.38689        0.778811          0.3921 
        2.39303         0.77494        0.389658 
        2.39916        0.771235         0.38724 
        2.40529        0.769443        0.384843 
        2.41143        0.762759        0.382464 
        2.41757        0.760988        0.380104 
         2.4237        0.757218        0.377769 
        2.42983        0.752992        0.375454 
        2.43598        0.750447        0.373152 
        2.44211        0.746401        0.370873 
        2.44823        0.743849        0.368618 
        2.45437        0.741193        0.366377 
        2.46052        0.738265        0.364152 
        2.46665         0.73416        0.361949 
        2.47279        0.730834        0.359765 
        2.47892        0.727385        0.357598 
        2.48507        0.725721        0.355447 
         2.4912         0.72073        0.353318 
