# k  (h/Mpc)    Pcb(k)  (Mpc/h)^3    Pcb_linear(k)  (Mpc/h)^3
     0.00783031         8781.25            8824 
       0.013688         11051.4         11292.2 
       0.019231         11646.4           11791 
      0.0249154           11257         11254.9 
      0.0312784         10015.3         10112.1 
      0.0375637         8777.41         8923.94 
      0.0433917         7941.01         7997.03 
      0.0492413         7177.15         7288.12 
      0.0555754         6658.34         6721.32 
      0.0619321          6039.5         6262.98 
       0.067871         5713.89         5850.04 
      0.0738098          5313.3         5406.49 
      0.0800417          4838.4         4906.33 
      0.0862327         4333.27         4407.82 
      0.0921407         3921.52         3972.24 
      0.0982031         3594.62         3597.72 
       0.104506         3253.57         3297.66 
       0.110769         3046.85         3078.53 
       0.116806         2932.25         2917.03 
       0.122832         2756.29         2776.27 
       0.129052          2615.2         2628.45 
       0.135211         2503.39          2467.4 
       0.141259         2311.65         2296.52 
       0.147318            2124         2123.45 
       0.153489         1994.34         1959.19 
       0.159709         1901.47         1817.06 
       0.165845          1745.4         1704.21 
       0.171974         1708.12         1616.09 
       0.178125         1650.11         1544.94 
       0.184229         1536.17         1482.39 
        0.19034         1505.02            1420 
       0.196428         1453.65         1353.69 
       0.202534         1357.45         1282.67 
       0.208729         1324.81         1208.97 
       0.214876         1266.25         1138.62 
       0.220989         1189.54          1075.3 
       0.227147         1162.19          1020.4 
        0.23329         1119.74         974.469 
       0.239377         1105.17         935.873 
       0.245482         1052.34          901.36 
       0.251667         1013.09         867.975 
       0.257832         1000.84         834.344 
       0.263955         949.308         799.942 
       0.270079         919.344         765.019 
        0.27624         880.179         730.532 
       0.282372         863.816         698.173 
        0.28843         855.308         669.023 
       0.294538         813.023           642.8 
       0.300721         791.491         619.198 
        0.30691         778.038         597.775 
       0.313033         746.087         577.887 
       0.319153         735.176         558.567 
       0.325316         722.994         539.255 
        0.33145         707.649         520.111 
       0.337538         682.774         501.417 
       0.343633         663.795         483.367 
       0.349808         648.398         466.091 
       0.355968         636.528         450.088 
       0.362074         617.006         435.426 
       0.368217         613.409         421.751 
       0.374374         602.647         408.857 
       0.380519         579.745         396.541 
       0.386598          573.74         384.717 
       0.392688         561.854         373.117 
        0.39888         546.983         361.591 
       0.405048         538.148         350.449 
       0.411186         535.708         339.786 
       0.417313         529.646         329.656 
       0.423458         513.834          320.04 
       0.429607         500.822         310.932 
       0.435692         493.482         302.382 
       0.441815         485.723         294.154 
       0.447964         475.838         286.187 
       0.454126         470.159         278.452 
       0.460267         462.835         270.969 
       0.466387         455.624         263.724 
        0.47254         448.915         256.675 
       0.478662         439.188         249.921 
       0.484765         434.773         243.458 
       0.490885         430.328         237.241 
       0.497035         422.472          231.25 
       0.503198         421.457         225.487 
       0.509342         411.174         219.951 
       0.515458         405.073          214.62 
       0.521598         398.644          209.43 
       0.527764         392.897         204.377 
       0.533884         391.581         199.516 
           0.54         385.609         194.812 
       0.546137         377.637         190.244 
       0.552299         376.892         185.812 
       0.558452         370.974         181.543 
       0.564573         367.263         177.441 
       0.570708         362.537         173.465 
       0.576825         356.153         169.624 
       0.582926         353.406         165.909 
       0.589034         348.646         162.298 
       0.595184         346.451          158.77 
       0.601379         340.552         155.322 
       0.607522         334.689         152.003 
       0.613639         333.004         148.796 
       0.619772         331.455         145.675 
       0.625918         326.563         142.641 
       0.632068         322.015         139.695 
       0.638161         319.304         136.863 
         0.6443         316.874         134.091 
       0.650464         312.098         131.386 
       0.656582         309.411         128.776 
       0.662703         307.354         126.235 
       0.668861         302.324         123.748 
       0.675024         300.933         121.326 
       0.681124           297.5         118.995 
       0.687237         294.886         116.721 
       0.693381         291.794         114.497 
       0.699536          288.95          112.33 
       0.705665         286.115         110.228 
       0.711789         284.034         108.184 
       0.717957         280.692         106.178 
        0.72409         277.939         104.234 
       0.730186          279.25         102.351 
       0.736317         274.254         100.505 
       0.742472         270.974         98.6975 
       0.748622           267.7         96.9368 
        0.75476         268.191         95.2233 
       0.760888         264.887         93.5544 
       0.767043         261.852         91.9195 
       0.773185         260.424         90.3276 
       0.779291         256.458         88.7831 
       0.785407         255.727         87.2729 
       0.791564         253.132         85.7888 
       0.797719         249.404         84.3403 
       0.803834         251.094         82.9349 
       0.809972         248.218         81.5568 
       0.816124         244.905         80.2073 
       0.822261          242.67         78.8923 
       0.828378         242.698         77.6111 
       0.834502         238.914         76.3576 
       0.840667         238.698         75.1239 
       0.846816         235.117         73.9213 
       0.852925         234.224          72.753 
       0.859047         231.877         71.6077 
       0.865192         231.571         70.4836 
       0.871341         228.398         69.3831 
       0.877463         226.554         68.3114 
       0.883569         226.284         67.2653 
       0.889708         224.239         66.2361 
       0.895864         222.381         65.2259 
       0.902008         220.315         64.2392 
       0.908149         218.412         63.2737 
       0.914301         217.674         62.3268 
       0.920448         216.674         61.4002 
       0.926574         214.273          60.496 
       0.932687         213.354         59.6121 
       0.938823         211.709         58.7429 
       0.944975         210.216         57.8892 
       0.951105         208.366         57.0556 
       0.957225         207.297         56.2401 
       0.963368         206.073          55.438 
       0.969511         203.333         54.6516 
       0.975621          202.23         53.8848 
       0.981748         200.957         53.1309 
       0.987916         200.171         52.3868 
        0.99406         198.581         51.6599 
        1.00019         197.367         50.9484 
        1.00632         196.517          50.251 
        1.01246         195.003         49.5658 
        1.01859         193.275         48.8945 
        1.02471         191.821         48.2367 
        1.03085         190.803         47.5888 
        1.03698         189.387         46.9542 
        1.04314         189.062         46.3287 
        1.04929         187.918          45.716 
        1.05541         186.485         45.1171 
        1.06154         185.147         44.5274 
        1.06769         183.643         43.9475 
        1.07382         183.128           43.38 
        1.07993         181.491         42.8238 
        1.08607         180.196         42.2752 
        1.09222         179.346         41.7358 
        1.09836         178.275         41.2064 
        1.10449         176.699          40.687 
        1.11063         175.745          40.176 
        1.11677         175.037         39.6741 
         1.1229         173.565         39.1816 
        1.12903         172.937         38.6972 
        1.13518         171.707         38.2207 
        1.14131         170.707         37.7525 
        1.14745         169.419         37.2925 
        1.15359         167.793         36.8401 
        1.15973           167.5         36.3951 
        1.16584         166.697         35.9596 
        1.17197         165.696         35.5306 
        1.17811         164.125         35.1073 
        1.18424         163.402         34.6922 
        1.19038         162.437         34.2827 
        1.19652         161.268           33.88 
        1.20267         160.405         33.4838 
        1.20881         159.309         33.0941 
        1.21495         158.983         32.7113 
        1.22108         157.693         32.3346 
         1.2272         156.553         31.9647 
        1.23334         156.054         31.5999 
        1.23949         155.503         31.2399 
        1.24562          154.22         30.8866 
        1.25174         153.043         30.5393 
        1.25789         152.316         30.1963 
        1.26402         151.927         29.8593 
        1.27014         150.868         29.5282 
        1.27628         149.156         29.2012 
        1.28244         148.989         28.8786 
        1.28858         147.855         28.5613 
        1.29471         147.039         28.2495 
        1.30084         146.176         27.9427 
        1.30697         145.526           27.64 
        1.31312         144.548         27.3414 
        1.31925         143.408         27.0482 
        1.32537         143.058         26.7596 
        1.33151         142.356         26.4742 
        1.33765         140.901         26.1931 
        1.34378         140.946         25.9168 
        1.34992         140.252         25.6442 
        1.35606         139.138          25.375 
         1.3622         138.867         25.1102 
        1.36833         137.213         24.8499 
        1.37445          137.05         24.5933 
        1.38059         136.211         24.3397 
        1.38675         135.337          24.089 
        1.39288         134.471         23.8429 
        1.39901         133.621         23.6004 
        1.40515         133.233         23.3607 
         1.4113         132.507         23.1245 
        1.41742         131.504         22.8924 
        1.42355         131.204         22.6632 
         1.4297         130.137         22.4364 
        1.43585         129.341         22.2128 
        1.44198         128.434         21.9931 
        1.44809         127.619         21.7769 
        1.45423         127.393         21.5627 
        1.46036         126.414         21.3519 
        1.46649         125.633         21.1438 
        1.47263         125.376         20.9383 
        1.47877          124.25         20.7357 
        1.48491         123.709         20.5355 
        1.49104         122.382         20.3383 
        1.49718         122.474         20.1436 
        1.50333         121.837         19.9511 
        1.50947         121.143         19.7616 
         1.5156         120.465         19.5748 
        1.52172         119.722         19.3904 
        1.52787         119.077         19.2081 
          1.534         118.558         19.0283 
        1.54013         117.956          18.851 
        1.54627          117.03         18.6757 
        1.55241         116.592         18.5026 
        1.55855         115.907          18.332 
        1.56467         115.022          18.164 
         1.5708         114.542         17.9976 
        1.57695         114.123         17.8331 
        1.58308         113.407          17.671 
        1.58922          113.29         17.5109 
        1.59535         112.669         17.3528 
         1.6015         111.649         17.1964 
        1.60764          110.97         17.0421 
        1.61376         110.445         16.8901 
        1.61989          109.94         16.7398 
        1.62604         109.308         16.5911 
        1.63218         108.947         16.4442 
        1.63831         108.115         16.2995 
        1.64444         107.553         16.1565 
        1.65059         106.873         16.0148 
        1.65673         106.474          15.875 
        1.66285         105.902         15.7373 
        1.66898         105.163         15.6012 
        1.67512         104.796         15.4665 
        1.68127         104.232         15.3332 
         1.6874         103.539         15.2018 
        1.69353         102.882          15.072 
        1.69967         102.641         14.9434 
        1.70581         102.172         14.8164 
        1.71193         101.498         14.6914 
        1.71806         100.829         14.5675 
        1.72421         100.355         14.4449 
        1.73035         100.072         14.3238 
        1.73649         99.3746         14.2041 
        1.74262         98.7796         14.0859 
        1.74876         98.2091         13.9689 
        1.75489          97.741         13.8536 
        1.76101         97.1546         13.7395 
        1.76715         96.6653         13.6266 
        1.77329         96.2455         13.5149 
        1.77943         95.6992         13.4043 
        1.78557         95.3342         13.2952 
        1.79171         94.8607         13.1873 
        1.79785         94.1067         13.0805 
        1.80399         93.8629          12.975 
        1.81012         93.1667         12.8707 
        1.81625         92.8029         12.7677 
        1.82239         92.4783         12.6657 
        1.82853         91.7732         12.5648 
        1.83466         91.2203         12.4651 
        1.84078         90.9079         12.3666 
        1.84692         90.6555          12.269 
        1.85306          90.022         12.1724 
         1.8592         89.6688          12.077 
        1.86533         89.1763         11.9826 
        1.87147         88.5763         11.8891 
        1.87761         88.0275         11.7966 
        1.88375         87.5608         11.7052 
        1.88988         87.0133         11.6149 
        1.89601          86.796         11.5255 
        1.90215         86.1775          11.437 
        1.90829         85.7367         11.3494 
        1.91442         85.4681         11.2628 
        1.92056         85.0808         11.1771 
         1.9267         84.5161         11.0922 
        1.93284         84.1866         11.0082 
        1.93897         83.8378         10.9252 
        1.94509         83.2219         10.8433 
        1.95123         82.8979          10.762 
        1.95737         82.3761         10.6814 
        1.96349         82.0283         10.6019 
        1.96964           81.68          10.523 
        1.97578         81.0961         10.4449 
        1.98192         80.6608         10.3677 
        1.98805         80.2023         10.2913 
        1.99419         79.8563         10.2156 
        2.00033         79.3419         10.1407 
        2.00647          79.102         10.0666 
         2.0126         78.6876          9.9933 
        2.01874         78.4351         9.92065 
        2.02488         77.9867         9.84865 
        2.03101         77.5538         9.77751 
        2.03714         77.2922         9.70714 
        2.04328         76.8145         9.63739 
        2.04941         76.1807         9.56838 
        2.05554         76.0505         9.50011 
        2.06167         75.6174          9.4324 
        2.06781         75.1091         9.36535 
        2.07396         74.8805         9.29887 
        2.08009         74.4589         9.23314 
        2.08622          74.081         9.16813 
        2.09237         73.7004         9.10361 
        2.09851          73.162         9.03972 
        2.10464         73.0099         8.97654 
        2.11077         72.6568         8.91404 
        2.11691         72.3195         8.85201 
        2.12305         71.8236         8.79056 
        2.12918         71.4532         8.72984 
        2.13531         71.1867          8.6697 
        2.14145         70.6397         8.60999 
         2.1476         70.4638         8.55077 
        2.15372         70.0998         8.49241 
        2.15985         69.6483         8.43454 
        2.16599         69.3162         8.37704 
        2.17213         68.9841         8.32014 
        2.17827         68.5384         8.26379 
         2.1844         68.2898         8.20801 
        2.19054         68.0066         8.15273 
        2.19666         67.5947         8.09805 
         2.2028          67.291         8.04381 
        2.20893         66.9032         7.99005 
        2.21508         66.4912         7.93672 
        2.22122         66.1507         7.88386 
        2.22736         65.8482          7.8316 
        2.23349         65.6058         7.77982 
        2.23962         65.3704         7.72849 
        2.24577         64.8462         7.67757 
         2.2519         64.6194         7.62719 
        2.25802         64.2986         7.57735 
        2.26417         63.9022         7.52781 
        2.27031         63.5685         7.47867 
        2.27644          63.395         7.43011 
        2.28257         63.0295         7.38199 
        2.28872         62.8132          7.3342 
        2.29486         62.5035         7.28685 
        2.30099         62.0065         7.24002 
        2.30712         61.8599         7.19358 
        2.31326         61.5612         7.14746 
         2.3194         61.1635         7.10179 
        2.32553         60.9807         7.05658 
        2.33166         60.5331          7.0118 
         2.3378         60.2526         6.96734 
        2.34394          59.983         6.92325 
        2.35007         59.7104         6.87961 
        2.35619         59.4011          6.8364 
        2.36233         59.0686         6.79346 
        2.36848         58.8028         6.75081 
        2.37462         58.4544         6.70861 
        2.38075         58.2266         6.66681 
        2.38689         57.9503         6.62534 
        2.39303         57.6824         6.58423 
        2.39916         57.4812         6.54351 
        2.40529         57.1128         6.50314 
        2.41143         56.8562         6.46308 
        2.41757         56.5437         6.42334 
         2.4237           56.42         6.38401 
        2.42983          55.954         6.34502 
        2.43598         55.7495         6.30625 
        2.44211         55.4492         6.26786 
        2.44823         55.1721         6.22989 
        2.45437         54.9091         6.19212 
        2.46052         54.6205         6.15464 
        2.46665         54.3277         6.11754 
        2.47279         54.1328         6.08076 
        2.47892         53.8743         6.04425 
        2.48507         53.6109         6.00801 
         2.4912         53.3289         5.97214 
