# k  (h/Mpc)    Pcb(k)  (Mpc/h)^3    Pcb_linear(k)  (Mpc/h)^3
     0.00783031         1618.81         1629.26 
       0.013688         2061.71         2086.26 
       0.019231         2167.29         2178.91 
      0.0249154         2080.94          2080.1 
      0.0312784         1865.18         1869.02 
      0.0375637         1642.41          1649.5 
      0.0433917         1479.44         1478.21 
      0.0492413         1343.19          1347.2 
      0.0555754         1244.01         1242.45 
      0.0619321         1144.69         1157.74 
       0.067871         1076.86         1081.42 
      0.0738098         996.952         999.429 
      0.0800417         907.378         906.977 
      0.0862327         813.136         814.827 
      0.0921407         732.929          734.31 
      0.0982031         667.197         665.077 
       0.104506         606.867          609.61 
       0.110769         567.233         569.103 
       0.116806         541.947         539.248 
       0.122832         511.864         513.228 
       0.129052         486.635         485.903 
       0.135211         459.495         456.132 
       0.141259         425.821         424.542 
       0.147318          391.48         392.548 
       0.153489         363.767         362.183 
       0.159709         340.052         335.909 
       0.165845         314.933         315.048 
       0.171974         303.804         298.757 
       0.178125         290.544         285.605 
       0.184229         276.134         274.041 
        0.19034         267.126         262.508 
       0.196428         255.006          250.25 
       0.202534         238.879         237.121 
       0.208729         228.585         223.496 
       0.214876         217.445         210.491 
       0.220989         202.538         198.786 
       0.227147         196.055         188.636 
        0.23329         188.067         180.145 
       0.239377         181.717          173.01 
       0.245482         174.021          166.63 
       0.251667         166.787         160.458 
       0.257832         162.976         154.241 
       0.263955          154.64         147.881 
       0.270079         148.394         141.425 
        0.27624         141.275          135.05 
       0.282372         135.993         129.068 
        0.28843         133.073         123.679 
       0.294538         127.401         118.831 
       0.300721         121.992         114.468 
        0.30691         119.494         110.508 
       0.313033         115.023         106.831 
       0.319153         112.842          103.26 
       0.325316         107.806         99.6896 
        0.33145         104.212         96.1505 
       0.337538         100.981         92.6946 
       0.343633          97.943         89.3579 
       0.349808         94.5967         86.1641 
       0.355968         91.6299         83.2057 
       0.362074           89.77         80.4953 
       0.368217         87.1791         77.9672 
       0.374374         85.3791         75.5836 
       0.380519         81.8415         73.3068 
       0.386598         79.5766         71.1209 
       0.392688         77.2834         68.9765 
        0.39888         75.7457         66.8457 
       0.405048         73.8724          64.786 
       0.411186         71.9284         62.8148 
       0.417313         69.9346         60.9421 
       0.423458         67.9438         59.1643 
       0.429607         66.7925         57.4806 
       0.435692         65.6126            55.9 
       0.441815          63.206         54.3789 
       0.447964         61.3756         52.9061 
       0.454126         60.3092         51.4762 
       0.460267         59.6997         50.0928 
       0.466387         58.0134         48.7536 
        0.47254          57.145         47.4504 
       0.478662         55.3494         46.2018 
       0.484765         54.2363          45.007 
       0.490885         52.7238         43.8577 
       0.497035          51.934         42.7501 
       0.503198         50.7451         41.6848 
       0.509342         49.4408         40.6614 
       0.515458          48.833         39.6758 
       0.521598         47.6937         38.7164 
       0.527764         47.0649         37.7823 
       0.533884         46.0109         36.8838 
           0.54         45.0945         36.0141 
       0.546137         43.7711         35.1696 
       0.552299           43.07         34.3504 
       0.558452         42.2101          33.561 
       0.564573         41.8232         32.8028 
       0.570708         40.7102         32.0677 
       0.576825         40.1739         31.3577 
       0.582926          39.501         30.6709 
       0.589034           38.75         30.0034 
       0.595184         38.2521         29.3512 
       0.601379         37.2326         28.7137 
       0.607522          36.694         28.1002 
       0.613639         36.0951         27.5072 
       0.619772          35.511         26.9303 
       0.625918         34.8089         26.3694 
       0.632068         34.5248         25.8249 
       0.638161         33.8262         25.3012 
         0.6443         33.3146         24.7888 
       0.650464         32.5017         24.2888 
       0.656582         32.3177         23.8063 
       0.662703         31.9513         23.3366 
       0.668861         31.1114         22.8768 
       0.675024         30.7562         22.4291 
       0.681124         30.5578         21.9981 
       0.687237           29.95         21.5777 
       0.693381         29.3369         21.1667 
       0.699536         29.2192         20.7659 
       0.705665         28.6814         20.3775 
       0.711789         28.1718         19.9995 
       0.717957          27.629         19.6286 
        0.72409         27.3972         19.2693 
       0.730186         27.2586         18.9212 
       0.736317         26.7125         18.5799 
       0.742472         26.3842         18.2458 
       0.748622         25.9753         17.9203 
        0.75476         25.3473         17.6035 
       0.760888         25.2639          17.295 
       0.767043          24.849         16.9928 
       0.773185         24.5961         16.6985 
       0.779291         24.3763          16.413 
       0.785407         23.9525         16.1338 
       0.791564         23.7904         15.8594 
       0.797719         23.2979         15.5916 
       0.803834          23.186         15.3318 
       0.809972         22.7604         15.0771 
       0.816124         22.5194         14.8276 
       0.822261         22.2829         14.5845 
       0.828378         22.0348         14.3476 
       0.834502         21.8247         14.1159 
       0.840667          21.598         13.8879 
       0.846816         21.1377         13.6655 
       0.852925         21.0672         13.4495 
       0.859047         20.8187         13.2378 
       0.865192         20.5359           13.03 
       0.871341         20.2716         12.8266 
       0.877463         20.0716         12.6285 
       0.883569         19.9567         12.4351 
       0.889708         19.6345         12.2448 
       0.895864         19.3982         12.0581 
       0.902008         19.1728         11.8756 
       0.908149         18.9417         11.6972 
       0.914301         18.8505         11.5221 
       0.920448         18.5725         11.3508 
       0.926574         18.4521         11.1837 
       0.932687         18.1991         11.0202 
       0.938823         17.9795         10.8596 
       0.944975         17.8366         10.7017 
       0.951105         17.6378         10.5476 
       0.957225         17.5406         10.3969 
       0.963368         17.2839         10.2486 
       0.969511         17.1128         10.1032 
       0.975621         16.9547         9.96146 
       0.981748         16.7376         9.82209 
       0.987916         16.6225         9.68454 
        0.99406         16.4677         9.55016 
        1.00019         16.3321         9.41862 
        1.00632         16.1913          9.2897 
        1.01246         16.0329         9.16302 
        1.01859         15.8468         9.03894 
        1.02471         15.6691         8.91732 
        1.03085         15.6185         8.79755 
        1.03698         15.4687         8.68024 
        1.04314         15.2886         8.56459 
        1.04929         15.0967         8.45134 
        1.05541         15.0369         8.34061 
        1.06154         14.9079         8.23161 
        1.06769         14.8088          8.1244 
        1.07382          14.573         8.01948 
        1.07993         14.4546         7.91667 
        1.08607         14.3951         7.81525 
        1.09222          14.215         7.71552 
        1.09836         14.1693         7.61767 
        1.10449         13.9562         7.52164 
        1.11063         13.9135         7.42718 
        1.11677         13.8206         7.33438 
         1.1229         13.6896         7.24335 
        1.12903         13.5925          7.1538 
        1.13518         13.3982          7.0657 
        1.14131         13.3323         6.97915 
        1.14745         13.1553         6.89411 
        1.15359         13.0656         6.81049 
        1.15973         12.9554         6.72822 
        1.16584          12.862          6.6477 
        1.17197         12.7538          6.5684 
        1.17811         12.6479         6.49015 
        1.18424         12.5664         6.41342 
        1.19038         12.4945         6.33771 
        1.19652         12.3897         6.26326 
        1.20267         12.2967         6.19002 
        1.20881         12.1685         6.11798 
        1.21495          12.076          6.0472 
        1.22108         12.0268         5.97756 
         1.2272         11.9151          5.9092 
        1.23334         11.8719         5.84175 
        1.23949         11.7466          5.7752 
        1.24562          11.656         5.70988 
        1.25174          11.591         5.64568 
        1.25789         11.4472         5.58228 
        1.26402         11.4193         5.51997 
        1.27014          11.355         5.45877 
        1.27628         11.2101         5.39832 
        1.28244         11.1997         5.33867 
        1.28858         11.1085         5.28002 
        1.29471         10.9602         5.22238 
        1.30084         10.8914         5.16566 
        1.30697         10.8825          5.1097 
        1.31312         10.7627          5.0545 
        1.31925         10.7025         5.00029 
        1.32537         10.6362         4.94694 
        1.33151         10.5549         4.89417 
        1.33765          10.472         4.84222 
        1.34378         10.4594         4.79113 
        1.34992         10.3514         4.74075 
        1.35606         10.2739         4.69098 
         1.3622         10.1981         4.64203 
        1.36833         10.1461          4.5939 
        1.37445          10.078         4.54647 
        1.38059         10.0207         4.49958 
        1.38675         9.94548         4.45324 
        1.39288         9.86266         4.40775 
        1.39901         9.80347         4.36291 
        1.40515         9.74527          4.3186 
         1.4113         9.66892         4.27493 
        1.41742         9.63196         4.23204 
        1.42355         9.54417         4.18965 
         1.4297         9.50768         4.14773 
        1.43585         9.45379         4.10639 
        1.44198         9.39089         4.06579 
        1.44809          9.3412         4.02581 
        1.45423         9.26324         3.98622 
        1.46036         9.21955         3.94724 
        1.46649         9.15803         3.90877 
        1.47263          9.1149         3.87079 
        1.47877          9.0526         3.83333 
        1.48491         9.01219         3.79631 
        1.49104         8.93365         3.75986 
        1.49718         8.90851         3.72386 
        1.50333         8.84518         3.68828 
        1.50947         8.76971         3.65324 
         1.5156         8.75515         3.61871 
        1.52172         8.70243         3.58463 
        1.52787         8.64993         3.55092 
          1.534         8.59892         3.51769 
        1.54013         8.55689         3.48492 
        1.54627         8.50009         3.45251 
        1.55241         8.43176         3.42051 
        1.55855         8.42297         3.38897 
        1.56467         8.35786         3.35791 
         1.5708         8.31765         3.32715 
        1.57695         8.24873         3.29674 
        1.58308         8.19883         3.26678 
        1.58922         8.17191         3.23717 
        1.59535         8.12467         3.20794 
         1.6015         8.06193         3.17904 
        1.60764         8.03806         3.15051 
        1.61376         8.00547         3.12241 
        1.61989         7.92828         3.09463 
        1.62604         7.90547         3.06713 
        1.63218         7.86755         3.03998 
        1.63831         7.83018         3.01322 
        1.64444         7.76446         2.98678 
        1.65059         7.73234          2.9606 
        1.65673         7.70499         2.93476 
        1.66285         7.66532          2.9093 
        1.66898         7.61748         2.88414 
        1.67512         7.57028         2.85923 
        1.68127         7.52481         2.83459 
         1.6874         7.50412          2.8103 
        1.69353         7.44916          2.7863 
        1.69967         7.42342         2.76254 
        1.70581         7.36736         2.73906 
        1.71193         7.35223         2.71594 
        1.71806         7.31472         2.69305 
        1.72421         7.26465         2.67037 
        1.73035         7.23186         2.64798 
        1.73649         7.19806         2.62586 
        1.74262         7.15041           2.604 
        1.74876          7.1418         2.58238 
        1.75489         7.09629         2.56105 
        1.76101         7.04544         2.53997 
        1.76715         7.03501          2.5191 
        1.77329          7.0018         2.49845 
        1.77943         6.94365         2.47801 
        1.78557         6.93665         2.45783 
        1.79171         6.90372         2.43788 
        1.79785         6.86479         2.41815 
        1.80399         6.80358         2.39863 
        1.81012          6.7932         2.37937 
        1.81625         6.75488         2.36032 
        1.82239         6.72732         2.34145 
        1.82853         6.68871          2.3228 
        1.83466         6.64431         2.30438 
        1.84078         6.62379         2.28617 
        1.84692         6.59799         2.26813 
        1.85306         6.56742         2.25027 
         1.8592          6.5486         2.23262 
        1.86533         6.51771         2.21518 
        1.87147         6.47821          2.1979 
        1.87761         6.46554          2.1808 
        1.88375         6.42229         2.16391 
        1.88988         6.39029         2.14721 
        1.89601         6.36772         2.13068 
        1.90215         6.31973         2.11431 
        1.90829         6.31608         2.09812 
        1.91442          6.2704          2.0821 
        1.92056         6.26415         2.06627 
         1.9267         6.21746         2.05058 
        1.93284         6.21459         2.03505 
        1.93897         6.16669         2.01971 
        1.94509           6.131         2.00456 
        1.95123         6.11643         1.98953 
        1.95737         6.09362         1.97464 
        1.96349         6.04682         1.95994 
        1.96964         6.02859         1.94535 
        1.97578         6.00917         1.93091 
        1.98192         5.97533         1.91664 
        1.98805         5.95785         1.90251 
        1.99419         5.93865         1.88853 
        2.00033         5.89149         1.87468 
        2.00647          5.8867         1.86097 
         2.0126         5.85754         1.84742 
        2.01874         5.83866         1.83399 
        2.02488         5.80911         1.82068 
        2.03101         5.77008         1.80753 
        2.03714         5.75392         1.79452 
        2.04328         5.73446         1.78163 
        2.04941         5.70465         1.76887 
        2.05554         5.69232         1.75625 
        2.06167         5.66111         1.74373 
        2.06781         5.63947         1.73134 
        2.07396         5.61103         1.71905 
        2.08009         5.59786          1.7069 
        2.08622         5.57526         1.69488 
        2.09237         5.56507         1.68295 
        2.09851         5.51931         1.67114 
        2.10464         5.50502         1.65946 
        2.11077         5.49201         1.64791 
        2.11691          5.4728         1.63644 
        2.12305         5.44011         1.62508 
        2.12918         5.42541         1.61385 
        2.13531         5.39609         1.60274 
        2.14145         5.38365          1.5917 
         2.1476         5.35478         1.58075 
        2.15372         5.33669         1.56996 
        2.15985         5.32167         1.55926 
        2.16599         5.30038         1.54863 
        2.17213         5.28578         1.53812 
        2.17827         5.24825          1.5277 
         2.1844         5.22855         1.51739 
        2.19054         5.21605         1.50717 
        2.19666         5.19747         1.49706 
         2.2028         5.16146         1.48703 
        2.20893         5.16075         1.47709 
        2.21508         5.14487         1.46723 
        2.22122         5.10162         1.45746 
        2.22736          5.0964          1.4478 
        2.23349         5.07445         1.43823 
        2.23962         5.06353         1.42874 
        2.24577         5.02742         1.41933 
         2.2519         5.02186         1.41001 
        2.25802         4.99111          1.4008 
        2.26417         4.97777         1.39164 
        2.27031         4.95746         1.38255 
        2.27644         4.94036         1.37358 
        2.28257         4.92453         1.36468 
        2.28872         4.90921         1.35585 
        2.29486         4.88486         1.34709 
        2.30099         4.86629         1.33844 
        2.30712         4.85232         1.32985 
        2.31326         4.83355         1.32133 
         2.3194         4.81532         1.31288 
        2.32553         4.79626         1.30453 
        2.33166         4.78655         1.29625 
         2.3378         4.76673         1.28803 
        2.34394         4.74618         1.27988 
        2.35007         4.72251         1.27181 
        2.35619         4.71724         1.26382 
        2.36233           4.692         1.25588 
        2.36848          4.6847           1.248 
        2.37462         4.66594          1.2402 
        2.38075         4.65488         1.23247 
        2.38689         4.63593          1.2248 
        2.39303         4.61625          1.2172 
        2.39916         4.60027         1.20968 
        2.40529         4.58119         1.20221 
        2.41143          4.5731         1.19481 
        2.41757         4.56109         1.18746 
         2.4237         4.53728         1.18019 
        2.42983         4.53148         1.17298 
        2.43598         4.51658         1.16581 
        2.44211         4.49059         1.15872 
        2.44823         4.47179          1.1517 
        2.45437         4.45837         1.14472 
        2.46052          4.4474         1.13779 
        2.46665         4.43593         1.13093 
        2.47279         4.40433         1.12413 
        2.47892         4.39966         1.11738 
        2.48507         4.38976         1.11068 
         2.4912         4.37402         1.10405 
