# k  (h/Mpc)    P(k)  (Mpc/h)^3    P_linear(k)  (Mpc/h)^3
     0.00783031         6357.47         6451.97 
       0.013688         7925.67         7906.18 
       0.019231         7880.97         7875.74 
      0.0249154         7016.29          7108.4 
      0.0312784         5936.75         5963.58 
      0.0375637         4948.94         4932.33 
      0.0433917         4186.74         4215.14 
      0.0492413         3732.83         3733.47 
      0.0555754         3360.36          3410.3 
      0.0619321         3210.26         3190.44 
       0.067871         2957.68         2995.59 
      0.0738098          2727.2         2763.13 
      0.0800417         2425.28         2471.48 
      0.0862327         2143.66          2161.6 
      0.0921407         1893.58         1885.77 
      0.0982031         1655.23         1653.79 
       0.104506         1516.41            1481 
       0.110769         1402.56         1372.36 
       0.116806         1325.56         1308.78 
       0.122832         1282.54         1262.72 
       0.129052         1210.61         1211.62 
       0.135211         1145.22         1143.97 
       0.141259          1076.8         1059.38 
       0.147318         992.571         964.476 
       0.153489         894.863         869.907 
       0.159709         825.305         788.136 
       0.165845         777.112         726.796 
       0.171974          728.32         684.739 
       0.178125         699.126         657.208 
       0.184229         677.088         637.389 
        0.19034         639.949         617.906 
       0.196428          626.74         593.778 
       0.202534         603.462         563.068 
       0.208729          566.19         526.831 
       0.214876          528.96          489.54 
       0.220989         504.482         455.141 
       0.227147         473.588         426.086 
        0.23329         452.348          403.74 
       0.239377         440.678          387.44 
       0.245482         414.218         374.997 
       0.251667         410.229         363.917 
       0.257832         397.121         352.273 
       0.263955         382.774         338.884 
       0.270079         367.297         323.553 
        0.27624         359.091         307.042 
       0.282372         343.336         290.776 
        0.28843         329.883         276.076 
       0.294538          314.47         263.355 
       0.300721         310.289         252.797 
        0.30691         296.235         244.169 
       0.313033         289.503         236.811 
       0.319153         278.335         229.849 
       0.325316         271.988          222.61 
        0.33145         262.646         214.888 
       0.337538         258.221         206.763 
       0.343633         249.013         198.474 
       0.349808         240.719         190.348 
       0.355968         236.233         182.849 
       0.362074         229.756         176.251 
       0.368217         223.397         170.422 
       0.374374          216.02         165.261 
       0.380519         212.367         160.533 
       0.386598         206.841         156.012 
       0.392688         203.833         151.484 
        0.39888         198.452         146.777 
       0.405048         193.619         142.027 
       0.411186         189.257         137.351 
       0.417313         185.005         132.847 
       0.423458         180.987         128.604 
       0.429607         176.726         124.701 
       0.435692         171.209         121.148 
       0.441815         169.906         117.834 
       0.447964         166.841         114.697 
       0.454126         159.704         111.655 
       0.460267         157.915          108.66 
       0.466387         155.609         105.706 
        0.47254         152.314         102.771 
       0.478662         150.897         99.9077 
       0.484765         146.382         97.1519 
       0.490885         144.015         94.5251 
       0.497035         142.123         92.0318 
       0.503198         138.253         89.6681 
       0.509342          135.95         87.4317 
       0.515458         134.002         85.3032 
       0.521598          131.98         83.2367 
       0.527764          130.03         81.2072 
       0.533884          127.99         79.2295 
           0.54         125.669         77.2988 
       0.546137         124.576         75.4157 
       0.552299         122.483          73.587 
       0.558452         119.989         71.8274 
       0.564573         117.902         70.1448 
       0.570708         116.142         68.5286 
       0.576825         114.629          66.983 
       0.582926         112.427         65.4964 
       0.589034         110.638         64.0526 
       0.595184         109.281         62.6349 
       0.601379         107.962         61.2413 
       0.607522          105.47         59.8957 
       0.613639         105.173         58.5939 
       0.619772         102.826         57.3288 
       0.625918         101.717         56.1015 
       0.632068         100.568         54.9123 
       0.638161         99.4288         53.7707 
         0.6443         98.1007         52.6556 
       0.650464         96.9291         51.5701 
       0.656582          95.575         50.5243 
       0.662703         93.9331         49.5077 
       0.668861         92.7985         48.5132 
       0.675024         91.7772         47.5443 
       0.681124         90.7471         46.6103 
       0.687237         89.0948         45.6984 
       0.693381         88.1116         44.8062 
       0.699536         87.1224         43.9364 
       0.705665          87.392         43.0941 
       0.711789         85.0462         42.2759 
       0.717957         84.5498         41.4746 
        0.72409         83.3448         40.6995 
       0.730186         81.9691         39.9496 
       0.736317          81.772          39.215 
       0.742472           80.85         38.4962 
       0.748622         80.0094         37.7959 
        0.75476         79.1627         37.1143 
       0.760888         78.0365         36.4503 
       0.767043         77.3426         35.7999 
       0.773185         76.4354         35.1667 
       0.779291         75.8183         34.5525 
       0.785407         75.1895         33.9523 
       0.791564         74.3149         33.3628 
       0.797719          73.159         32.7879 
       0.803834           72.88         32.2305 
       0.809972         71.6389         31.6843 
       0.816124         71.1809         31.1497 
       0.822261         70.6244         30.6291 
       0.828378         70.0636         30.1221 
       0.834502         69.3429         29.6263 
       0.840667         68.6689         29.1386 
       0.846816         67.7836         28.6633 
       0.852925          67.255         28.2017 
       0.859047         66.3867         27.7494 
       0.865192         66.0473         27.3057 
       0.871341          65.669         26.8714 
       0.877463         64.5362         26.4487 
       0.883569         64.1476         26.0362 
       0.889708         63.7833         25.6304 
       0.895864         63.2275         25.2324 
       0.902008         62.6311         24.8438 
       0.908149         62.2071         24.4636 
       0.914301         61.6358         24.0909 
       0.920448         61.1213         23.7263 
       0.926574         60.5401         23.3706 
       0.932687          60.248         23.0231 
       0.938823         59.3013         22.6815 
       0.944975         59.0707          22.346 
       0.951105         58.5228         22.0186 
       0.957225         57.8027         21.6984 
       0.963368         57.7472         21.3836 
       0.969511         57.3099          21.075 
       0.975621         56.8945         20.7742 
       0.981748         56.2662         20.4786 
       0.987916         55.8864         20.1869 
        0.99406          55.558         19.9021 
        1.00019         54.9235         19.6234 
        1.00632         54.6725         19.3503 
        1.01246         54.2262          19.082 
        1.01859         53.5125         18.8193 
        1.02471         53.6183         18.5619 
        1.03085         53.0396         18.3085 
        1.03698         52.5734         18.0603 
        1.04314         52.1161         17.8158 
        1.04929         51.8217         17.5764 
        1.05541         51.2797         17.3424 
        1.06154         51.2579         17.1121 
        1.06769         50.7649         16.8857 
        1.07382         50.5013         16.6642 
        1.07993         50.2406         16.4472 
        1.08607         49.7361         16.2332 
        1.09222         49.5136         16.0228 
        1.09836         49.1409         15.8164 
        1.10449         48.7766         15.6139 
        1.11063         48.2885         15.4147 
        1.11677         48.0283         15.2192 
         1.1229         47.7835         15.0274 
        1.12903         47.1323         14.8387 
        1.13518         47.2915         14.6532 
        1.14131         46.9986          14.471 
        1.14745         46.3653          14.292 
        1.15359         46.3347          14.116 
        1.15973          45.807          13.943 
        1.16584         45.5514         13.7736 
        1.17197         45.3476         13.6068 
        1.17811         45.0848         13.4423 
        1.18424         44.6171          13.281 
        1.19038            44.5          13.122 
        1.19652         44.3272         12.9656 
        1.20267         43.9722         12.8118 
        1.20881         43.6671         12.6605 
        1.21495         43.3307         12.5119 
        1.22108         43.1163         12.3657 
         1.2272         42.6686         12.2223 
        1.23334         42.5496         12.0808 
        1.23949         42.4823         11.9412 
        1.24562         42.0757         11.8042 
        1.25174          41.934         11.6696 
        1.25789         41.6699         11.5367 
        1.26402         41.3321         11.4061 
        1.27014         40.9836         11.2779 
        1.27628         40.8589         11.1513 
        1.28244         40.5764         11.0264 
        1.28858         40.4346         10.9035 
        1.29471         40.2743         10.7829 
        1.30084         40.0374         10.6641 
        1.30697         39.7281          10.547 
        1.31312         39.4044         10.4315 
        1.31925         39.3259         10.3181 
        1.32537         39.1237         10.2066 
        1.33151         38.7948         10.0962 
        1.33765         38.7593         9.98763 
        1.34378         38.5016         9.88084 
        1.34992         38.1195         9.77555 
        1.35606         37.9389         9.67158 
         1.3622         37.7505         9.56931 
        1.36833         37.5364         9.46878 
        1.37445         37.5054         9.36975 
        1.38059         37.2471         9.27185 
        1.38675         36.9227         9.17511 
        1.39288         36.8712         9.08016 
        1.39901         36.5473          8.9866 
        1.40515          36.401         8.89415 
         1.4113         36.2806         8.80306 
        1.41742          35.956         8.71359 
        1.42355         35.8432          8.6252 
         1.4297         35.6306         8.53778 
        1.43585         35.5597         8.45162 
        1.44198         35.2537         8.36698 
        1.44809         35.1243         8.28366 
        1.45423         34.9769         8.20118 
        1.46036         34.8518         8.11997 
        1.46649         34.5891         8.03984 
        1.47263         34.4233         7.96074 
        1.47877         34.3288         7.88274 
        1.48491         34.1942         7.80567 
        1.49104         33.9617         7.72979 
        1.49718         33.6382         7.65488 
        1.50333         33.6172         7.58084 
        1.50947         33.4743         7.50794 
         1.5156         33.2642         7.43611 
        1.52172         33.0653         7.36523 
        1.52787         33.0655         7.29514 
          1.534         32.7914         7.22604 
        1.54013         32.5812         7.15792 
        1.54627          32.518         7.09056 
        1.55241         32.2903         7.02406 
        1.55855         32.1518         6.95851 
        1.56467         31.9162         6.89398 
         1.5708         31.9315         6.83009 
        1.57695         31.6143         6.76691 
        1.58308         31.6155         6.70469 
        1.58922         31.4783         6.64321 
        1.59535          31.268         6.58253 
         1.6015         31.0772         6.52253 
        1.60764         30.9884          6.4633 
        1.61376         30.7894         6.40498 
        1.61989         30.5776         6.34734 
        1.62604         30.5683         6.29028 
        1.63218         30.3916         6.23396 
        1.63831         30.2598         6.17847 
        1.64444         30.1341         6.12363 
        1.65059         29.9155         6.06933 
        1.65673         29.7778         6.01575 
        1.66285         29.6949         5.96297 
        1.66898         29.5345         5.91081 
        1.67512         29.4548         5.85918 
        1.68127         29.2341         5.80812 
         1.6874         29.1458         5.75778 
        1.69353         29.0256         5.70807 
        1.69967         28.8604         5.65884 
        1.70581         28.7695         5.61021 
        1.71193         28.6524         5.56234 
        1.71806         28.4715         5.51492 
        1.72421         28.3184         5.46797 
        1.73035         28.1976         5.42162 
        1.73649         28.1287         5.37583 
        1.74262         27.9603          5.3306 
        1.74876         27.9504         5.28586 
        1.75489         27.7485         5.24173 
        1.76101         27.6107         5.19812 
        1.76715         27.5172         5.15495 
        1.77329         27.4303         5.11222 
        1.77943         27.2786         5.06996 
        1.78557         27.1471         5.02824 
        1.79171         27.0509         4.98698 
        1.79785         26.9048         4.94618 
        1.80399         26.7974         4.90585 
        1.81012         26.7351         4.86602 
        1.81625         26.5915         4.82665 
        1.82239         26.5405         4.78767 
        1.82853         26.3186         4.74913 
        1.83466         26.2254         4.71106 
        1.84078         26.0522         4.67345 
        1.84692         26.0157         4.63619 
        1.85306         25.8846         4.59929 
         1.8592         25.7603         4.56285 
        1.86533         25.6391         4.52683 
        1.87147         25.5485         4.49116 
        1.87761         25.5188         4.45586 
        1.88375         25.4072         4.42098 
        1.88988         25.2939         4.38652 
        1.89601         25.1133          4.3524 
        1.90215         25.0762         4.31863 
        1.90829         25.0223         4.28522 
        1.91442         24.8376         4.25217 
        1.92056         24.7749          4.2195 
         1.9267         24.6256         4.18714 
        1.93284         24.5076         4.15511 
        1.93897         24.4608         4.12347 
        1.94509         24.3486         4.09222 
        1.95123         24.2257         4.06123 
        1.95737         24.1322         4.03053 
        1.96349         24.0374         4.00023 
        1.96964          23.916         3.97016 
        1.97578         23.8745         3.94038 
        1.98192         23.7165         3.91097 
        1.98805         23.6748         3.88186 
        1.99419         23.5538         3.85305 
        2.00033         23.3911         3.82451 
        2.00647         23.3377         3.79627 
         2.0126         23.2379         3.76837 
        2.01874          23.165         3.74071 
        2.02488         23.1447          3.7133 
        2.03101          22.971         3.68622 
        2.03714         22.8875         3.65943 
        2.04328          22.778         3.63288 
        2.04941         22.7132         3.60662 
        2.05554         22.6356         3.58063 
        2.06167         22.5502         3.55487 
        2.06781         22.4609         3.52936 
        2.07396         22.3891         3.50406 
        2.08009         22.3221         3.47906 
        2.08622         22.1635         3.45433 
        2.09237         22.0944         3.42979 
        2.09851         22.0245         3.40549 
        2.10464         21.9655         3.38146 
        2.11077          21.797          3.3577 
        2.11691         21.7659         3.33411 
        2.12305         21.6739         3.31075 
        2.12918         21.6291         3.28767 
        2.13531         21.5131         3.26481 
        2.14145         21.4627         3.24212 
         2.1476         21.3374         3.21961 
        2.15372         21.2611         3.19743 
        2.15985          21.141         3.17544 
        2.16599         21.1089          3.1536 
        2.17213         21.0522         3.13198 
        2.17827         20.9011         3.11058 
         2.1844         20.8108         3.08939 
        2.19054         20.7531         3.06839 
        2.19666         20.7038         3.04762 
         2.2028         20.6421         3.02703 
        2.20893         20.5379         3.00661 
        2.21508         20.4389         2.98636 
        2.22122         20.3144         2.96629 
        2.22736         20.3206         2.94645 
        2.23349         20.2062          2.9268 
        2.23962         20.1232         2.90731 
        2.24577          20.024         2.88798 
         2.2519         19.9973         2.86886 
        2.25802         19.9166         2.84994 
        2.26417         19.8581         2.83115 
        2.27031         19.7636          2.8125 
        2.27644         19.6987         2.79408 
        2.28257         19.6021         2.77582 
        2.28872          19.505         2.75769 
        2.29486         19.4565         2.73973 
        2.30099         19.3666         2.72197 
        2.30712         19.3502         2.70435 
        2.31326         19.2607         2.68687 
         2.3194         19.1819         2.66954 
        2.32553         19.0945          2.6524 
        2.33166         18.9999         2.63542 
         2.3378         18.9336         2.61857 
        2.34394         18.8935         2.60186 
        2.35007         18.8074         2.58531 
        2.35619         18.6861         2.56894 
        2.36233         18.6772         2.55266 
        2.36848          18.581         2.53649 
        2.37462         18.5295          2.5205 
        2.38075         18.4539         2.50466 
        2.38689         18.4253         2.48895 
        2.39303         18.3085         2.47337 
        2.39916         18.2576         2.45795 
        2.40529         18.1751         2.44265 
        2.41143         18.1332         2.42748 
        2.41757         18.0616         2.41242 
         2.4237          17.983         2.39753 
        2.42983         17.9217         2.38276 
        2.43598         17.8709         2.36808 
        2.44211         17.7914         2.35354 
        2.44823         17.7061         2.33916 
        2.45437         17.6646         2.32486 
        2.46052         17.6054         2.31067 
        2.46665         17.5513         2.29663 
        2.47279         17.4566          2.2827 
        2.47892         17.4295         2.26889 
        2.48507          17.354         2.25517 
         2.4912         17.2993         2.24159 
