# k  (h/Mpc)    Pcb(k)  (Mpc/h)^3    Pcb_linear(k)  (Mpc/h)^3
     0.00783031         6053.64          6126.2 
       0.013688         7544.78         7516.44 
       0.019231         7504.03         7491.62 
      0.0249154         6683.71         6763.86 
      0.0312784         5654.61         5675.73 
      0.0375637         4712.77         4694.89 
      0.0433917         3988.27         4012.57 
      0.0492413         3555.14         3554.27 
      0.0555754          3201.9         3246.78 
      0.0619321         3057.09         3037.57 
       0.067871         2818.12         2852.14 
      0.0738098         2598.44         2630.87 
      0.0800417         2311.18         2353.23 
      0.0862327         2042.16          2058.2 
      0.0921407         1802.95         1795.59 
      0.0982031         1575.96         1574.72 
       0.104506         1442.79         1410.21 
       0.110769          1334.5         1306.77 
       0.116806         1261.22         1246.24 
       0.122832         1220.52         1202.39 
       0.129052         1152.65         1153.73 
       0.135211         1090.24         1089.32 
       0.141259          1024.6         1008.77 
       0.147318         944.085         918.407 
       0.153489         851.036         828.357 
       0.159709         784.266         750.495 
       0.165845         738.016         692.085 
       0.171974         691.434         652.041 
       0.178125          663.87         625.824 
       0.184229         643.093         606.952 
        0.19034         608.083           588.4 
       0.196428         595.298         565.425 
       0.202534         573.111         536.181 
       0.208729         537.469         501.677 
       0.214876           501.8         466.167 
       0.220989         478.318         433.411 
       0.227147          448.68         405.743 
        0.23329          428.44         384.466 
       0.239377         417.188         368.945 
       0.245482         392.422         357.095 
       0.251667         388.481         346.544 
       0.257832         376.144         335.455 
       0.263955         362.473         322.704 
       0.270079         347.776         308.107 
        0.27624         339.711         292.384 
       0.282372         324.751         276.896 
        0.28843         311.683         262.897 
       0.294538         297.226         250.784 
       0.300721         293.033          240.73 
        0.30691         279.787         232.513 
       0.313033         273.315         225.507 
       0.319153         262.596         218.878 
       0.325316          256.79         211.984 
        0.33145         247.862          204.63 
       0.337538         243.565         196.894 
       0.343633         234.823             189 
       0.349808         227.017         181.262 
       0.355968         222.579         174.123 
       0.362074          216.32         167.837 
       0.368217         210.303         162.288 
       0.374374         203.512         157.373 
       0.380519         199.904         152.871 
       0.386598         194.683         148.566 
       0.392688         191.735         144.252 
        0.39888         186.669         139.772 
       0.405048         182.107         135.248 
       0.411186         177.969         130.795 
       0.417313         173.834         126.506 
       0.423458          170.01         122.466 
       0.429607         165.952         118.749 
       0.435692         160.696         115.365 
       0.441815         159.456          112.21 
       0.447964         156.609         109.222 
       0.454126         149.833         106.325 
       0.460267         148.153         103.474 
       0.466387          145.88         100.661 
        0.47254         142.846         97.8658 
       0.478662         141.403         95.1394 
       0.484765         137.206         92.5148 
       0.490885         134.919         90.0138 
       0.497035         133.166         87.6392 
       0.503198         129.499         85.3885 
       0.509342         127.214         83.2587 
       0.515458          125.37          81.232 
       0.521598         123.507         79.2639 
       0.527764         121.651         77.3312 
       0.533884          119.72         75.4482 
           0.54         117.491         73.6095 
       0.546137         116.429         71.8164 
       0.552299         114.512         70.0749 
       0.558452         112.046         68.3992 
       0.564573         110.077         66.7969 
       0.570708         108.499          65.258 
       0.576825         107.031          63.786 
       0.582926         104.935         62.3705 
       0.589034         103.181         60.9956 
       0.595184          101.91         59.6454 
       0.601379         100.659         58.3185 
       0.607522         98.3025          57.037 
       0.613639         98.0432         55.7973 
       0.619772          95.831         54.5928 
       0.625918         94.8178          53.424 
       0.632068         93.7224         52.2915 
       0.638161         92.6005         51.2044 
         0.6443         91.3499         50.1425 
       0.650464         90.2184         49.1088 
       0.656582         88.9879         48.1129 
       0.662703         87.3954         47.1449 
       0.668861         86.3655         46.1979 
       0.675024         85.3949         45.2752 
       0.681124         84.3507         44.3857 
       0.687237         82.8265         43.5174 
       0.693381          81.959         42.6678 
       0.699536         80.9412         41.8394 
       0.705665         81.2243         41.0374 
       0.711789         79.0211         40.2582 
       0.717957         78.5055         39.4951 
        0.72409         77.4036         38.7571 
       0.730186          76.125          38.043 
       0.736317         75.9411         37.3434 
       0.742472         75.0182         36.6589 
       0.748622         74.2418         35.9921 
        0.75476          73.436          35.343 
       0.760888         72.3813         34.7107 
       0.767043         71.7023         34.0913 
       0.773185         70.8478         33.4883 
       0.779291         70.3368         32.9034 
       0.785407         69.7227         32.3319 
       0.791564         68.8616         31.7706 
       0.797719         67.7831         31.2231 
       0.803834         67.5383         30.6923 
       0.809972         66.3687         30.1721 
       0.816124         65.8723         29.6631 
       0.822261         65.3714         29.1673 
       0.828378         64.8721         28.6846 
       0.834502         64.1626         28.2124 
       0.840667         63.5585         27.7479 
       0.846816          62.716         27.2953 
       0.852925         62.2198         26.8558 
       0.859047         61.4095         26.4251 
       0.865192         61.0765         26.0025 
       0.871341         60.7592          25.589 
       0.877463         59.6498         25.1864 
       0.883569          59.284         24.7936 
       0.889708         58.9543         24.4072 
       0.895864         58.4215         24.0282 
       0.902008         57.8714         23.6581 
       0.908149         57.4584         23.2961 
       0.914301         56.9689         22.9411 
       0.920448           56.44          22.594 
       0.926574         55.9071         22.2553 
       0.932687         55.5883         21.9243 
       0.938823         54.7237          21.599 
       0.944975         54.5429         21.2795 
       0.951105         54.0176         20.9678 
       0.957225          53.346         20.6629 
       0.963368         53.3148          20.363 
       0.969511         52.8776         20.0692 
       0.975621         52.4701         19.7828 
       0.981748         51.8765         19.5013 
       0.987916         51.5444         19.2235 
        0.99406         51.2365         18.9523 
        1.00019         50.6327         18.6868 
        1.00632         50.3987         18.4268 
        1.01246         50.0027         18.1713 
        1.01859         49.3358         17.9211 
        1.02471         49.4173          17.676 
        1.03085         48.8914         17.4347 
        1.03698         48.4179         17.1984 
        1.04314         48.0081         16.9655 
        1.04929         47.7384         16.7376 
        1.05541         47.2289         16.5147 
        1.06154         47.1992         16.2955 
        1.06769         46.7426         16.0799 
        1.07382         46.4759         15.8689 
        1.07993         46.2536         15.6622 
        1.08607         45.7586         15.4584 
        1.09222         45.5715         15.2581 
        1.09836          45.215         15.0615 
        1.10449         44.8718         14.8687 
        1.11063         44.3915         14.6791 
        1.11677         44.1644         14.4928 
         1.1229         43.9665         14.3102 
        1.12903         43.3589         14.1306 
        1.13518         43.4602         13.9539 
        1.14131         43.2151         13.7804 
        1.14745         42.6336         13.6099 
        1.15359         42.6081         13.4423 
        1.15973          42.108         13.2775 
        1.16584         41.8551         13.1163 
        1.17197         41.7046         12.9574 
        1.17811         41.4122         12.8008 
        1.18424         40.9932         12.6472 
        1.19038         40.9129         12.4957 
        1.19652         40.7338         12.3468 
        1.20267         40.4182         12.2003 
        1.20881         40.1093         12.0563 
        1.21495         39.8158         11.9148 
        1.22108         39.6073         11.7756 
         1.2272         39.1873          11.639 
        1.23334         39.0844         11.5042 
        1.23949          39.001         11.3713 
        1.24562          38.644         11.2409 
        1.25174         38.5081         11.1127 
        1.25789         38.2429         10.9861 
        1.26402         37.9567         10.8618 
        1.27014         37.6256         10.7397 
        1.27628         37.5041         10.6191 
        1.28244         37.2536         10.5001 
        1.28858         37.1231         10.3832 
        1.29471         36.9638         10.2682 
        1.30084         36.7427         10.1552 
        1.30697          36.456         10.0437 
        1.31312         36.1474          9.9337 
        1.31925         36.0695         9.82572 
        1.32537         35.8871         9.71946 
        1.33151         35.6015         9.61441 
        1.33765         35.5645         9.51098 
        1.34378         35.3274         9.40929 
        1.34992         34.9491         9.30902 
        1.35606         34.7958         9.21001 
         1.3622         34.6223         9.11262 
        1.36833         34.4188         9.01689 
        1.37445         34.4084         8.92258 
        1.38059           34.16         8.82935 
        1.38675         33.8439         8.73724 
        1.39288         33.8048         8.64681 
        1.39901         33.4976         8.55772 
        1.40515         33.3735         8.46969 
         1.4113         33.2537         8.38293 
        1.41742         32.9356         8.29774 
        1.42355         32.8628         8.21357 
         1.4297         32.6559         8.13032 
        1.43585         32.5989         8.04827 
        1.44198         32.3023         7.96767 
        1.44809         32.1748         7.88833 
        1.45423          32.048         7.80978 
        1.46036         31.9419         7.73245 
        1.46649         31.6946         7.65615 
        1.47263         31.5389         7.58082 
        1.47877         31.4484         7.50654 
        1.48491         31.3069         7.43314 
        1.49104         31.1255         7.36089 
        1.49718         30.8324         7.28955 
        1.50333         30.8067         7.21905 
        1.50947         30.6693         7.14963 
         1.5156         30.4755         7.08123 
        1.52172         30.2777         7.01373 
        1.52787         30.2867         6.94698 
          1.534          30.025         6.88119 
        1.54013         29.8272         6.81632 
        1.54627         29.7763         6.75217 
        1.55241         29.5704         6.68884 
        1.55855         29.4333         6.62642 
        1.56467         29.2439         6.56497 
         1.5708         29.2334         6.50413 
        1.57695         28.9314         6.44397 
        1.58308         28.9603         6.38472 
        1.58922         28.7976         6.32617 
        1.59535         28.6086         6.26838 
         1.6015         28.4552         6.21124 
        1.60764         28.3874         6.15485 
        1.61376         28.1769         6.09931 
        1.61989         27.9907         6.04442 
        1.62604         27.9879         5.99008 
        1.63218         27.8051         5.93645 
        1.63831         27.7055          5.8836 
        1.64444          27.574         5.83138 
        1.65059         27.3845         5.77968 
        1.65673         27.2608         5.72865 
        1.66285         27.1803         5.67839 
        1.66898         27.0453         5.62872 
        1.67512         26.9708         5.57955 
        1.68127         26.7623         5.53093 
         1.6874         26.6732         5.48299 
        1.69353         26.5782         5.43566 
        1.69967         26.4083         5.38877 
        1.70581         26.3198         5.34246 
        1.71193         26.2184         5.29688 
        1.71806         26.0611         5.25173 
        1.72421         25.9249         5.20702 
        1.73035         25.8142         5.16288 
        1.73649         25.7547         5.11927 
        1.74262         25.6042          5.0762 
        1.74876         25.5746          5.0336 
        1.75489          25.393         4.99157 
        1.76101         25.2808         4.95005 
        1.76715          25.188         4.90894 
        1.77329         25.1139         4.86824 
        1.77943           24.96           4.828 
        1.78557         24.8599         4.78827 
        1.79171         24.7713         4.74898 
        1.79785         24.6244         4.71013 
        1.80399         24.5193         4.67172 
        1.81012         24.4795         4.63379 
        1.81625         24.3491         4.59631 
        1.82239         24.3126         4.55918 
        1.82853         24.0974         4.52248 
        1.83466         23.9935         4.48623 
        1.84078         23.8476         4.45041 
        1.84692         23.8281         4.41493 
        1.85306         23.6982         4.37979 
         1.8592         23.5841         4.34509 
        1.86533         23.4805         4.31079 
        1.87147         23.3899         4.27682 
        1.87761         23.3674         4.24321 
        1.88375         23.2636         4.20999 
        1.88988          23.161         4.17717 
        1.89601          22.989         4.14469 
        1.90215         22.9532         4.11252 
        1.90829         22.9024         4.08071 
        1.91442         22.7461         4.04924 
        1.92056         22.6757         4.01813 
         1.9267         22.5522         3.98732 
        1.93284         22.4468         3.95681 
        1.93897         22.3963         3.92668 
        1.94509         22.3004         3.89693 
        1.95123         22.1775         3.86741 
        1.95737         22.1079         3.83818 
        1.96349         22.0127         3.80932 
        1.96964         21.9052         3.78069 
        1.97578         21.8645         3.75233 
        1.98192         21.7174         3.72433 
        1.98805         21.6812          3.6966 
        1.99419          21.574         3.66916 
        2.00033         21.4224         3.64199 
        2.00647         21.3704          3.6151 
         2.0126         21.2788         3.58853 
        2.01874         21.2078         3.56219 
        2.02488         21.1927         3.53608 
        2.03101         21.0541         3.51029 
        2.03714         20.9685         3.48479 
        2.04328         20.8674          3.4595 
        2.04941         20.7971         3.43449 
        2.05554         20.7406         3.40975 
        2.06167         20.6659         3.38522 
        2.06781         20.5837         3.36093 
        2.07396         20.5112         3.33684 
        2.08009         20.4482         3.31303 
        2.08622         20.3067         3.28948 
        2.09237         20.2445         3.26611 
        2.09851         20.1798         3.24297 
        2.10464         20.1176         3.22009 
        2.11077         19.9706         3.19746 
        2.11691         19.9491           3.175 
        2.12305         19.8569         3.15275 
        2.12918         19.8023         3.13077 
        2.13531         19.7082           3.109 
        2.14145         19.6466         3.08739 
         2.1476         19.5531         3.06596 
        2.15372         19.4846         3.04484 
        2.15985         19.3677          3.0239 
        2.16599         19.3383          3.0031 
        2.17213         19.2809         2.98251 
        2.17827         19.1646         2.96213 
         2.1844         19.0777         2.94195 
        2.19054         19.0205         2.92196 
        2.19666         18.9837         2.90218 
         2.2028          18.926         2.88256 
        2.20893         18.8139         2.86312 
        2.21508         18.7289         2.84384 
        2.22122         18.6279         2.82473 
        2.22736         18.6185         2.80583 
        2.23349         18.5186         2.78712 
        2.23962          18.441         2.76856 
        2.24577         18.3533         2.75016 
         2.2519         18.3339         2.73195 
        2.25802         18.2701         2.71393 
        2.26417         18.2096         2.69603 
        2.27031         18.1138         2.67828 
        2.27644         18.0631         2.66073 
        2.28257         17.9756         2.64335 
        2.28872         17.8898         2.62608 
        2.29486         17.8351         2.60898 
        2.30099           17.76         2.59206 
        2.30712         17.7536         2.57529 
        2.31326         17.6568         2.55864 
         2.3194         17.5982         2.54214 
        2.32553         17.5138         2.52582 
        2.33166         17.4263         2.50965 
         2.3378         17.3677          2.4936 
        2.34394          17.329         2.47768 
        2.35007         17.2458         2.46193 
        2.35619         17.1393         2.44634 
        2.36233         17.1295         2.43084 
        2.36848         17.0586         2.41544 
        2.37462          17.019         2.40021 
        2.38075         16.9355         2.38513 
        2.38689         16.9117         2.37017 
        2.39303         16.8068         2.35533 
        2.39916         16.7621         2.34064 
        2.40529         16.6871         2.32608 
        2.41143         16.6447         2.31163 
        2.41757         16.5814         2.29729 
         2.4237         16.5101         2.28311 
        2.42983         16.4581         2.26904 
        2.43598         16.4051         2.25506 
        2.44211          16.336         2.24122 
        2.44823           16.26         2.22753 
        2.45437         16.2285         2.21391 
        2.46052         16.1693          2.2004 
        2.46665         16.1141         2.18702 
        2.47279         16.0301         2.17376 
        2.47892         16.0067         2.16061 
        2.48507         15.9452         2.14754 
         2.4912         15.8879         2.13462 
