# k  (h/Mpc)    Pcb(k)  (Mpc/h)^3    Pcb_linear(k)  (Mpc/h)^3
     0.00783031         6413.83         6491.39 
       0.013688         7996.14         7963.99 
       0.019231          7951.1         7937.53 
      0.0249154         7078.75         7166.39 
      0.0312784         5989.61         6013.47 
      0.0375637         4993.01         4974.24 
      0.0433917         4224.03         4251.32 
      0.0492413         3766.08         3765.75 
      0.0555754         3390.29         3439.95 
      0.0619321         3238.86          3218.3 
       0.067871         2984.03         3021.83 
      0.0738098         2751.49          2787.4 
      0.0800417         2446.88         2493.23 
      0.0862327         2162.75         2180.66 
      0.0921407         1910.45         1902.42 
      0.0982031         1669.98         1668.41 
       0.104506         1529.92         1494.11 
       0.110769         1415.06         1384.52 
       0.116806         1337.37         1320.38 
       0.122832         1293.97         1273.92 
       0.129052         1221.39         1222.37 
       0.135211         1155.42         1154.13 
       0.141259         1086.39         1068.79 
       0.147318         1001.41         973.047 
       0.153489         902.834         877.639 
       0.159709         832.657         795.145 
       0.165845         784.035          733.26 
       0.171974         734.808         690.834 
       0.178125         705.354         663.057 
       0.184229         683.119         643.061 
        0.19034          645.65         623.406 
       0.196428         632.323         599.064 
       0.202534         608.838          568.08 
       0.208729         571.234         531.524 
       0.214876         533.673         493.901 
       0.220989         508.976         459.196 
       0.227147         477.807         429.882 
        0.23329         456.377         407.339 
       0.239377         444.604         390.895 
       0.245482         417.908          378.34 
       0.251667         413.884         367.161 
       0.257832         400.659         355.412 
       0.263955         386.184         341.903 
       0.270079         370.569         326.437 
        0.27624          362.29         309.779 
       0.282372         346.394          293.37 
        0.28843         332.822         278.538 
       0.294538         317.272         265.704 
       0.300721         313.053         255.052 
        0.30691         298.874         246.346 
       0.313033         292.082         238.923 
       0.319153         280.814         231.899 
       0.325316         274.411         224.595 
        0.33145         264.985         216.804 
       0.337538         260.522         208.608 
       0.343633         251.231         200.245 
       0.349808         242.864         192.046 
       0.355968         238.337         184.482 
       0.362074         231.803         177.822 
       0.368217         225.387         171.943 
       0.374374         217.944         166.736 
       0.380519         214.258         161.965 
       0.386598         208.683         157.405 
       0.392688         205.648         152.835 
        0.39888          200.22         148.087 
       0.405048         195.343         143.294 
       0.411186         190.943         138.577 
       0.417313         186.653         134.032 
       0.423458         182.599         129.752 
       0.429607         178.301         125.814 
       0.435692         172.734         122.229 
       0.441815         171.419         118.886 
       0.447964         168.327         115.721 
       0.454126         161.127         112.651 
       0.460267         159.322          109.63 
       0.466387         156.996          106.65 
        0.47254         153.671         103.688 
       0.478662         152.241           100.8 
       0.484765         147.686         98.0188 
       0.490885         145.298          95.369 
       0.497035         143.389         92.8531 
       0.503198         139.485         90.4686 
       0.509342         137.162          88.212 
       0.515458         135.196         86.0647 
       0.521598         133.156         83.9796 
       0.527764         131.189         81.9319 
       0.533884          129.13         79.9369 
           0.54         126.788         77.9887 
       0.546137         125.686          76.089 
       0.552299         123.574         74.2438 
       0.558452         121.058         72.4685 
       0.564573         118.952         70.7709 
       0.570708         117.177         69.1405 
       0.576825          115.65         67.5809 
       0.582926         113.429         66.0811 
       0.589034         111.624         64.6244 
       0.595184         110.254         63.1939 
       0.601379         108.924         61.7881 
       0.607522          106.41         60.4303 
       0.613639          106.11         59.1169 
       0.619772         103.742         57.8407 
       0.625918         102.624         56.6024 
       0.632068         101.464         55.4025 
       0.638161         100.315         54.2507 
         0.6443         98.9746         53.1257 
       0.650464         97.7926         52.0305 
       0.656582         96.4264         50.9753 
       0.662703         94.7699         49.9497 
       0.668861         93.6252         48.9463 
       0.675024         92.5948         47.9688 
       0.681124         91.5556         47.0264 
       0.687237         89.8885         46.1064 
       0.693381         88.8966         45.2062 
       0.699536         87.8986         44.3286 
       0.705665         88.1706         43.4788 
       0.711789         85.8038         42.6533 
       0.717957          85.303         41.8448 
        0.72409         84.0873         41.0629 
       0.730186         82.6993         40.3063 
       0.736317         82.5004         39.5651 
       0.742472         81.5703         38.8399 
       0.748622         80.7221         38.1333 
        0.75476         79.8679         37.4456 
       0.760888         78.7317         36.7757 
       0.767043         78.0316         36.1195 
       0.773185         77.1163         35.4806 
       0.779291         76.4937          34.861 
       0.785407         75.8593         34.2554 
       0.791564          74.977         33.6607 
       0.797719         73.8108         33.0807 
       0.803834         73.5293         32.5183 
       0.809972         72.2771         31.9672 
       0.816124          71.815         31.4278 
       0.822261         71.2535         30.9026 
       0.828378         70.6878         30.3911 
       0.834502         69.9607         29.8909 
       0.840667         69.2807         29.3988 
       0.846816         68.3875         28.9192 
       0.852925         67.8541         28.4535 
       0.859047         66.9781         27.9972 
       0.865192         66.6357         27.5495 
       0.871341          66.254         27.1113 
       0.877463         65.1111         26.6848 
       0.883569         64.7191         26.2686 
       0.889708         64.3515         25.8593 
       0.895864         63.7907         25.4577 
       0.902008         63.1891         25.0656 
       0.908149         62.7612          24.682 
       0.914301         62.1849          24.306 
       0.920448         61.6658         23.9381 
       0.926574         61.0794         23.5793 
       0.932687         60.7847         23.2287 
       0.938823         59.8295          22.884 
       0.944975         59.5969         22.5455 
       0.951105         59.0441         22.2152 
       0.957225         58.3176         21.8922 
       0.963368         58.2616         21.5745 
       0.969511         57.8204         21.2632 
       0.975621         57.4013         20.9597 
       0.981748         56.7675         20.6615 
       0.987916         56.3843         20.3672 
        0.99406         56.0529         20.0798 
        1.00019         55.4128         19.7986 
        1.00632         55.1596          19.523 
        1.01246         54.7093         19.2524 
        1.01859         53.9892         18.9873 
        1.02471         54.0959         18.7276 
        1.03085         53.5121         18.4719 
        1.03698         53.0418         18.2216 
        1.04314         52.5804         17.9749 
        1.04929         52.2834         17.7333 
        1.05541         51.7365         17.4973 
        1.06154         51.7145         17.2649 
        1.06769         51.2171         17.0365 
        1.07382         50.9512          16.813 
        1.07993         50.6882          16.594 
        1.08607         50.1792         16.3781 
        1.09222         49.9547         16.1658 
        1.09836         49.5787         15.9576 
        1.10449         49.2112         15.7533 
        1.11063         48.7186         15.5524 
        1.11677         48.4562         15.3551 
         1.1229         48.2092         15.1616 
        1.12903         47.5522         14.9712 
        1.13518         47.7128         14.7841 
        1.14131         47.4173         14.6002 
        1.14745         46.7783         14.4196 
        1.15359         46.7474         14.2421 
        1.15973         46.2151         14.0675 
        1.16584         45.9572         13.8966 
        1.17197         45.7516         13.7283 
        1.17811         45.4865         13.5624 
        1.18424         45.0146         13.3996 
        1.19038         44.8964         13.2391 
        1.19652         44.7221         13.0814 
        1.20267         44.3639         12.9262 
        1.20881         44.0561         12.7735 
        1.21495         43.7168         12.6236 
        1.22108         43.5004         12.4762 
         1.2272         43.0487         12.3314 
        1.23334         42.9286         12.1887 
        1.23949         42.8608         12.0478 
        1.24562         42.4505         11.9096 
        1.25174         42.3076         11.7738 
        1.25789         42.0411         11.6397 
        1.26402         41.7003          11.508 
        1.27014         41.3487         11.3786 
        1.27628         41.2229         11.2508 
        1.28244         40.9378         11.1248 
        1.28858         40.7949         11.0009 
        1.29471          40.633         10.8791 
        1.30084         40.3941         10.7594 
        1.30697          40.082         10.6412 
        1.31312         39.7555         10.5247 
        1.31925         39.6762         10.4103 
        1.32537         39.4723         10.2977 
        1.33151         39.1404         10.1864 
        1.33765         39.1046         10.0768 
        1.34378         38.8446         9.96907 
        1.34992          38.459         9.86284 
        1.35606         38.2769         9.75794 
         1.3622         38.0868         9.65476 
        1.36833         37.8708         9.55333 
        1.37445         37.8395         9.45342 
        1.38059         37.5789         9.35464 
        1.38675         37.2517         9.25704 
        1.39288         37.1996         9.16124 
        1.39901         36.8729         9.06684 
        1.40515         36.7253         8.97357 
         1.4113         36.6039         8.88166 
        1.41742         36.2764         8.79139 
        1.42355         36.1626         8.70222 
         1.4297          35.948         8.61402 
        1.43585         35.8765         8.52709 
        1.44198         35.5678         8.44169 
        1.44809         35.4372         8.35763 
        1.45423         35.2885         8.27441 
        1.46036         35.1623         8.19248 
        1.46649         34.8973         8.11164 
        1.47263           34.73         8.03182 
        1.47877         34.6346         7.95313 
        1.48491         34.4989         7.87537 
        1.49104         34.2643         7.79882 
        1.49718         33.9379         7.72323 
        1.50333         33.9167         7.64854 
        1.50947         33.7725         7.57498 
         1.5156         33.5605         7.50252 
        1.52172         33.3599           7.431 
        1.52787         33.3601         7.36028 
          1.534         33.0836         7.29057 
        1.54013         32.8714         7.22184 
        1.54627         32.8076         7.15388 
        1.55241          32.578         7.08678 
        1.55855         32.4382         7.02064 
        1.56467         32.2005         6.95554 
         1.5708         32.2159         6.89108 
        1.57695          31.896         6.82734 
        1.58308         31.8971         6.76456 
        1.58922         31.7587         6.70253 
        1.59535         31.5465         6.64131 
         1.6015         31.3541         6.58077 
        1.60764         31.2644         6.52102 
        1.61376         31.0637         6.46218 
        1.61989           30.85         6.40402 
        1.62604         30.8406         6.34645 
        1.63218         30.6623         6.28963 
        1.63831         30.5294         6.23364 
        1.64444         30.4025         6.17831 
        1.65059          30.182         6.12353 
        1.65673          30.043         6.06947 
        1.66285         29.9594         6.01622 
        1.66898         29.7976         5.96359 
        1.67512         29.7172          5.9115 
        1.68127         29.4946         5.85998 
         1.6874         29.4054          5.8092 
        1.69353         29.2841         5.75904 
        1.69967         29.1175         5.70937 
        1.70581         29.0258         5.66031 
        1.71193         28.9077         5.61201 
        1.71806         28.7251         5.56417 
        1.72421         28.5707          5.5168 
        1.73035         28.4488         5.47004 
        1.73649         28.3793         5.42383 
        1.74262         28.2093          5.3782 
        1.74876         28.1994         5.33306 
        1.75489         27.9957         5.28854 
        1.76101         27.8567         5.24454 
        1.76715         27.7623         5.20098 
        1.77329         27.6746         5.15787 
        1.77943         27.5216         5.11523 
        1.78557         27.3889         5.07314 
        1.79171         27.2919         5.03151 
        1.79785         27.1445         4.99035 
        1.80399         27.0361         4.94966 
        1.81012         26.9733         4.90947 
        1.81625         26.8284         4.86976 
        1.82239          26.777         4.83042 
        1.82853         26.5531         4.79154 
        1.83466          26.459         4.75313 
        1.84078         26.2842         4.71518 
        1.84692         26.2474         4.67759 
        1.85306         26.1152         4.64036 
         1.8592         25.9898          4.6036 
        1.86533         25.8675         4.56725 
        1.87147         25.7761         4.53127 
        1.87761         25.7462         4.49565 
        1.88375         25.6336         4.46046 
        1.88988         25.5192         4.42569 
        1.89601          25.337         4.39127 
        1.90215         25.2996         4.35719 
        1.90829         25.2452         4.32349 
        1.91442         25.0589         4.29014 
        1.92056         24.9956         4.25718 
         1.9267          24.845         4.22453 
        1.93284         24.7259         4.19221 
        1.93897         24.6787         4.16029 
        1.94509         24.5655         4.12877 
        1.95123         24.4415         4.09749 
        1.95737         24.3472         4.06652 
        1.96349         24.2516         4.03595 
        1.96964         24.1291         4.00561 
        1.97578         24.0872         3.97557 
        1.98192         23.9278          3.9459 
        1.98805         23.8857         3.91653 
        1.99419         23.7636         3.88745 
        2.00033         23.5994         3.85866 
        2.00647         23.5456         3.83017 
         2.0126         23.4449         3.80202 
        2.01874         23.3713         3.77411 
        2.02488         23.3509         3.74646 
        2.03101         23.1756         3.71913 
        2.03714         23.0914         3.69211 
        2.04328         22.9809         3.66532 
        2.04941         22.9156         3.63882 
        2.05554         22.8373         3.61261 
        2.06167         22.7511         3.58662 
        2.06781          22.661         3.56088 
        2.07396         22.5885         3.53536 
        2.08009         22.5209         3.51013 
        2.08622          22.361         3.48518 
        2.09237         22.2912         3.46042 
        2.09851         22.2207          3.4359 
        2.10464         22.1612         3.41166 
        2.11077         21.9912         3.38768 
        2.11691         21.9598         3.36389 
        2.12305          21.867         3.34032 
        2.12918         21.8218         3.31703 
        2.13531         21.7047         3.29397 
        2.14145         21.6539         3.27107 
         2.1476         21.5275         3.24836 
        2.15372         21.4505         3.22599 
        2.15985         21.3293          3.2038 
        2.16599         21.2969         3.18176 
        2.17213         21.2397         3.15995 
        2.17827         21.0873         3.13835 
         2.1844         20.9962         3.11698 
        2.19054          20.938         3.09579 
        2.19666         20.8882         3.07484 
         2.2028          20.826         3.05406 
        2.20893         20.7208         3.03346 
        2.21508         20.6209         3.01303 
        2.22122         20.4953         2.99278 
        2.22736         20.5016         2.97276 
        2.23349         20.3862         2.95293 
        2.23962         20.3025         2.93327 
        2.24577         20.2024         2.91377 
         2.2519         20.1754         2.89448 
        2.25802          20.094         2.87539 
        2.26417          20.035         2.85643 
        2.27031         19.9397         2.83761 
        2.27644         19.8742         2.81903 
        2.28257         19.7767         2.80061 
        2.28872         19.6788         2.78232 
        2.29486         19.6298          2.7642 
        2.30099         19.5392         2.74627 
        2.30712         19.5226          2.7285 
        2.31326         19.4322         2.71086 
         2.3194         19.3527         2.69338 
        2.32553         19.2646         2.67609 
        2.33166         19.1692         2.65896 
         2.3378         19.1022         2.64195 
        2.34394         19.0618         2.62509 
        2.35007          18.975          2.6084 
        2.35619         18.8525         2.59188 
        2.36233         18.8436         2.57546 
        2.36848         18.7466         2.55915 
        2.37462         18.6946         2.54301 
        2.38075         18.6183         2.52703 
        2.38689         18.5894         2.51118 
        2.39303         18.4716         2.49546 
        2.39916         18.4203         2.47989 
        2.40529         18.3371         2.46446 
        2.41143         18.2948         2.44915 
        2.41757         18.2225         2.43397 
         2.4237         18.1432         2.41894 
        2.42983         18.0814         2.40404 
        2.43598         18.0301         2.38922 
        2.44211         17.9499         2.37456 
        2.44823         17.8638         2.36005 
        2.45437          17.822         2.34563 
        2.46052         17.7622         2.33131 
        2.46665         17.7076         2.31714 
        2.47279         17.6121         2.30309 
        2.47892         17.5847         2.28915 
        2.48507         17.5086         2.27531 
         2.4912         17.4535         2.26161 
