# k  (h/Mpc)    P(k)  (Mpc/h)^3    P_linear(k)  (Mpc/h)^3
     0.00783031         15939.5         16228.3 
       0.013688         20644.6         20499.8 
       0.019231         20942.8         20950.2 
      0.0249154         18951.1         19416.8 
      0.0312784         16557.6         16796.2 
      0.0375637         14261.9         14303.3 
      0.0433917         12228.8         12503.1 
      0.0492413         11118.5         11244.5 
      0.0555754         9959.34         10345.7 
      0.0619321         9628.29         9680.06 
       0.067871         8739.09         9068.94 
      0.0738098          8058.8         8359.76 
      0.0800417         7155.99         7506.03 
      0.0862327         6429.92         6627.93 
      0.0921407          5823.1         5861.77 
      0.0982031         5181.21         5222.96 
       0.104506         4869.19         4744.11 
       0.110769         4533.48         4431.27 
       0.116806         4299.69         4228.95 
       0.122832         4118.76         4061.33 
       0.129052         3830.99         3869.63 
       0.135211         3620.06         3632.95 
       0.141259         3443.29         3359.02 
       0.147318         3220.78         3069.72 
       0.153489         2935.68         2793.88 
       0.159709         2770.57         2562.33 
       0.165845         2674.83         2390.54 
       0.171974         2537.39            2270 
       0.178125         2424.63         2183.79 
       0.184229         2327.39         2111.82 
        0.19034         2209.05         2034.92 
       0.196428         2161.39         1942.96 
       0.202534         2073.31         1834.68 
       0.208729         1975.79         1716.11 
       0.214876         1892.91         1601.26 
       0.220989          1826.4         1499.95 
       0.227147         1751.49         1416.66 
        0.23329         1685.68         1352.57 
       0.239377         1663.08         1303.51 
       0.245482         1563.44         1262.08 
       0.251667         1556.68         1221.23 
       0.257832         1495.79         1176.71 
       0.263955         1446.37         1127.16 
       0.270079         1397.18         1073.77 
        0.27624         1380.74         1019.55 
       0.282372          1323.7         968.887 
        0.28843         1317.58          924.69 
       0.294538         1253.38         887.057 
       0.300721         1246.37         855.344 
        0.30691         1199.65         828.001 
       0.313033         1176.39         802.931 
       0.319153         1158.31         777.782 
       0.325316         1120.62         751.248 
        0.33145         1096.11         723.528 
       0.337538         1076.85         695.536 
       0.343633         1054.39         668.216 
       0.349808         1019.53         642.362 
       0.355968         1012.52         619.167 
       0.362074         1003.35         598.741 
       0.368217         972.023         580.438 
       0.374374         936.548         563.539 
       0.380519         938.939         547.344 
       0.386598         912.483         531.443 
       0.392688         909.148         515.295 
        0.39888         883.539         498.799 
       0.405048         873.112         482.574 
       0.411186         861.301             467 
       0.417313         843.345         452.392 
       0.423458          828.77         438.826 
       0.429607           818.9         426.269 
       0.435692         801.998         414.723 
       0.441815         795.724         403.705 
       0.447964         779.502         392.969 
       0.454126         772.965         382.395 
       0.460267         754.148         372.001 
       0.466387         745.303         361.775 
        0.47254         740.858         351.743 
       0.478662          733.48         342.147 
       0.484765         712.596          333.05 
       0.490885         708.147         324.395 
       0.497035          693.84         316.151 
       0.503198         689.714         308.304 
       0.509342         682.559         300.793 
       0.515458         678.993         293.532 
       0.521598         662.338         286.397 
       0.527764          650.64         279.396 
       0.533884         648.877         272.627 
           0.54         642.132         266.058 
       0.546137          636.92          259.68 
       0.552299         628.408         253.512 
       0.558452         624.037         247.609 
       0.564573         616.051          241.98 
       0.570708         609.276         236.548 
       0.576825         593.095         231.305 
       0.582926         595.814         226.218 
       0.589034         590.037         221.253 
       0.595184         584.637         216.388 
       0.601379         576.431         211.627 
       0.607522         568.418         207.044 
       0.613639         568.697         202.618 
       0.619772         556.634         198.316 
       0.625918         553.675          194.14 
       0.632068          546.38         190.092 
       0.638161         544.342         186.208 
         0.6443         535.111         182.413 
       0.650464         533.192         178.714 
       0.656582         528.871         175.142 
       0.662703         527.064         171.662 
       0.668861         518.219         168.249 
       0.675024         514.165         164.922 
       0.681124          510.71         161.718 
       0.687237         506.587         158.593 
       0.693381         500.116          155.54 
       0.699536         492.408         152.568 
       0.705665         491.759         149.692 
       0.711789         489.299         146.896 
       0.717957         484.804         144.155 
        0.72409         482.412         141.499 
       0.730186         475.194         138.926 
       0.736317         472.435         136.402 
       0.742472         469.969          133.93 
       0.748622         464.759          131.52 
        0.75476         458.333         129.176 
       0.760888         454.345         126.892 
       0.767043         454.635         124.655 
       0.773185         450.016         122.478 
       0.779291         445.074         120.367 
       0.785407         442.344         118.304 
       0.791564         437.379         116.277 
       0.797719         435.489           114.3 
       0.803834         430.817         112.382 
       0.809972         429.859         110.502 
       0.816124         428.551         108.661 
       0.822261         422.673         106.867 
       0.828378         420.258          105.12 
       0.834502         415.876          103.41 
       0.840667         412.812         101.728 
       0.846816         411.068         100.089 
       0.852925         408.082         98.4962 
       0.859047         406.397         96.9352 
       0.865192         401.357         95.4034 
       0.871341         398.086         93.9041 
       0.877463         397.855         92.4442 
       0.883569         394.097         91.0193 
       0.889708          391.39         89.6177 
       0.895864         389.852         88.2422 
       0.902008         386.461         86.8989 
       0.908149         382.079         85.5846 
       0.914301         379.831         84.2957 
       0.920448         378.013         83.0349 
       0.926574          372.31         81.8045 
       0.932687         372.448         80.6019 
       0.938823         368.691         79.4193 
       0.944975         368.813         78.2581 
       0.951105         364.535         77.1244 
       0.957225         362.317         76.0154 
       0.963368         358.107         74.9247 
       0.969511          357.27         73.8555 
       0.975621         354.963         72.8131 
       0.981748         353.235         71.7884 
       0.987916         351.227         70.7771 
        0.99406         345.678         69.7893 
        1.00019         344.584         68.8225 
        1.00632         343.106          67.875 
        1.01246         340.325         66.9441 
        1.01859         340.748         66.0324 
        1.02471         335.518         65.1389 
        1.03085         334.176         64.2591 
        1.03698         332.925         63.3975 
        1.04314         329.917         62.5482 
        1.04929         326.701         61.7167 
        1.05541         327.772         60.9037 
        1.06154         322.148         60.1035 
        1.06769         321.354         59.3167 
        1.07382         318.993         58.5466 
        1.07993         317.334         57.7921 
        1.08607         316.446          57.048 
        1.09222         313.199         56.3163 
        1.09836         311.331         55.5984 
        1.10449          308.62          54.894 
        1.11063         305.599         54.2012 
        1.11677         305.863         53.5207 
         1.1229         303.539         52.8531 
        1.12903         301.594         52.1965 
        1.13518         298.826         51.5506 
        1.14131           297.4         50.9161 
        1.14745         296.098         50.2926 
        1.15359         294.009         49.6796 
        1.15973          292.13         49.0767 
        1.16584         290.004         48.4866 
        1.17197         289.926         47.9054 
        1.17811         286.352          47.332 
        1.18424         284.357         46.7697 
        1.19038          283.65         46.2151 
        1.19652         281.357         45.6697 
        1.20267         280.566         45.1332 
        1.20881         278.486         44.6055 
        1.21495         276.383         44.0871 
        1.22108         274.855         43.5771 
         1.2272         273.236         43.0764 
        1.23334         271.898         42.5824 
        1.23949         269.603         42.0951 
        1.24562         268.768         41.6169 
        1.25174         266.888         41.1468 
        1.25789         264.767         40.6827 
        1.26402         262.824         40.2266 
        1.27014         261.345         39.7786 
        1.27628         259.922         39.3362 
        1.28244         259.639         38.8997 
        1.28858         257.019         38.4705 
        1.29471         255.528         38.0487 
        1.30084         253.772         37.6338 
        1.30697         252.577         37.2244 
        1.31312         250.031         36.8206 
        1.31925         249.189         36.4241 
        1.32537         248.424         36.0339 
        1.33151         246.073         35.6481 
        1.33765          244.27         35.2681 
        1.34378         243.616         34.8946 
        1.34992         242.158         34.5262 
        1.35606         241.637         34.1623 
         1.3622          239.37         33.8045 
        1.36833         237.493         33.4526 
        1.37445         236.514         33.1059 
        1.38059         234.496         32.7632 
        1.38675         233.684         32.4245 
        1.39288         232.385          32.092 
        1.39901         231.425         31.7643 
        1.40515         229.621         31.4405 
         1.4113         228.484         31.1213 
        1.41742         226.694         30.8079 
        1.42355         225.704         30.4981 
         1.4297         223.772         30.1918 
        1.43585         222.812         29.8898 
        1.44198         221.922         29.5931 
        1.44809         220.457          29.301 
        1.45423          219.29         29.0118 
        1.46036         217.976          28.727 
        1.46649         216.458          28.446 
        1.47263         215.304         28.1686 
        1.47877          213.82          27.895 
        1.48491         212.006         27.6247 
        1.49104         211.509         27.3585 
        1.49718         209.743         27.0956 
        1.50333         209.085         26.8358 
        1.50947         207.702           26.58 
         1.5156         205.955         26.3279 
        1.52172         205.228         26.0791 
        1.52787         203.524          25.833 
          1.534          203.11         25.5905 
        1.54013          201.43         25.3513 
        1.54627         200.354         25.1147 
        1.55241         199.243         24.8812 
        1.55855          197.75          24.651 
        1.56467         196.703         24.4243 
         1.5708         196.053         24.1999 
        1.57695         194.835          23.978 
        1.58308          193.68         23.7594 
        1.58922          192.11         23.5434 
        1.59535         190.667         23.3301 
         1.6015         190.164         23.1193 
        1.60764         188.983         22.9111 
        1.61376         187.964         22.7061 
        1.61989          187.04         22.5035 
        1.62604         185.673         22.3028 
        1.63218         184.886         22.1048 
        1.63831         183.479         21.9097 
        1.64444          182.72         21.7168 
        1.65059         181.647         21.5258 
        1.65673         180.435         21.3374 
        1.66285         179.257         21.1517 
        1.66898         178.309         20.9682 
        1.67512         177.862         20.7865 
        1.68127         176.026         20.6068 
         1.6874         175.285         20.4297 
        1.69353         174.257         20.2548 
        1.69967         172.945         20.0815 
        1.70581         172.304         19.9103 
        1.71193         170.995         19.7418 
        1.71806         170.438         19.5749 
        1.72421         169.263         19.4095 
        1.73035         168.574         19.2463 
        1.73649         167.567         19.0851 
        1.74262         166.522         18.9258 
        1.74876         165.487         18.7682 
        1.75489         164.648         18.6128 
        1.76101         163.214         18.4592 
        1.76715         163.029         18.3071 
        1.77329         161.881         18.1565 
        1.77943         161.151         18.0076 
        1.78557         160.191         17.8606 
        1.79171         159.394         17.7152 
        1.79785         158.215         17.5714 
        1.80399         157.359         17.4293 
        1.81012         156.486         17.2889 
        1.81625         155.962         17.1501 
        1.82239         154.736         17.0127 
        1.82853         154.236         16.8768 
        1.83466         153.094         16.7426 
        1.84078         152.439         16.6099 
        1.84692         151.008         16.4785 
        1.85306         150.797         16.3484 
         1.8592          149.74         16.2199 
        1.86533         149.086         16.0929 
        1.87147         147.885          15.967 
        1.87761         147.062         15.8425 
        1.88375         146.176         15.7194 
        1.88988         145.127         15.5978 
        1.89601         144.825         15.4774 
        1.90215         143.806         15.3582 
        1.90829         143.041         15.2404 
        1.91442         142.373         15.1237 
        1.92056         141.476         15.0084 
         1.9267         140.747         14.8942 
        1.93284         139.713         14.7811 
        1.93897         139.229         14.6694 
        1.94509          138.48         14.5591 
        1.95123         137.862         14.4496 
        1.95737          137.06         14.3412 
        1.96349         136.245         14.2342 
        1.96964         135.238          14.128 
        1.97578         134.519         14.0229 
        1.98192         133.996          13.919 
        1.98805         133.221         13.8162 
        1.99419         132.373         13.7144 
        2.00033         131.716         13.6136 
        2.00647         131.087         13.5138 
         2.0126         130.048         13.4152 
        2.01874         129.489         13.3175 
        2.02488         129.155         13.2206 
        2.03101         127.829         13.1249 
        2.03714         127.509         13.0302 
        2.04328         126.557         12.9364 
        2.04941         126.083         12.8435 
        2.05554         125.199         12.7517 
        2.06167         124.801         12.6606 
        2.06781         123.901         12.5704 
        2.07396         123.295          12.481 
        2.08009         122.651         12.3926 
        2.08622         121.778         12.3051 
        2.09237         121.299         12.2183 
        2.09851         120.624         12.1324 
        2.10464         120.189         12.0474 
        2.11077         119.486         11.9634 
        2.11691           118.9         11.8799 
        2.12305         118.077         11.7973 
        2.12918         117.344         11.7157 
        2.13531         116.802         11.6348 
        2.14145         116.089         11.5545 
         2.1476         115.225         11.4749 
        2.15372         115.021         11.3964 
        2.15985         114.427         11.3186 
        2.16599          113.56         11.2413 
        2.17213         113.031         11.1648 
        2.17827         112.452          11.089 
         2.1844         111.659          11.014 
        2.19054         111.311         10.9397 
        2.19666         110.634         10.8661 
         2.2028         109.914         10.7932 
        2.20893         109.621         10.7209 
        2.21508         108.869         10.6492 
        2.22122          108.29         10.5782 
        2.22736         107.783         10.5079 
        2.23349         107.246         10.4383 
        2.23962         106.647         10.3693 
        2.24577         106.029         10.3009 
         2.2519         105.694         10.2331 
        2.25802         104.724         10.1661 
        2.26417         104.444         10.0995 
        2.27031         103.698         10.0335 
        2.27644          103.25         9.96823 
        2.28257         102.555         9.90355 
        2.28872         102.249         9.83933 
        2.29486         101.544         9.77569 
        2.30099         101.044         9.71274 
        2.30712         100.513         9.65033 
        2.31326         99.9102         9.58836 
         2.3194         99.4216         9.52697 
        2.32553         98.9656         9.46623 
        2.33166         98.4026         9.40604 
         2.3378         98.0288          9.3463 
        2.34394         97.4869         9.28705 
        2.35007         96.8701         9.22841 
        2.35619         96.4861         9.17035 
        2.36233          95.899         9.11265 
        2.36848         95.3503         9.05533 
        2.37462          94.982         8.99862 
        2.38075         94.3006         8.94246 
        2.38689         93.8758         8.88674 
        2.39303         93.2387          8.8315 
        2.39916         93.0021         8.77678 
        2.40529         92.6803         8.72254 
        2.41143         91.9409         8.66872 
        2.41757         91.5182         8.61533 
         2.4237         91.0077          8.5625 
        2.42983         90.4688         8.51011 
        2.43598         89.9651         8.45802 
        2.44211          89.818         8.40646 
        2.44823         89.2373         8.35545 
        2.45437         88.4976         8.30472 
        2.46052          88.036         8.25437 
        2.46665         87.8484         8.20453 
        2.47279         87.2331         8.15512 
        2.47892         86.8723         8.10608 
        2.48507         86.4343          8.0574 
         2.4912         86.0852         8.00922 
