# k  (h/Mpc)    Pcb(k)  (Mpc/h)^3    Pcb_linear(k)  (Mpc/h)^3
     0.00783031         15703.2         15935.1 
       0.013688         20328.1         20150.6 
       0.019231         20623.7         20604.4 
      0.0249154         18667.7         19102.7 
      0.0312784         16309.1         16528.3 
      0.0375637           14046         14077.4 
      0.0433917         12046.7         12306.8 
      0.0492413         10951.5         11068.9 
      0.0555754         9813.37         10184.7 
      0.0619321         9484.16         9529.87 
       0.067871         8611.49         8928.55 
      0.0738098         7940.77         8230.58 
      0.0800417         7052.05         7390.23 
      0.0862327         6335.06         6525.81 
      0.0921407         5734.98         5771.54 
      0.0982031         5102.06         5142.64 
       0.104506         4793.27         4671.21 
       0.110769         4462.75         4363.22 
       0.116806          4231.9         4164.05 
       0.122832         4054.77         3999.03 
       0.129052         3772.21          3810.3 
       0.135211         3564.38         3577.27 
       0.141259         3389.05         3307.56 
       0.147318         3168.87         3022.71 
       0.153489          2887.9          2751.1 
       0.159709         2724.76          2523.1 
       0.165845         2629.31         2353.96 
       0.171974         2493.85         2235.27 
       0.178125         2383.23         2150.38 
       0.184229         2288.49         2079.52 
        0.19034         2170.64          2003.8 
       0.196428         2124.16         1913.25 
       0.202534         2037.96         1806.63 
       0.208729          1941.2         1689.88 
       0.214876         1858.41         1576.78 
       0.220989         1793.07         1477.03 
       0.227147          1718.7         1395.01 
        0.23329            1654          1331.9 
       0.239377         1631.42         1283.59 
       0.245482         1533.24         1242.79 
       0.251667         1526.54         1202.57 
       0.257832         1466.87         1158.74 
       0.263955         1418.41         1109.94 
       0.270079         1369.87         1057.37 
        0.27624         1353.85         1003.98 
       0.282372         1297.67         954.088 
        0.28843         1290.72         910.571 
       0.294538         1227.56         873.515 
       0.300721            1221         842.283 
        0.30691         1174.62         815.358 
       0.313033         1151.99         790.673 
       0.319153         1133.54         765.909 
       0.325316         1096.77         739.777 
        0.33145         1072.49         712.482 
       0.337538         1053.94         684.917 
       0.343633         1031.32         658.014 
       0.349808         997.013         632.558 
       0.355968         990.308         609.715 
       0.362074          981.01         589.604 
       0.368217         950.576         571.577 
       0.374374         915.339         554.936 
       0.380519         917.454         538.989 
       0.386598         891.788          523.33 
       0.392688         888.646         507.431 
        0.39888         863.422         491.184 
       0.405048         852.823          475.21 
       0.411186         841.278         459.872 
       0.417313         823.773         445.489 
       0.423458         809.534         432.128 
       0.429607         799.652         419.766 
       0.435692         782.919         408.393 
       0.441815         776.859         397.545 
       0.447964         760.945         386.971 
       0.454126         754.023          376.56 
       0.460267         735.914         366.322 
       0.466387         727.451         356.255 
        0.47254         722.297         346.375 
       0.478662         715.651         336.927 
       0.484765         694.945         327.967 
       0.490885         690.528         319.445 
       0.497035         676.667         311.327 
       0.503198         672.436         303.599 
       0.509342         665.616         296.203 
       0.515458         661.926         289.052 
       0.521598         645.641         282.027 
       0.527764         634.175         275.133 
       0.533884         632.462         268.467 
           0.54          625.62         261.999 
       0.546137          620.91         255.718 
       0.552299         612.235         249.644 
       0.558452         608.194         243.831 
       0.564573         600.276         238.288 
       0.570708         593.557         232.939 
       0.576825         577.745         227.776 
       0.582926         580.213         222.766 
       0.589034         574.687         217.877 
       0.595184         569.426         213.086 
       0.601379         561.378         208.398 
       0.607522          553.61         203.885 
       0.613639         553.782         199.527 
       0.619772         541.782         195.291 
       0.625918         539.166         191.178 
       0.632068         531.875         187.192 
       0.638161         529.939         183.367 
         0.6443         520.855          179.63 
       0.650464         518.799         175.987 
       0.656582         514.801          172.47 
       0.662703         512.971         169.043 
       0.668861         504.307         165.682 
       0.675024         500.396         162.406 
       0.681124         496.968          159.25 
       0.687237         492.843         156.173 
       0.693381         486.548         153.167 
       0.699536         479.252         150.241 
       0.705665         478.381         147.408 
       0.711789         475.993         144.655 
       0.717957          471.62         141.955 
        0.72409         469.196         139.341 
       0.730186         462.283         136.807 
       0.736317         459.443         134.321 
       0.742472         457.141         131.886 
       0.748622         452.013         129.514 
        0.75476         445.927         127.205 
       0.760888         441.901         124.956 
       0.767043         442.346         122.753 
       0.773185         437.665          120.61 
       0.779291         432.719         118.531 
       0.785407         430.295         116.499 
       0.791564         425.325         114.503 
       0.797719         423.346         112.556 
       0.803834         418.944         110.667 
       0.809972         418.006         108.816 
       0.816124         416.766         107.003 
       0.822261         411.059         105.237 
       0.828378         408.671         103.516 
       0.834502         404.491         101.833 
       0.840667         401.423         100.176 
       0.846816         399.748          98.562 
       0.852925         396.817         96.9936 
       0.859047         395.089         95.4565 
       0.865192         390.266          93.948 
       0.871341         387.118         92.4716 
       0.877463         386.741         91.0339 
       0.883569         383.279         89.6308 
       0.889708         380.453         88.2505 
       0.895864         378.753         86.8961 
       0.902008         375.565         85.5733 
       0.908149         371.583         84.2791 
       0.914301         369.114         83.0098 
       0.920448         367.276         81.7682 
       0.926574         361.924         80.5566 
       0.932687         362.192         79.3723 
       0.938823         358.432         78.2078 
       0.944975          358.46         77.0643 
       0.951105         354.395         75.9479 
       0.957225         352.223         74.8558 
       0.963368         348.091         73.7817 
       0.969511          347.22         72.7289 
       0.975621         344.849         71.7024 
       0.981748         343.414         70.6933 
       0.987916         341.377         69.6975 
        0.99406         335.968         68.7247 
        1.00019         335.032         67.7726 
        1.00632         333.541         66.8396 
        1.01246         330.819         65.9229 
        1.01859         331.339         65.0251 
        1.02471         326.135         64.1452 
        1.03085         324.726         63.2788 
        1.03698         323.582         62.4304 
        1.04314          320.55         61.5941 
        1.04929         317.595         60.7752 
        1.05541          318.59         59.9747 
        1.06154         313.115         59.1867 
        1.06769         312.429         58.4118 
        1.07382         310.157         57.6535 
        1.07993         308.455         56.9106 
        1.08607         307.592         56.1777 
        1.09222         304.535         55.4572 
        1.09836         302.689         54.7503 
        1.10449         299.937         54.0567 
        1.11063         297.158         53.3744 
        1.11677          297.24         52.7043 
         1.1229         295.021         52.0469 
        1.12903          293.14         51.4003 
        1.13518         290.589         50.7642 
        1.14131          289.06         50.1394 
        1.14745         287.997         49.5255 
        1.15359         285.837         48.9218 
        1.15973         283.984         48.3281 
        1.16584         281.933         47.7469 
        1.17197          281.91         47.1746 
        1.17811         278.392           46.61 
        1.18424         276.529         46.0563 
        1.19038         275.844         45.5101 
        1.19652         273.564         44.9731 
        1.20267          272.86         44.4447 
        1.20881         270.762         43.9251 
        1.21495         268.759         43.4146 
        1.22108         267.272         42.9123 
         1.2272         265.675         42.4193 
        1.23334         264.388         41.9329 
        1.23949          262.26          41.453 
        1.24562         261.379         40.9821 
        1.25174         259.507         40.5192 
        1.25789         257.512         40.0621 
        1.26402         255.568         39.6129 
        1.27014         254.152         39.1718 
        1.27628         252.822         38.7361 
        1.28244         252.532         38.3063 
        1.28858         249.914         37.8837 
        1.29471         248.387         37.4684 
        1.30084          246.84         37.0597 
        1.30697         245.567         36.6566 
        1.31312         243.151          36.259 
        1.31925         242.428         35.8685 
        1.32537         241.609         35.4843 
        1.33151         239.308         35.1043 
        1.33765          237.59         34.7302 
        1.34378         236.935         34.3623 
        1.34992         235.532         33.9995 
        1.35606          235.19         33.6412 
         1.3622         232.938         33.2888 
        1.36833          230.97         32.9423 
        1.37445         230.119          32.601 
        1.38059         228.132         32.2634 
        1.38675         227.373         31.9299 
        1.39288         226.067         31.6024 
        1.39901         225.229         31.2798 
        1.40515         223.318         30.9609 
         1.4113         222.262         30.6466 
        1.41742         220.544         30.3379 
        1.42355         219.551         30.0329 
         1.4297         217.677         29.7312 
        1.43585         216.788         29.4338 
        1.44198         215.847         29.1417 
        1.44809          214.55          28.854 
        1.45423         213.413         28.5692 
        1.46036          212.09         28.2888 
        1.46649         210.603         28.0121 
        1.47263         209.426         27.7389 
        1.47877         208.049         27.4695 
        1.48491         206.297         27.2033 
        1.49104         205.845         26.9412 
        1.49718         204.043         26.6823 
        1.50333         203.403         26.4265 
        1.50947         202.106         26.1746 
         1.5156         200.422         25.9263 
        1.52172         199.714         25.6813 
        1.52787         197.995          25.439 
          1.534          197.64         25.2001 
        1.54013         196.054         24.9646 
        1.54627         194.952         24.7317 
        1.55241         193.842         24.5017 
        1.55855         192.494          24.275 
        1.56467         191.333         24.0518 
         1.5708         190.748         23.8308 
        1.57695         189.596         23.6122 
        1.58308         188.497          23.397 
        1.58922         187.052         23.1842 
        1.59535         185.596         22.9743 
         1.6015         185.128         22.7666 
        1.60764          183.93         22.5616 
        1.61376         182.904         22.3598 
        1.61989          182.03         22.1602 
        1.62604         180.711         21.9627 
        1.63218         179.951         21.7676 
        1.63831         178.623         21.5755 
        1.64444         177.865         21.3856 
        1.65059         176.758         21.1975 
        1.65673         175.565         21.0119 
        1.66285          174.55         20.8291 
        1.66898         173.521         20.6483 
        1.67512         173.159         20.4694 
        1.68127         171.383         20.2925 
         1.6874          170.58         20.1181 
        1.69353         169.662         19.9458 
        1.69967         168.382         19.7752 
        1.70581         167.743         19.6066 
        1.71193         166.493         19.4406 
        1.71806         165.938         19.2763 
        1.72421         164.816         19.1135 
        1.73035         164.198         18.9528 
        1.73649         163.181          18.794 
        1.74262         162.127         18.6371 
        1.74876         161.194         18.4819 
        1.75489         160.319         18.3289 
        1.76101         158.965         18.1776 
        1.76715         158.793         18.0278 
        1.77329         157.733         17.8796 
        1.77943          156.92         17.7329 
        1.78557         156.061         17.5882 
        1.79171         155.236          17.445 
        1.79785         154.122         17.3034 
        1.80399         153.254         17.1634 
        1.81012         152.424         17.0252 
        1.81625         151.903         16.8885 
        1.82239         150.787         16.7532 
        1.82853         150.237         16.6194 
        1.83466          149.13         16.4872 
        1.84078         148.509         16.3566 
        1.84692         147.087         16.2272 
        1.85306         146.938         16.0991 
         1.8592         145.881         15.9725 
        1.86533          145.17         15.8474 
        1.87147         144.015         15.7235 
        1.87761         143.277         15.6008 
        1.88375         142.367         15.4797 
        1.88988         141.464         15.3599 
        1.89601         141.071         15.2414 
        1.90215         140.103          15.124 
        1.90829         139.401         15.0079 
        1.91442          138.71          14.893 
        1.92056         137.852         14.7795 
         1.9267         137.206          14.667 
        1.93284         136.187         14.5556 
        1.93897         135.637         14.4456 
        1.94509         134.947          14.337 
        1.95123         134.359         14.2292 
        1.95737         133.606         14.1225 
        1.96349         132.802         14.0171 
        1.96964         131.769         13.9125 
        1.97578         131.063          13.809 
        1.98192         130.621         13.7067 
        1.98805         129.803         13.6054 
        1.99419         129.044         13.5052 
        2.00033         128.356         13.4059 
        2.00647         127.799         13.3077 
         2.0126         126.739         13.2106 
        2.01874         126.193         13.1143 
        2.02488          125.87         13.0189 
        2.03101         124.621         12.9247 
        2.03714         124.271         12.8315 
        2.04328          123.39          12.739 
        2.04941         122.862         12.6476 
        2.05554         122.047         12.5572 
        2.06167         121.674         12.4675 
        2.06781         120.808         12.3787 
        2.07396         120.167         12.2906 
        2.08009         119.567         12.2035 
        2.08622         118.759         12.1174 
        2.09237         118.232          12.032 
        2.09851         117.601         11.9473 
        2.10464         117.147         11.8637 
        2.11077         116.482         11.7809 
        2.11691         115.931         11.6987 
        2.12305         115.061         11.6174 
        2.12918         114.387          11.537 
        2.13531         113.868         11.4573 
        2.14145         113.141         11.3783 
         2.1476         112.337         11.2998 
        2.15372          112.08         11.2226 
        2.15985         111.548         11.1459 
        2.16599           110.7         11.0698 
        2.17213         110.184         10.9945 
        2.17827          109.65         10.9198 
         2.1844          108.83          10.846 
        2.19054         108.503         10.7728 
        2.19666         107.913         10.7004 
         2.2028         107.163         10.6286 
        2.20893          106.86         10.5574 
        2.21508         106.153         10.4868 
        2.22122          105.58         10.4168 
        2.22736          105.08         10.3476 
        2.23349         104.556         10.2791 
        2.23962         103.961         10.2111 
        2.24577         103.397         10.1437 
         2.2519         103.081         10.0771 
        2.25802         102.098         10.0111 
        2.26417         101.812          9.9455 
        2.27031         101.132         9.88045 
        2.27644         100.659         9.81618 
        2.28257         99.9925         9.75249 
        2.28872         99.7226         9.68925 
        2.29486          99.006         9.62658 
        2.30099         98.5358         9.56459 
        2.30712          98.053         9.50313 
        2.31326         97.4288         9.44211 
         2.3194         96.9242         9.38166 
        2.32553         96.5343         9.32184 
        2.33166         95.9748         9.26257 
         2.3378         95.5496         9.20374 
        2.34394         95.0581          9.1454 
        2.35007         94.4878         9.08765 
        2.35619         94.1089         9.03047 
        2.36233         93.4987         8.97365 
        2.36848         92.9608         8.91721 
        2.37462         92.5934         8.86137 
        2.38075         91.9733         8.80606 
        2.38689         91.5573         8.75119 
        2.39303         90.8909         8.69679 
        2.39916         90.6861         8.64291 
        2.40529         90.3379          8.5895 
        2.41143         89.6174          8.5365 
        2.41757         89.2642         8.48392 
         2.4237         88.7702         8.43189 
        2.42983         88.2237          8.3803 
        2.43598         87.7276         8.32901 
        2.44211         87.6057         8.27824 
        2.44823         87.0142           8.228 
        2.45437         86.2649         8.17804 
        2.46052         85.8688         8.12846 
        2.46665         85.6594         8.07938 
        2.47279         85.0437         8.03073 
        2.47892         84.7235         7.98244 
        2.48507         84.2754          7.9345 
         2.4912         83.9451         7.88706 
