# k  (h/Mpc)    Pcb(k)  (Mpc/h)^3    Pcb_linear(k)  (Mpc/h)^3
     0.00783031         1115.61         1122.25 
       0.013688         1477.18         1492.93 
       0.019231         1604.14         1611.84 
      0.0249154         1587.23         1587.98 
      0.0312784         1466.52         1470.24 
      0.0375637          1319.4         1325.02 
      0.0433917         1200.45         1199.94 
      0.0492413         1094.25         1097.57 
      0.0555754         1014.35         1013.37 
      0.0619321         938.588         948.268 
       0.067871         891.144         894.766 
      0.0738098         837.842         840.387 
      0.0800417         777.642          778.32 
      0.0862327         709.874         712.403 
      0.0921407         647.046         649.529 
      0.0982031         590.163         589.977 
       0.104506         534.256         537.453 
       0.110769         493.994         496.363 
       0.116806         467.793         466.313 
       0.122832         441.461         443.083 
       0.129052         422.715         422.758 
       0.135211         404.735         403.119 
       0.141259         381.988         382.359 
       0.147318         357.016         359.631 
       0.153489         334.797         335.343 
       0.159709         312.823         311.346 
       0.165845         288.089         289.788 
       0.171974         274.302         271.445 
       0.178125         259.669          256.53 
       0.184229         245.827         244.749 
        0.19034         238.183         235.034 
       0.196428         229.287         226.327 
       0.202534         217.909         217.622 
       0.208729         210.798         208.238 
       0.214876         202.305         198.282 
       0.220989          189.24         188.051 
       0.227147          182.55         177.947 
        0.23329         173.927         168.598 
       0.239377         166.578         160.413 
       0.245482         158.762         153.395 
       0.251667         151.951          147.37 
       0.257832         148.592         142.149 
       0.263955         142.149         137.383 
       0.270079         137.511         132.711 
        0.27624          131.78         127.914 
       0.282372         127.338          122.99 
        0.28843         124.521         118.057 
       0.294538         119.109         113.171 
       0.300721         113.686         108.483 
        0.30691         110.833         104.182 
       0.313033         106.529          100.36 
       0.319153          104.43         96.9494 
       0.325316          99.845         93.8364 
        0.33145           96.86         90.9502 
       0.337538         94.2744          88.185 
       0.343633         91.7268         85.4478 
       0.349808         88.7898         82.6716 
       0.355968         86.0045         79.9161 
       0.362074         84.1318         77.2372 
       0.368217         81.5762         74.6466 
       0.374374         79.8577         72.1992 
       0.380519         76.5056          69.924 
       0.386598         74.3577         67.8404 
       0.392688         72.3163         65.8946 
        0.39888          70.916         64.0276 
       0.405048          69.259         62.2458 
       0.411186          67.495          60.518 
       0.417313         65.7098         58.8257 
       0.423458          63.837         57.1591 
       0.429607         62.7624         55.5284 
       0.435692         61.5821         53.9671 
       0.441815         59.3315         52.4614 
       0.447964         57.6483         51.0215 
       0.454126         56.6513         49.6543 
       0.460267         56.0848         48.3628 
       0.466387         54.4944         47.1344 
        0.47254         53.6852         45.9472 
       0.478662         52.1138         44.8048 
       0.484765         51.0596         43.6968 
       0.490885         49.6633         42.6121 
       0.497035         48.8376         41.5505 
       0.503198         47.7299         40.5188 
       0.509342         46.5432         39.5244 
       0.515458         45.9668         38.5705 
       0.521598         44.9197         37.6504 
       0.527764          44.345          36.764 
       0.533884         43.2591         35.9175 
           0.54         42.4488         35.1009 
       0.546137          41.231         34.3073 
       0.552299         40.5816         33.5341 
       0.558452         39.8072          32.784 
       0.564573         39.3988         32.0577 
       0.570708         38.4044         31.3496 
       0.576825         37.8579         30.6641 
       0.582926         37.2037         30.0019 
       0.589034         36.5257         29.3603 
       0.595184         36.0631         28.7351 
       0.601379         35.1172         28.1254 
       0.607522         34.6239         27.5394 
       0.613639         34.0005         26.9733 
       0.619772         33.5054          26.422 
       0.625918         32.8295          25.885 
       0.632068         32.5595          25.362 
       0.638161         31.9142         24.8575 
         0.6443         31.4142         24.3626 
       0.650464         30.6502         23.8794 
       0.656582          30.489         23.4131 
       0.662703         30.1451         22.9599 
       0.668861         29.3562         22.5168 
       0.675024         29.0085         22.0856 
       0.681124         28.8456         21.6705 
       0.687237         28.2819         21.2652 
       0.693381         27.6601         20.8685 
       0.699536         27.5725         20.4811 
       0.705665         27.0732         20.1052 
       0.711789         26.5816         19.7392 
       0.717957         26.0711         19.3799 
        0.72409         25.8674         19.0317 
       0.730186         25.7164         18.6943 
       0.736317         25.2092         18.3635 
       0.742472         24.8984         18.0396 
       0.748622         24.5251         17.7239 
        0.75476         23.9363         17.4166 
       0.760888         23.8326         17.1171 
       0.767043         23.4374         16.8236 
       0.773185         23.2007         16.5377 
       0.779291         23.0365         16.2601 
       0.785407         22.6175         15.9886 
       0.791564         22.4396         15.7217 
       0.797719         21.9948         15.4611 
       0.803834         21.8771         15.2081 
       0.809972         21.4839           14.96 
       0.816124         21.2596          14.717 
       0.822261         21.0283         14.4801 
       0.828378         20.7733         14.2491 
       0.834502         20.5852         14.0231 
       0.840667         20.3817         13.8006 
       0.846816         19.9636         13.5837 
       0.852925         19.8632         13.3728 
       0.859047         19.6296         13.1659 
       0.865192         19.3747         12.9629 
       0.871341         19.1111          12.764 
       0.877463         18.9397         12.5703 
       0.883569         18.8145         12.3811 
       0.889708          18.518         12.1949 
       0.895864         18.2991         12.0122 
       0.902008         18.0843         11.8335 
       0.908149         17.8643         11.6587 
       0.914301         17.7741         11.4872 
       0.920448         17.5129         11.3193 
       0.926574          17.421         11.1554 
       0.932687         17.1693         10.9952 
       0.938823         16.9622         10.8375 
       0.944975         16.8191         10.6826 
       0.951105         16.6225         10.5314 
       0.957225         16.5349         10.3834 
       0.963368         16.3192         10.2377 
       0.969511         16.1485         10.0949 
       0.975621          15.989         9.95558 
       0.981748         15.7712         9.81858 
       0.987916         15.6614         9.68333 
        0.99406          15.551         9.55117 
        1.00019         15.4081         9.42176 
        1.00632         15.2682          9.2949 
        1.01246         15.1088         9.17021 
        1.01859         14.9426         9.04804 
        1.02471         14.7619         8.92827 
        1.03085         14.7225         8.81028 
        1.03698         14.5758         8.69469 
        1.04314         14.4225         8.58072 
        1.04929         14.2292         8.46907 
        1.05541         14.1704         8.35988 
        1.06154         14.0456         8.25238 
        1.06769         13.9803         8.14662 
        1.07382          13.742         8.04308 
        1.07993         13.6192         7.94159 
        1.08607         13.5654         7.84145 
        1.09222         13.3968         7.74296 
        1.09836         13.3714         7.64629 
        1.10449         13.1387          7.5514 
        1.11063         13.1053         7.45803 
        1.11677         13.0122         7.36629 
         1.1229         12.8958         7.27627 
        1.12903         12.8122          7.1877 
        1.13518         12.6152         7.10053 
        1.14131         12.5462         7.01488 
        1.14745          12.392         6.93071 
        1.15359         12.3136         6.84791 
        1.15973         12.2051         6.76645 
        1.16584         12.1186         6.68669 
        1.17197         12.0164         6.60811 
        1.17811         11.9113         6.53057 
        1.18424         11.8307         6.45452 
        1.19038         11.7594         6.37947 
        1.19652          11.674         6.30565 
        1.20267         11.5773         6.23301 
        1.20881         11.4702         6.16154 
        1.21495         11.3743         6.09132 
        1.22108         11.3248         6.02222 
         1.2272         11.2122         5.95436 
        1.23334         11.1878          5.8874 
        1.23949         11.0623         5.82132 
        1.24562         10.9758         5.75645 
        1.25174         10.9143         5.69268 
        1.25789          10.773         5.62968 
        1.26402         10.7418         5.56776 
        1.27014         10.6794         5.50693 
        1.27628         10.5521         5.44684 
        1.28244         10.5364         5.38753 
        1.28858         10.4644          5.3292 
        1.29471         10.3233         5.27187 
        1.30084         10.2552         5.21544 
        1.30697         10.2312         5.15977 
        1.31312         10.1323         5.10483 
        1.31925         10.0683         5.05087 
        1.32537          10.011         4.99775 
        1.33151         9.92976         4.94521 
        1.33765          9.8544         4.89347 
        1.34378         9.83627         4.84257 
        1.34992         9.74223         4.79237 
        1.35606         9.67438         4.74278 
         1.3622          9.6046         4.69398 
        1.36833         9.53931         4.64599 
        1.37445         9.46897          4.5987 
        1.38059         9.42511         4.55193 
        1.38675         9.34717         4.50571 
        1.39288         9.28712         4.46032 
        1.39901         9.21629         4.41558 
        1.40515         9.16768         4.37136 
         1.4113         9.09782         4.32776 
        1.41742          9.0539         4.28493 
        1.42355         8.97977         4.24261 
         1.4297         8.94367         4.20074 
        1.43585         8.88801         4.15945 
        1.44198         8.82689         4.11888 
        1.44809         8.78762         4.07893 
        1.45423         8.71709         4.03937 
        1.46036         8.67143         4.00041 
        1.46649          8.6101         3.96196 
        1.47263         8.57229         3.92398 
        1.47877         8.51387         3.88653 
        1.48491         8.47222          3.8495 
        1.49104         8.40398         3.81305 
        1.49718         8.37613         3.77704 
        1.50333         8.31707         3.74144 
        1.50947         8.24004         3.70638 
         1.5156         8.23141         3.67182 
        1.52172         8.18308         3.63771 
        1.52787         8.13252         3.60396 
          1.534          8.0863         3.57069 
        1.54013         8.03824         3.53787 
        1.54627         7.99006         3.50541 
        1.55241         7.92962         3.47336 
        1.55855         7.91387         3.44175 
        1.56467         7.85264         3.41063 
         1.5708         7.81385         3.37981 
        1.57695         7.74667         3.34932 
        1.58308         7.70523         3.31928 
        1.58922          7.6799          3.2896 
        1.59535         7.63593         3.26029 
         1.6015         7.57909          3.2313 
        1.60764         7.55482         3.20267 
        1.61376         7.51984         3.17448 
        1.61989         7.44951         3.14661 
        1.62604         7.42373         3.11901 
        1.63218         7.38719         3.09176 
        1.63831         7.36345          3.0649 
        1.64444         7.30192         3.03836 
        1.65059         7.27294         3.01206 
        1.65673         7.23687         2.98611 
        1.66285         7.20051         2.96054 
        1.66898         7.15223         2.93527 
        1.67512         7.11014         2.91024 
        1.68127         7.07033         2.88548 
         1.6874         7.05632         2.86107 
        1.69353         6.99317         2.83696 
        1.69967         6.97187         2.81307 
        1.70581         6.92651         2.78947 
        1.71193         6.90126         2.76623 
        1.71806         6.87013         2.74321 
        1.72421          6.8255          2.7204 
        1.73035         6.79047         2.69789 
        1.73649         6.76035         2.67563 
        1.74262         6.72419         2.65365 
        1.74876         6.69924          2.6319 
        1.75489          6.6679         2.61044 
        1.76101         6.62152         2.58922 
        1.76715         6.60954         2.56822 
        1.77329         6.57266         2.54742 
        1.77943         6.52692         2.52685 
        1.78557          6.5051         2.50654 
        1.79171          6.4852         2.48644 
        1.79785         6.44063         2.46657 
        1.80399         6.39365         2.44691 
        1.81012         6.37518          2.4275 
        1.81625         6.34819         2.40831 
        1.82239         6.31747          2.3893 
        1.82853         6.28319         2.37051 
        1.83466          6.2419         2.35194 
        1.84078         6.21923         2.33358 
        1.84692         6.19527          2.3154 
        1.85306         6.16681         2.29738 
         1.8592         6.14838         2.27959 
        1.86533         6.11231           2.262 
        1.87147         6.08306         2.24458 
        1.87761         6.06969         2.22733 
        1.88375         6.03226         2.21028 
        1.88988         6.00389         2.19344 
        1.89601          5.9697         2.17676 
        1.90215         5.93156         2.16024 
        1.90829         5.93163          2.1439 
        1.91442         5.88641         2.12773 
        1.92056         5.87537         2.11175 
         1.9267         5.84117         2.09591 
        1.93284         5.83154         2.08023 
        1.93897         5.78059         2.06473 
        1.94509         5.76412         2.04943 
        1.95123         5.73944         2.03425 
        1.95737         5.71728         2.01921 
        1.96349         5.67699         2.00437 
        1.96964         5.65773         1.98963 
        1.97578         5.64148         1.97503 
        1.98192         5.60788         1.96061 
        1.98805         5.59533         1.94633 
        1.99419         5.57139          1.9322 
        2.00033         5.52704          1.9182 
        2.00647          5.5266         1.90434 
         2.0126         5.49501         1.89065 
        2.01874         5.48164         1.87707 
        2.02488         5.44774         1.86361 
        2.03101         5.41752         1.85031 
        2.03714         5.41017         1.83715 
        2.04328         5.38168         1.82411 
        2.04941         5.36166          1.8112 
        2.05554         5.34355         1.79843 
        2.06167         5.31103         1.78577 
        2.06781         5.29709         1.77322 
        2.07396         5.26728         1.76078 
        2.08009           5.256         1.74848 
        2.08622         5.23206         1.73632 
        2.09237         5.22478         1.72424 
        2.09851         5.18256         1.71228 
        2.10464         5.17244         1.70046 
        2.11077         5.16134         1.68876 
        2.11691         5.13397         1.67714 
        2.12305         5.10869         1.66563 
        2.12918         5.09248         1.65426 
        2.13531         5.06418           1.643 
        2.14145         5.05447         1.63182 
         2.1476         5.02143         1.62072 
        2.15372          5.0122         1.60979 
        2.15985         4.99164         1.59895 
        2.16599         4.97486         1.58818 
        2.17213         4.95422         1.57752 
        2.17827          4.9272         1.56695 
         2.1844         4.90554          1.5565 
        2.19054         4.89253         1.54614 
        2.19666         4.87651         1.53589 
         2.2028         4.84406         1.52572 
        2.20893         4.83976         1.51564 
        2.21508         4.82966         1.50564 
        2.22122         4.79249         1.49573 
        2.22736         4.78387         1.48593 
        2.23349         4.75984         1.47621 
        2.23962         4.75031         1.46658 
        2.24577         4.72142         1.45703 
         2.2519         4.70789         1.44758 
        2.25802          4.6908         1.43823 
        2.26417         4.67083         1.42893 
        2.27031         4.65186         1.41971 
        2.27644         4.64199          1.4106 
        2.28257         4.62056         1.40157 
        2.28872         4.60494          1.3926 
        2.29486         4.58224         1.38371 
        2.30099         4.56539         1.37492 
        2.30712          4.5553          1.3662 
        2.31326         4.53586         1.35754 
         2.3194         4.51879         1.34896 
        2.32553         4.50753         1.34047 
        2.33166         4.49386         1.33206 
         2.3378         4.47461         1.32371 
        2.34394         4.45591         1.31543 
        2.35007         4.43309         1.30723 
        2.35619         4.42607         1.29911 
        2.36233         4.40908         1.29104 
        2.36848          4.3977         1.28303 
        2.37462         4.38038          1.2751 
        2.38075         4.36812         1.26724 
        2.38689         4.35222         1.25945 
        2.39303          4.3357         1.25172 
        2.39916          4.3149         1.24406 
        2.40529          4.3036         1.23647 
        2.41143         4.29729         1.22894 
        2.41757         4.28323         1.22147 
         2.4237         4.26213         1.21407 
        2.42983         4.25394         1.20674 
        2.43598          4.2374         1.19945 
        2.44211         4.21643         1.19223 
        2.44823         4.20335         1.18509 
        2.45437         4.18747         1.17798 
        2.46052         4.17603         1.17093 
        2.46665         4.16485         1.16395 
        2.47279         4.13478         1.15703 
        2.47892         4.13431         1.15016 
        2.48507         4.11677         1.14334 
         2.4912         4.11041         1.13659 
