# k  (h/Mpc)    Pcb(k)  (Mpc/h)^3    Pcb_linear(k)  (Mpc/h)^3
     0.00783031         386.736         390.047 
       0.013688         495.476         496.974 
       0.019231         516.244         516.635 
      0.0249154         486.968         489.075 
      0.0312784         432.074         432.423 
      0.0375637          373.68          373.01 
      0.0433917         326.152         326.253 
      0.0492413         291.322         290.853 
      0.0555754         263.728         264.226 
      0.0619321         246.439         245.589 
       0.067871         230.745         231.182 
      0.0738098         215.906         216.431 
      0.0800417         198.036         198.881 
      0.0862327         179.267          179.55 
      0.0921407          160.78         160.803 
      0.0982031         142.912         143.099 
       0.104506         128.381         127.843 
       0.110769         116.942         116.469 
       0.116806         108.763         108.777 
       0.122832         103.684         103.411 
       0.129052         98.9581         99.0909 
       0.135211         94.6821         94.8904 
       0.141259         90.1498         90.0982 
       0.147318         84.7205         84.4198 
       0.153489         78.1415         78.0085 
       0.159709         71.7162         71.4961 
       0.165845         66.2724         65.6338 
       0.171974         61.0393         60.7604 
       0.178125         57.3804              57 
       0.184229         54.7443         54.2684 
        0.19034         52.3523         52.2296 
       0.196428         50.8352         50.5138 
       0.202534         49.3187          48.764 
       0.208729         47.0945         46.7291 
       0.214876         44.6138         44.3924 
       0.220989         42.3807         41.8511 
       0.227147         39.5331         39.2632 
        0.23329          37.168          36.857 
       0.239377          35.201         34.7921 
       0.245482          33.377         33.0993 
       0.251667         32.2428         31.7438 
       0.257832         31.0806         30.6557 
       0.263955           30.15          29.708 
       0.270079         29.2083         28.7745 
        0.27624         28.3399         27.7663 
       0.282372         27.2284         26.6663 
        0.28843         25.9715         25.5081 
       0.294538         24.8113         24.3235 
       0.300721         23.8017         23.1771 
        0.30691          22.637         22.1366 
       0.313033          21.778         21.2436 
       0.319153         20.8424         20.4827 
       0.325316         20.4211         19.8246 
        0.33145         19.7828         19.2351 
       0.337538         19.2116         18.6751 
       0.343633         18.5867         18.1067 
       0.349808         18.0432         17.5092 
       0.355968         17.4293         16.8921 
       0.362074         16.7955         16.2759 
       0.368217         16.2189         15.6729 
       0.374374         15.5925         15.1044 
       0.380519         15.1374         14.5873 
       0.386598         14.7044         14.1264 
       0.392688         14.3202         13.7104 
        0.39888         13.9017          13.322 
       0.405048         13.5494         12.9545 
       0.411186         13.2016         12.5969 
       0.417313         12.7868         12.2397 
       0.423458         12.4558          11.879 
       0.429607         12.0635         11.5199 
       0.435692         11.7085         11.1718 
       0.441815         11.3914         10.8347 
       0.447964         11.1328         10.5159 
       0.454126         10.7605         10.2181 
       0.460267         10.4979         9.94132 
       0.466387         10.1984         9.68314 
        0.47254         9.98794         9.43666 
       0.478662         9.76898          9.1993 
       0.484765         9.49823         8.96726 
       0.490885         9.26624         8.73823 
       0.497035         9.11201          8.5114 
       0.503198         8.85478         8.28841 
       0.509342         8.64098         8.07269 
       0.515458         8.41989         7.86668 
       0.521598         8.23307         7.66958 
       0.527764         8.02016         7.48101 
       0.533884         7.87648         7.30272 
           0.54          7.6915         7.13241 
       0.546137         7.53691         6.96779 
       0.552299         7.37792          6.8071 
       0.558452         7.17524         6.65016 
       0.564573         7.05336         6.49742 
       0.570708          6.9025         6.34809 
       0.576825         6.73015         6.20327 
       0.582926         6.61094         6.06317 
       0.589034         6.42509         5.92749 
       0.595184         6.31131         5.79575 
       0.601379         6.17535         5.66822 
       0.607522         6.07873         5.54648 
       0.613639         5.98525         5.42929 
       0.619772         5.82529         5.31522 
       0.625918         5.73923         5.20381 
       0.632068         5.64389         5.09504 
       0.638161         5.51172         4.99002 
         0.6443         5.39941         4.88702 
       0.650464         5.28248          4.7865 
       0.656582         5.21336         4.68959 
       0.662703         5.11518         4.59544 
       0.668861         5.03226         4.50347 
       0.675024         4.92361         4.41411 
       0.681124         4.82618         4.32827 
       0.687237         4.75809         4.24469 
       0.693381         4.67692         4.16304 
       0.699536         4.55542         4.08342 
       0.705665         4.48954         4.00619 
       0.711789         4.41902         3.93094 
       0.717957         4.33574         3.85698 
        0.72409         4.26355         3.78526 
       0.730186         4.19096         3.71576 
       0.736317         4.14704         3.64764 
       0.742472         4.07447         3.58103 
       0.748622         3.99565         3.51624 
        0.75476         3.91537         3.45328 
       0.760888         3.85727         3.39202 
       0.767043         3.81412         3.33206 
       0.773185         3.73442          3.2737 
       0.779291         3.68696         3.21708 
       0.785407         3.62613         3.16169 
       0.791564         3.57142         3.10724 
       0.797719         3.52048         3.05408 
       0.803834         3.47285         3.00249 
       0.809972         3.42068          2.9519 
       0.816124         3.35737         2.90237 
       0.822261         3.29896         2.85412 
       0.828378         3.25859         2.80713 
       0.834502         3.22296         2.76118 
       0.840667         3.15429         2.71599 
       0.846816         3.10789         2.67195 
       0.852925         3.07933         2.62918 
       0.859047         3.03404         2.58726 
       0.865192         2.99033         2.54614 
       0.871341         2.95007         2.50589 
       0.877463          2.9146         2.46669 
       0.883569         2.86159         2.42844 
       0.889708         2.81899         2.39081 
       0.895864         2.78515         2.35388 
       0.902008         2.73947         2.31782 
       0.908149         2.70788         2.28254 
       0.914301         2.65666         2.24794 
       0.920448          2.6262         2.21409 
       0.926574         2.58845         2.18106 
       0.932687         2.55728         2.14879 
       0.938823         2.53271         2.11705 
       0.944975         2.49583         2.08589 
       0.951105         2.46668         2.05547 
       0.957225         2.44482         2.02572 
       0.963368         2.40867         1.99646 
       0.969511         2.37278         1.96778 
       0.975621         2.33611         1.93982 
       0.981748          2.3161         1.91234 
       0.987916         2.28455         1.88522 
        0.99406         2.24896         1.85873 
        1.00019         2.22923          1.8328 
        1.00632         2.19683          1.8074 
        1.01246          2.1714         1.78244 
        1.01859         2.14782           1.758 
        1.02471         2.11786         1.73405 
        1.03085         2.09798         1.71047 
        1.03698         2.06728         1.68738 
        1.04314         2.04721         1.66462 
        1.04929         2.01872         1.64234 
        1.05541         1.99824         1.62055 
        1.06154         1.97335         1.59911 
        1.06769         1.95142         1.57803 
        1.07382         1.92884          1.5574 
        1.07993         1.89955         1.53718 
        1.08607         1.88935         1.51725 
        1.09222         1.86244         1.49764 
        1.09836         1.84937         1.47842 
        1.10449         1.82683         1.45955 
        1.11063         1.80091         1.44099 
        1.11677         1.77948         1.42277 
         1.1229         1.76137         1.40489 
        1.12903         1.73955         1.38731 
        1.13518         1.72644         1.37001 
        1.14131         1.70212         1.35302 
        1.14745         1.67402         1.33633 
        1.15359         1.66606         1.31992 
        1.15973         1.64049         1.30378 
        1.16584         1.63458         1.28799 
        1.17197         1.61357         1.27243 
        1.17811         1.59754         1.25709 
        1.18424         1.58601         1.24204 
        1.19038         1.56405          1.2272 
        1.19652         1.54565         1.21261 
        1.20267         1.53552         1.19826 
        1.20881         1.51328         1.18414 
        1.21495         1.50333         1.17027 
        1.22108         1.48805         1.15663 
         1.2272          1.4768         1.14324 
        1.23334         1.45758         1.13004 
        1.23949         1.44161         1.11701 
        1.24562         1.43036         1.10422 
        1.25174         1.41526         1.09165 
        1.25789         1.40251         1.07925 
        1.26402         1.38366         1.06705 
        1.27014         1.37096         1.05508 
        1.27628         1.36455         1.04326 
        1.28244         1.34407         1.03159 
        1.28858          1.3333         1.02012 
        1.29471         1.32202         1.00885 
        1.30084         1.30718        0.997764 
        1.30697         1.29608        0.986827 
        1.31312          1.2776        0.976038 
        1.31925         1.27121        0.965445 
        1.32537         1.26015         0.95502 
        1.33151         1.24963        0.944713 
        1.33765         1.23598        0.934564 
        1.34378         1.22105        0.924585 
        1.34992         1.21589        0.914745 
        1.35606         1.20032        0.905028 
         1.3622         1.19209         0.89547 
        1.36833         1.18009        0.886074 
        1.37445          1.1664        0.876818 
        1.38059         1.15684        0.867666 
        1.38675         1.15474        0.858623 
        1.39288         1.13832        0.849746 
        1.39901          1.1287        0.840999 
        1.40515         1.11972        0.832356 
         1.4113         1.10849        0.823839 
        1.41742         1.09877        0.815473 
        1.42355         1.09526        0.807209 
         1.4297         1.07959        0.799034 
        1.43585         1.07165        0.790977 
        1.44198         1.06714        0.783062 
        1.44809         1.05225         0.77527 
        1.45423          1.0445        0.767557 
        1.46036         1.03621        0.759962 
        1.46649         1.02733        0.752468 
        1.47263         1.01792         0.74507 
        1.47877         1.00818        0.737774 
        1.48491         1.00029        0.730565 
        1.49104        0.991267        0.723468 
        1.49718        0.985971        0.716461 
        1.50333        0.976377        0.709535 
        1.50947        0.969869        0.702715 
         1.5156        0.960411        0.695995 
        1.52172        0.952786        0.689363 
        1.52787        0.944184        0.682805 
          1.534        0.938945         0.67634 
        1.54013        0.927783        0.669965 
        1.54627        0.921033        0.663662 
        1.55241        0.913237        0.657438 
        1.55855        0.905825        0.651304 
        1.56467        0.901761        0.645265 
         1.5708        0.891154        0.639286 
        1.57695        0.887173        0.633373 
        1.58308         0.87971         0.62755 
        1.58922        0.872331        0.621796 
        1.59535        0.865783        0.616116 
         1.6015        0.859217          0.6105 
        1.60764        0.853378        0.604956 
        1.61376        0.844354        0.599497 
        1.61989        0.840031        0.594101 
        1.62604        0.832735         0.58876 
        1.63218        0.828577        0.583488 
        1.63831        0.820161        0.578292 
        1.64444        0.813905        0.573159 
        1.65059        0.808742        0.568075 
        1.65673        0.801839        0.563059 
        1.66285        0.795756        0.558118 
        1.66898        0.791996        0.553234 
        1.67512        0.783557          0.5484 
        1.68127        0.777912        0.543619 
         1.6874        0.774653        0.538906 
        1.69353        0.766994        0.534252 
        1.69967        0.761768        0.529642 
        1.70581         0.75676        0.525088 
        1.71193         0.75108        0.520606 
        1.71806        0.745891        0.516166 
        1.72421        0.740354         0.51177 
        1.73035        0.734224        0.507429 
        1.73649        0.730695        0.503141 
        1.74262        0.725278        0.498905 
        1.74876        0.719063        0.494715 
        1.75489        0.713973        0.490582 
        1.76101        0.708368        0.486498 
        1.76715        0.704101        0.482454 
        1.77329        0.699389        0.478452 
        1.77943        0.694012        0.474493 
        1.78557          0.6893        0.470585 
        1.79171        0.685386        0.466721 
        1.79785        0.680264        0.462899 
        1.80399        0.675427        0.459121 
        1.81012        0.671684        0.455391 
        1.81625        0.666165        0.451703 
        1.82239        0.662919        0.448051 
        1.82853        0.655397        0.444441 
        1.83466        0.652709        0.440875 
        1.84078        0.647426        0.437351 
        1.84692        0.644609        0.433861 
        1.85306        0.639939        0.430404 
         1.8592        0.636312        0.426991 
        1.86533        0.632027        0.423616 
        1.87147        0.627494        0.420275 
        1.87761        0.623982        0.416968 
        1.88375        0.617496          0.4137 
        1.88988        0.615402        0.410471 
        1.89601        0.610563        0.407275 
        1.90215        0.607367         0.40411 
        1.90829        0.602526        0.400981 
        1.91442        0.598766        0.397884 
        1.92056        0.595295        0.394823 
         1.9267        0.590869        0.391792 
        1.93284        0.587873         0.38879 
        1.93897        0.584183        0.385825 
        1.94509        0.580398        0.382898 
        1.95123          0.5759        0.379994 
        1.95737        0.573091        0.377118 
        1.96349         0.56877         0.37428 
        1.96964        0.565451        0.371462 
        1.97578        0.561601        0.368672 
        1.98192        0.559899        0.365916 
        1.98805        0.555347        0.363189 
        1.99419        0.551791        0.360489 
        2.00033        0.549265        0.357815 
        2.00647        0.545359        0.355169 
         2.0126        0.541729        0.352555 
        2.01874        0.538906        0.349963 
        2.02488        0.536025        0.347394 
        2.03101        0.531498        0.344856 
        2.03714        0.528102        0.342346 
        2.04328        0.526047        0.339858 
        2.04941        0.522574        0.337397 
        2.05554        0.519251        0.334962 
        2.06167         0.51659        0.332548 
        2.06781        0.511937        0.330157 
        2.07396        0.508911        0.327787 
        2.08009        0.506465        0.325444 
        2.08622        0.503604        0.323126 
        2.09237        0.502153        0.320826 
        2.09851        0.498897        0.318549 
        2.10464        0.495754        0.316297 
        2.11077        0.492303         0.31407 
        2.11691        0.489245         0.31186 
        2.12305        0.486617        0.309671 
        2.12918        0.483808        0.307508 
        2.13531        0.480888        0.305365 
        2.14145         0.47845        0.303238 
         2.1476        0.475445        0.301129 
        2.15372        0.473834        0.299051 
        2.15985        0.469959         0.29699 
        2.16599        0.466799        0.294943 
        2.17213        0.464968        0.292917 
        2.17827        0.463052         0.29091 
         2.1844        0.460519        0.288925 
        2.19054         0.45776        0.286957 
        2.19666        0.454264         0.28501 
         2.2028        0.452479         0.28308 
        2.20893        0.449905        0.281167 
        2.21508        0.447102        0.279269 
        2.22122        0.444103        0.277388 
        2.22736        0.442001        0.275528 
        2.23349        0.440351        0.273686 
        2.23962        0.437864         0.27186 
        2.24577        0.434308        0.270049 
         2.2519        0.433036        0.268257 
        2.25802        0.430088        0.266484 
        2.26417        0.427519        0.264722 
        2.27031        0.425196        0.262975 
        2.27644        0.423597        0.261248 
        2.28257        0.420918        0.259537 
        2.28872        0.418801        0.257838 
        2.29486        0.416167        0.256155 
        2.30099         0.41432         0.25449 
        2.30712        0.412542         0.25284 
        2.31326        0.409656        0.251201 
         2.3194        0.409295        0.249577 
        2.32553        0.406812        0.247971 
        2.33166        0.404438         0.24638 
         2.3378        0.402346          0.2448 
        2.34394        0.398852        0.243234 
        2.35007        0.397357        0.241683 
        2.35619        0.395299        0.240148 
        2.36233         0.39257        0.238623 
        2.36848        0.391475        0.237108 
        2.37462        0.388959        0.235609 
        2.38075        0.387994        0.234125 
        2.38689        0.385239        0.232652 
        2.39303        0.384156        0.231192 
        2.39916        0.381125        0.229747 
        2.40529        0.379475        0.228313 
        2.41143        0.377951        0.226891 
        2.41757        0.375718        0.225481 
         2.4237        0.373859        0.224085 
        2.42983        0.372197        0.222701 
        2.43598        0.370718        0.221325 
        2.44211        0.368887        0.219963 
        2.44823        0.367407        0.218615 
        2.45437        0.364506        0.217275 
        2.46052        0.363794        0.215945 
        2.46665        0.361414        0.214629 
        2.47279        0.359419        0.213324 
        2.47892        0.357606        0.212029 
        2.48507        0.356191        0.210744 
         2.4912        0.354599        0.209472 
