# k  (h/Mpc)    Pcb(k)  (Mpc/h)^3    Pcb_linear(k)  (Mpc/h)^3
     0.00783031          4646.4         4697.35 
       0.013688          6000.1         5981.55 
       0.019231         6221.99         6216.73 
      0.0249154         5815.92         5884.35 
      0.0312784         5176.47         5202.31 
      0.0375637         4492.83         4487.31 
      0.0433917         3892.02         3924.71 
      0.0492413         3491.77         3498.77 
      0.0555754         3131.39         3178.42 
      0.0619321         2967.26         2954.19 
       0.067871         2744.72         2780.86 
      0.0738098          2566.6         2603.41 
      0.0800417         2341.64         2392.29 
      0.0862327         2130.76         2159.75 
      0.0921407         1924.34         1934.24 
      0.0982031         1706.13         1721.28 
       0.104506         1555.88         1537.76 
       0.110769         1418.74         1400.95 
       0.116806         1315.96         1308.42 
       0.122832          1258.2         1243.87 
       0.129052         1188.17         1191.91 
       0.135211         1137.72         1141.38 
       0.141259         1090.54         1083.74 
       0.147318         1028.86         1015.44 
       0.153489         945.806         938.317 
       0.159709         878.889         859.981 
       0.165845         824.376         789.467 
       0.171974         761.665         730.848 
       0.178125         719.785         685.616 
       0.184229         689.186         652.759 
        0.19034          649.02         628.235 
       0.196428         638.615         607.597 
       0.202534         622.089         586.549 
       0.208729          592.89         562.072 
       0.214876         560.843         533.965 
       0.220989         540.394         503.398 
       0.227147         505.932          472.27 
        0.23329         480.879         443.327 
       0.239377         464.273          418.49 
       0.245482         433.742         398.128 
       0.251667         426.958         381.823 
       0.257832         413.146         368.736 
       0.263955         399.874         357.336 
       0.270079         386.954         346.107 
        0.27624          380.85         333.981 
       0.282372         365.634          320.75 
        0.28843         352.259         306.819 
       0.294538         336.535          292.57 
       0.300721         330.852          278.78 
        0.30691         314.851         266.265 
       0.313033         306.622         255.524 
       0.319153         294.095         246.371 
       0.325316         287.502         238.455 
        0.33145         278.446         231.364 
       0.337538         274.478         224.629 
       0.343633         265.671         217.792 
       0.349808         257.697         210.605 
       0.355968         252.782         203.183 
       0.362074         245.605         195.771 
       0.368217         238.859         188.518 
       0.374374         231.303          181.68 
       0.380519         226.572          175.46 
       0.386598         220.765         169.916 
       0.392688         217.567         164.912 
        0.39888         211.946          160.24 
       0.405048           207.4          155.82 
       0.411186         202.863         151.518 
       0.417313         198.285         147.222 
       0.423458         194.239         142.884 
       0.429607         189.502         138.565 
       0.435692         183.658         134.377 
       0.441815         182.304         130.322 
       0.447964         179.176         126.488 
       0.454126         171.516         122.905 
       0.460267         169.572         119.577 
       0.466387         166.987         116.471 
        0.47254         163.882         113.507 
       0.478662         162.058         110.651 
       0.484765         157.632          107.86 
       0.490885         155.038         105.106 
       0.497035         153.063         102.377 
       0.503198          148.96          99.695 
       0.509342         146.351         97.1003 
       0.515458         144.311         94.6223 
       0.521598         142.434         92.2516 
       0.527764          140.22         89.9835 
       0.533884         137.889         87.8389 
           0.54         135.591         85.7904 
       0.546137         134.435         83.8103 
       0.552299         132.336         81.8775 
       0.558452         129.413         79.9898 
       0.564573         127.115         78.1526 
       0.570708           125.6         76.3564 
       0.576825         123.741         74.6145 
       0.582926         121.552         72.9293 
       0.589034         119.379         71.2972 
       0.595184          118.12         69.7127 
       0.601379         116.843         68.1787 
       0.607522         113.999         66.7144 
       0.613639         113.838         65.3048 
       0.619772         111.201         63.9328 
       0.625918         110.256         62.5927 
       0.632068          108.93         61.2844 
       0.638161          107.66         60.0212 
         0.6443         106.205         58.7822 
       0.650464         104.864         57.5732 
       0.656582         103.637         56.4076 
       0.662703           101.7         55.2751 
       0.668861         100.683         54.1688 
       0.675024         99.5154          53.094 
       0.681124         98.2994         52.0614 
       0.687237         96.6167         51.0562 
       0.693381         95.6682          50.074 
       0.699536         94.4302         49.1164 
       0.705665         94.8965         48.1875 
       0.711789         92.2955         47.2823 
       0.717957         91.7825         46.3927 
        0.72409         90.4996           45.53 
       0.730186         88.9992         44.6941 
       0.736317         88.8461         43.8747 
       0.742472         87.7031         43.0735 
       0.748622         86.9873         42.2941 
        0.75476         86.0193         41.5368 
       0.760888         84.8221         40.8001 
       0.767043         84.0173         40.0788 
       0.773185         83.0446         39.3769 
       0.779291         82.5026         38.6958 
       0.785407         81.7854         38.0296 
       0.791564         80.6821         37.3746 
       0.797719         79.5947         36.7352 
       0.803834         79.3213         36.1146 
       0.809972         77.9791         35.5061 
       0.816124         77.3547         34.9104 
       0.822261         76.8282           34.33 
       0.828378         76.1734         33.7648 
       0.834502         75.3728         33.2122 
       0.840667         74.7564         32.6685 
       0.846816         73.8437         32.1388 
       0.852925         73.1717         31.6243 
       0.859047         72.2507         31.1202 
       0.865192         71.9856         30.6255 
       0.871341         71.5342         30.1414 
       0.877463         70.2596           29.67 
       0.883569         69.8561         29.2099 
       0.889708         69.5148         28.7572 
       0.895864         68.8603         28.3131 
       0.902008         68.2775         27.8793 
       0.908149         67.7989         27.4549 
       0.914301         67.2132         27.0387 
       0.920448          66.552         26.6316 
       0.926574         66.0595         26.2344 
       0.932687         65.5968         25.8461 
       0.938823         64.6102         25.4644 
       0.944975         64.4931         25.0896 
       0.951105          63.846         24.7237 
       0.957225         63.0731         24.3658 
       0.963368         62.9575         24.0138 
       0.969511         62.5124         23.6689 
       0.975621         62.0227         23.3326 
       0.981748         61.3338          23.002 
       0.987916         61.0273         22.6758 
        0.99406         60.6644         22.3572 
        1.00019         59.8699         22.0454 
        1.00632         59.6571         21.7398 
        1.01246         59.1144         21.4397 
        1.01859         58.4379         21.1457 
        1.02471         58.5999         20.8576 
        1.03085         57.9204         20.5739 
        1.03698          57.365         20.2962 
        1.04314         56.8208         20.0224 
        1.04929         56.6183         19.7544 
        1.05541         56.0078         19.4924 
        1.06154         55.9326         19.2345 
        1.06769         55.4114         18.9809 
        1.07382         55.0898         18.7327 
        1.07993         54.8938         18.4896 
        1.08607          54.284         18.2498 
        1.09222         54.0899          18.014 
        1.09836         53.6457         17.7827 
        1.10449         53.2807         17.5558 
        1.11063         52.6724         17.3326 
        1.11677         52.4354         17.1134 
         1.1229         52.2663         16.8983 
        1.12903         51.5331         16.6868 
        1.13518         51.5502         16.4788 
        1.14131         51.3598         16.2745 
        1.14745         50.7032         16.0737 
        1.15359         50.6069         15.8763 
        1.15973         50.0375         15.6822 
        1.16584         49.7191         15.4922 
        1.17197         49.5928         15.3051 
        1.17811         49.2065         15.1205 
        1.18424         48.7283         14.9396 
        1.19038         48.7022         14.7611 
        1.19652         48.4015         14.5855 
        1.20267         48.0461         14.4129 
        1.20881         47.6989         14.2431 
        1.21495         47.3675         14.0763 
        1.22108         47.0954         13.9123 
         1.2272         46.6136         13.7512 
        1.23334         46.4961         13.5923 
        1.23949         46.3343         13.4356 
        1.24562         46.0446         13.2818 
        1.25174         45.8086         13.1307 
        1.25789         45.5116         12.9814 
        1.26402         45.1935         12.8348 
        1.27014         44.8212         12.6908 
        1.27628         44.6714         12.5485 
        1.28244          44.341         12.4082 
        1.28858         44.2008         12.2703 
        1.29471         43.9907         12.1347 
        1.30084         43.7303         12.0013 
        1.30697         43.3715         11.8698 
        1.31312         43.0355           11.74 
        1.31925         42.9551         11.6126 
        1.32537         42.7346         11.4872 
        1.33151          42.434         11.3632 
        1.33765         42.3817         11.2411 
        1.34378          42.129         11.1211 
        1.34992         41.5625         11.0028 
        1.35606         41.4257         10.8859 
         1.3622         41.2068         10.7709 
        1.36833         41.0251         10.6579 
        1.37445         40.9951         10.5466 
        1.38059         40.7434         10.4365 
        1.38675         40.3813         10.3277 
        1.39288         40.2652         10.2209 
        1.39901         39.9151         10.1157 
        1.40515         39.7656         10.0118 
         1.4113         39.6623         9.90931 
        1.41742          39.225         9.80869 
        1.42355         39.1884         9.70928 
         1.4297         38.8965         9.61096 
        1.43585         38.8608         9.51404 
        1.44198         38.5247         9.41884 
        1.44809         38.3482         9.32512 
        1.45423         38.2258         9.23234 
        1.46036         38.0664         9.14099 
        1.46649         37.7867         9.05085 
        1.47263         37.6161         8.96186 
        1.47877         37.4797         8.87411 
        1.48491         37.2583          8.7874 
        1.49104         37.1162         8.70204 
        1.49718         36.7717         8.61775 
        1.50333         36.7163         8.53444 
        1.50947         36.5163         8.45241 
         1.5156         36.2998         8.37158 
        1.52172         36.0622         8.29181 
        1.52787         36.0949         8.21292 
          1.534          35.769         8.13516 
        1.54013         35.5451         8.05849 
        1.54627         35.5042         7.98267 
        1.55241         35.2795         7.90781 
        1.55855         35.0807         7.83402 
        1.56467          34.886         7.76139 
         1.5708          34.809         7.68947 
        1.57695         34.4766         7.61835 
        1.58308         34.5526         7.54831 
        1.58922         34.3164         7.47909 
        1.59535          34.078         7.41078 
         1.6015         33.9292         7.34322 
        1.60764         33.8525         7.27654 
        1.61376         33.6295         7.21088 
        1.61989         33.3563         7.14598 
        1.62604         33.3393         7.08173 
        1.63218          33.092         7.01831 
        1.63831          33.012         6.95582 
        1.64444         32.8624         6.89407 
        1.65059         32.6036         6.83293 
        1.65673         32.5116         6.77259 
        1.66285         32.3798         6.71316 
        1.66898         32.2045         6.65442 
        1.67512         32.1146         6.59627 
        1.68127         31.8563         6.53876 
         1.6874         31.7788         6.48208 
        1.69353         31.6603          6.4261 
        1.69967         31.4703         6.37065 
        1.70581         31.3521         6.31588 
        1.71193         31.1753         6.26196 
        1.71806         31.0495         6.20856 
        1.72421         30.8737         6.15567 
        1.73035         30.7788         6.10347 
        1.73649         30.6327         6.05188 
        1.74262         30.4697         6.00093 
        1.74876          30.421         5.95054 
        1.75489          30.203         5.90083 
        1.76101         30.0939          5.8517 
        1.76715         29.9626         5.80306 
        1.77329         29.8744         5.75492 
        1.77943         29.7193         5.70731 
        1.78557         29.5722          5.6603 
        1.79171         29.4502         5.61382 
        1.79785         29.3102         5.56785 
        1.80399         29.1767         5.52241 
        1.81012         29.1186         5.47753 
        1.81625         28.9571         5.43318 
        1.82239         28.8989         5.38925 
        1.82853         28.6301         5.34583 
        1.83466         28.5165         5.30294 
        1.84078          28.331         5.26055 
        1.84692         28.3381         5.21857 
        1.85306           28.15         5.17699 
         1.8592         28.0354         5.13593 
        1.86533         27.8951         5.09535 
        1.87147         27.7953         5.05515 
        1.87761         27.7785         5.01537 
        1.88375         27.5884         4.97607 
        1.88988         27.5342         4.93723 
        1.89601         27.3224         4.89878 
        1.90215         27.2525         4.86072 
        1.90829         27.1718         4.82308 
        1.91442         26.9928         4.78583 
        1.92056         26.9212         4.74902 
         1.9267         26.7893         4.71255 
        1.93284         26.6562         4.67644 
        1.93897          26.584         4.64079 
        1.94509         26.4625         4.60558 
        1.95123         26.3085         4.57065 
        1.95737         26.2221         4.53606 
        1.96349         26.1116         4.50191 
        1.96964         25.9681         4.46802 
        1.97578          25.941         4.43446 
        1.98192         25.7394         4.40132 
        1.98805         25.7068         4.36851 
        1.99419         25.5623         4.33603 
        2.00033         25.4151         4.30387 
        2.00647         25.3333         4.27205 
         2.0126         25.1826          4.2406 
        2.01874         25.1403         4.20942 
        2.02488         25.1088         4.17853 
        2.03101         24.9794           4.148 
        2.03714         24.8271         4.11781 
        2.04328         24.7139         4.08788 
        2.04941         24.6273         4.05828 
        2.05554         24.5662         4.02899 
        2.06167         24.4543         3.99995 
        2.06781          24.365          3.9712 
        2.07396         24.2498         3.94268 
        2.08009         24.1939          3.9145 
        2.08622         24.0716         3.88662 
        2.09237         23.9781         3.85896 
        2.09851         23.8475         3.83157 
        2.10464         23.7921         3.80449 
        2.11077          23.626          3.7777 
        2.11691         23.6294         3.75111 
        2.12305          23.468         3.72478 
        2.12918         23.4078         3.69876 
        2.13531           23.32         3.67299 
        2.14145         23.2155         3.64741 
         2.1476         23.0906         3.62204 
        2.15372         23.0249         3.59704 
        2.15985         22.8957         3.57225 
        2.16599         22.8482         3.54763 
        2.17213         22.7718         3.52326 
        2.17827         22.6335         3.49913 
         2.1844         22.5349         3.47524 
        2.19054         22.4738         3.45157 
        2.19666         22.4005         3.42816 
         2.2028         22.3384         3.40494 
        2.20893         22.1833         3.38193 
        2.21508         22.1308          3.3591 
        2.22122         21.9862         3.33648 
        2.22736         21.9525         3.31411 
        2.23349         21.8597         3.29195 
        2.23962         21.7677         3.26998 
        2.24577         21.6442          3.2482 
         2.2519         21.5968         3.22664 
        2.25802         21.5427         3.20532 
        2.26417         21.4421         3.18413 
        2.27031         21.3675         3.16311 
        2.27644          21.297         3.14234 
        2.28257         21.1957         3.12176 
        2.28872         21.0789         3.10133 
        2.29486         21.0292         3.08108 
        2.30099         20.9311         3.06106 
        2.30712          20.915          3.0412 
        2.31326         20.7966         3.02149 
         2.3194         20.6892         3.00196 
        2.32553         20.6137         2.98264 
        2.33166          20.513          2.9635 
         2.3378          20.437          2.9445 
        2.34394         20.3706         2.92566 
        2.35007         20.2841         2.90701 
        2.35619         20.1788         2.88855 
        2.36233         20.1293          2.8702 
        2.36848          20.054         2.85198 
        2.37462         20.0161         2.83395 
        2.38075         19.9189          2.8161 
        2.38689         19.8734         2.79838 
        2.39303         19.7482         2.78082 
        2.39916         19.6787         2.76343 
        2.40529         19.6005         2.74619 
        2.41143           19.55         2.72909 
        2.41757         19.4755         2.71212 
         2.4237         19.3736         2.69533 
        2.42983         19.3185         2.67868 
        2.43598         19.2445         2.66213 
        2.44211         19.1415         2.64575 
        2.44823         19.0705         2.62954 
        2.45437         19.0299         2.61342 
        2.46052         18.9635         2.59743 
        2.46665         18.9048          2.5816 
        2.47279         18.8127          2.5659 
        2.47892         18.7512         2.55033 
        2.48507         18.6865         2.53487 
         2.4912         18.6097         2.51956 
