# k  (h/Mpc)    P(k)  (Mpc/h)^3    P_linear(k)  (Mpc/h)^3
     0.00783031          4954.7         5019.29 
       0.013688            6330         6313.58 
       0.019231         6503.26          6499.6 
      0.0249154         6020.39         6094.48 
      0.0312784         5306.62         5333.36 
      0.0375637         4566.99         4559.26 
      0.0433917         3931.08         3962.14 
      0.0492413         3512.18         3517.67 
      0.0555754          3143.6         3188.72 
      0.0619321         2976.31         2960.91 
       0.067871          2750.2         2784.09 
      0.0738098         2565.88         2600.74 
      0.0800417         2333.15         2380.97 
      0.0862327         2113.17         2139.31 
      0.0921407         1901.23         1906.85 
      0.0982031          1678.9         1690.01 
       0.104506         1528.14         1506.14 
       0.110769         1392.74         1371.73 
       0.116806         1293.73         1282.69 
       0.122832         1238.49         1221.38 
       0.129052         1170.16          1171.4 
       0.135211         1119.54         1120.98 
       0.141259         1071.12         1061.88 
       0.147318          1007.3         991.384 
       0.153489         923.004         912.305 
       0.159709         855.299         833.123 
       0.165845         800.717         763.179 
       0.171974         739.943         706.311 
       0.178125          699.88         663.487 
       0.184229         670.809         633.043 
        0.19034         632.204         610.414 
       0.196428         622.304         590.808 
       0.202534         605.825         569.882 
       0.208729         576.272         544.838 
       0.214876         543.917         515.923 
       0.220989         522.718         484.767 
       0.227147         488.856         453.574 
        0.23329         464.253         425.186 
       0.239377         448.126         401.414 
       0.245482         418.788         382.389 
       0.251667         412.404         367.403 
       0.257832          399.19          355.37 
       0.263955         386.376         344.614 
       0.270079         373.518         333.592 
        0.27624         367.221         321.375 
       0.282372         352.261         307.905 
        0.28843         338.892         293.807 
       0.294538         323.238         279.602 
       0.300721         317.648         266.121 
        0.30691         302.232          254.16 
       0.313033         294.222         244.086 
       0.319153         282.274          235.63 
       0.325316         276.007         228.301 
        0.33145         267.168         221.636 
       0.337538         263.162         215.131 
       0.343633         254.537         208.378 
       0.349808         246.668         201.196 
       0.355968         241.853         193.775 
       0.362074         234.893         186.441 
       0.368217          228.24         179.357 
       0.374374         220.821         172.804 
       0.380519         216.364         166.926 
       0.386598         210.716         161.744 
       0.392688         207.588         157.082 
        0.39888         202.175         152.682 
       0.405048         197.676         148.464 
       0.411186         193.254         144.295 
       0.417313         188.889         140.072 
       0.423458         184.837         135.808 
       0.429607         180.274         131.572 
       0.435692         174.704         127.494 
       0.441815         173.285         123.599 
       0.447964         170.198         119.957 
       0.454126         162.847         116.571 
       0.460267         160.971         113.444 
       0.466387         158.505          110.52 
        0.47254         155.424         107.702 
       0.478662           153.7         104.961 
       0.484765         149.382         102.269 
       0.490885         146.888         99.5983 
       0.497035         144.918          96.945 
       0.503198         140.986         94.3507 
       0.509342         138.468         91.8613 
       0.515458         136.511         89.4997 
       0.521598         134.612         87.2457 
       0.527764         132.507         85.0984 
       0.533884         130.277         83.0743 
           0.54         128.029         81.1351 
       0.546137         126.865         79.2484 
       0.552299         124.831         77.3945 
       0.558452         122.092         75.5817 
       0.564573         119.893         73.8191 
       0.570708         118.367         72.0964 
       0.576825         116.614         70.4269 
       0.582926         114.476         68.8156 
       0.589034          112.43         67.2614 
       0.595184         111.158         65.7607 
       0.601379         109.899         64.3102 
       0.607522         107.206         62.9228 
       0.613639         107.011         61.5834 
       0.619772         104.538         60.2749 
       0.625918         103.552         58.9956 
       0.632068         102.307         57.7479 
       0.638161         101.083         56.5442 
         0.6443         99.7065         55.3645 
       0.650464         98.4128         54.2136 
       0.656582         97.1998         53.1043 
       0.662703         95.3873         52.0273 
       0.668861         94.3695         50.9766 
       0.675024         93.2536         49.9574 
       0.681124         92.0998         48.9794 
       0.687237         90.4744         48.0272 
       0.693381         89.5659         47.0963 
       0.699536         88.3835         46.1877 
       0.705665          88.782          45.305 
       0.711789         86.3195          44.444 
       0.717957         85.8093         43.5981 
        0.72409         84.5832         42.7784 
       0.730186         83.1777         41.9848 
       0.736317         82.9988         41.2079 
       0.742472         81.9282         40.4494 
       0.748622         81.1998          39.712 
        0.75476          80.281         38.9955 
       0.760888         79.1309         38.2984 
       0.767043         78.3787         37.6159 
       0.773185           77.45         36.9512 
       0.779291         76.9223          36.306 
       0.785407         76.2466         35.6747 
       0.791564         75.1993         35.0541 
       0.797719         74.1332         34.4484 
       0.803834         73.8618         33.8607 
       0.809972         72.5848         33.2847 
       0.816124         72.0098          32.721 
       0.822261         71.4904         32.1721 
       0.828378         70.8846         31.6378 
       0.834502         70.1387         31.1155 
       0.840667         69.5072         30.6018 
       0.846816         68.6243         30.1013 
       0.852925         68.0283         29.6153 
       0.859047         67.1408         29.1392 
       0.865192         66.8349          28.672 
       0.871341         66.4286         28.2147 
       0.877463         65.2347         27.7695 
       0.883569         64.8457          27.335 
       0.889708         64.4953         26.9077 
       0.895864         63.8871         26.4884 
       0.902008         63.3216         26.0789 
       0.908149         62.8545         25.6784 
       0.914301         62.3022         25.2857 
       0.920448         61.6949         24.9016 
       0.926574         61.1928         24.5269 
       0.932687         60.7699         24.1608 
       0.938823         59.8368         23.8008 
       0.944975         59.7028         23.4474 
       0.951105         59.0947         23.1025 
       0.957225          58.366         22.7652 
       0.963368         58.2783         22.4335 
       0.969511          57.837         22.1084 
       0.975621          57.367         21.7916 
       0.981748         56.7223         21.4801 
       0.987916         56.3899         21.1729 
        0.99406         56.0619         20.8728 
        1.00019         55.3361         20.5791 
        1.00632         55.1177         20.2914 
        1.01246         54.6251         20.0088 
        1.01859         53.9573         19.7321 
        1.02471         54.0812          19.461 
        1.03085         53.4628          19.194 
        1.03698         52.9405         18.9326 
        1.04314         52.4381         18.6751 
        1.04929         52.2149         18.4229 
        1.05541         51.6579         18.1764 
        1.06154         51.5792         17.9339 
        1.06769         51.0838         17.6954 
        1.07382          50.785          17.462 
        1.07993         50.5794         17.2335 
        1.08607         50.0094          17.008 
        1.09222         49.8163         16.7864 
        1.09836         49.4099         16.5691 
        1.10449         49.0507         16.3558 
        1.11063         48.4906         16.1461 
        1.11677         48.2574         15.9402 
         1.1229         48.0866         15.7382 
        1.12903         47.4012         15.5395 
        1.13518         47.4361         15.3442 
        1.14131         47.2361         15.1523 
        1.14745         46.6038         14.9638 
        1.15359         46.5289         14.7785 
        1.15973         46.0027         14.5963 
        1.16584          45.699          14.418 
        1.17197         45.5635         14.2424 
        1.17811         45.2051         14.0692 
        1.18424          44.762         13.8994 
        1.19038         44.7154         13.7319 
        1.19652         44.4527         13.5673 
        1.20267         44.1123         13.4054 
        1.20881         43.7731         13.2461 
        1.21495         43.4648         13.0897 
        1.22108         43.2138         12.9359 
         1.2272         42.7559         12.7848 
        1.23334         42.6464         12.6359 
        1.23949         42.5153          12.489 
        1.24562         42.2038         12.3448 
        1.25174         42.0009         12.2032 
        1.25789         41.7245         12.0633 
        1.26402         41.4235         11.9259 
        1.27014         41.0584          11.791 
        1.27628         40.9242         11.6577 
        1.28244         40.6104         11.5263 
        1.28858         40.4736         11.3971 
        1.29471         40.3035         11.2701 
        1.30084         40.0457         11.1452 
        1.30697         39.7095          11.022 
        1.31312         39.3972         10.9005 
        1.31925         39.3036         10.7812 
        1.32537         39.1044         10.6639 
        1.33151         38.8118         10.5478 
        1.33765         38.7614         10.4336 
        1.34378         38.5214         10.3212 
        1.34992         38.0234         10.2105 
        1.35606         37.8811         10.1011 
         1.3622         37.6784          9.9936 
        1.36833         37.4925         9.88787 
        1.37445         37.4676         9.78373 
        1.38059         37.2251         9.68078 
        1.38675         36.8816         9.57907 
        1.39288         36.7863         9.47922 
        1.39901         36.4585         9.38085 
        1.40515         36.3174         9.28366 
         1.4113         36.2086         9.18788 
        1.41742         35.8201         9.09382 
        1.42355         35.7648         9.00091 
         1.4297         35.5065         8.90902 
        1.43585         35.4617         8.81845 
        1.44198         35.1409         8.72949 
        1.44809          34.988         8.64193 
        1.45423         34.8663         8.55524 
        1.46036         34.7186         8.46991 
        1.46649         34.4538         8.38571 
        1.47263         34.2966         8.30259 
        1.47877         34.1721         8.22063 
        1.48491         33.9769         8.13965 
        1.49104         33.8251         8.05994 
        1.49718         33.5089         7.98123 
        1.50333          33.457         7.90345 
        1.50947         33.2804         7.82687 
         1.5156         33.0732         7.75141 
        1.52172          32.848         7.67695 
        1.52787         32.8816         7.60332 
          1.534         32.5719         7.53075 
        1.54013         32.3662          7.4592 
        1.54627         32.3201         7.38845 
        1.55241         32.1076          7.3186 
        1.55855         31.9316         7.24977 
        1.56467         31.7361           7.182 
         1.5708         31.6791         7.11492 
        1.57695         31.3686         7.04859 
        1.58308         31.4279         6.98326 
        1.58922         31.2181         6.91871 
        1.59535         31.0019         6.85501 
         1.6015         30.8529         6.79202 
        1.60764         30.7773         6.72985 
        1.61376         30.5639         6.66864 
        1.61989         30.3234         6.60813 
        1.62604         30.3065         6.54824 
        1.63218         30.0879         6.48914 
        1.63831          30.002          6.4309 
        1.64444         29.8604         6.37335 
        1.65059         29.6275         6.31637 
        1.65673         29.5334         6.26016 
        1.66285         29.4088         6.20478 
        1.66898         29.2594         6.15006 
        1.67512         29.1759         6.09589 
        1.68127         28.9357         6.04232 
         1.6874         28.8521         5.98952 
        1.69353         28.7444         5.93739 
        1.69967         28.5619         5.88574 
        1.70581          28.457         5.83474 
        1.71193         28.3091         5.78454 
        1.71806          28.176         5.73481 
        1.72421         28.0134         5.68558 
        1.73035         27.9111         5.63698 
        1.73649         27.7984         5.58895 
        1.74262         27.6413         5.54152 
        1.74876         27.6026         5.49462 
        1.75489          27.403         5.44835 
        1.76101         27.2939         5.40263 
        1.76715         27.1757         5.35737 
        1.77329         27.0896         5.31257 
        1.77943         26.9444         5.26827 
        1.78557         26.8114         5.22454 
        1.79171         26.7028         5.18129 
        1.79785         26.5597         5.13853 
        1.80399         26.4397         5.09626 
        1.81012         26.3925         5.05453 
        1.81625          26.244         5.01327 
        1.82239         26.1927         4.97242 
        1.82853         25.9472         4.93205 
        1.83466         25.8375         4.89216 
        1.84078         25.6694         4.85275 
        1.84692         25.6596         4.81372 
        1.85306          25.499         4.77506 
         1.8592         25.3837         4.73689 
        1.86533         25.2614         4.69917 
        1.87147         25.1638          4.6618 
        1.87761         25.1455         4.62483 
        1.88375         24.9839          4.5883 
        1.88988         24.9143         4.55221 
        1.89601         24.7214         4.51649 
        1.90215         24.6707         4.48112 
        1.90829         24.5989         4.44614 
        1.91442          24.432         4.41154 
        1.92056         24.3633         4.37734 
         1.9267         24.2371         4.34346 
        1.93284         24.1123         4.30993 
        1.93897         24.0515         4.27681 
        1.94509         23.9393         4.24411 
        1.95123         23.7919         4.21167 
        1.95737         23.7202         4.17954 
        1.96349         23.6156         4.14783 
        1.96964         23.4911         4.11636 
        1.97578         23.4572         4.08521 
        1.98192          23.276         4.05444 
        1.98805         23.2444         4.02398 
        1.99419         23.1158         3.99383 
        2.00033         22.9762         3.96398 
        2.00647         22.8996         3.93444 
         2.0126         22.7721         3.90525 
        2.01874         22.7177         3.87631 
        2.02488         22.6958         3.84764 
        2.03101         22.5629         3.81931 
        2.03714         22.4392         3.79129 
        2.04328         22.3351         3.76353 
        2.04941           22.25         3.73606 
        2.05554         22.1966         3.70889 
        2.06167         22.1005         3.68195 
        2.06781         22.0083         3.65528 
        2.07396         21.9146         3.62883 
        2.08009          21.853         3.60269 
        2.08622         21.7307         3.57683 
        2.09237         21.6493         3.55118 
        2.09851         21.5386         3.52578 
        2.10464          21.488         3.50066 
        2.11077         21.3281         3.47582 
        2.11691         21.3287         3.45117 
        2.12305         21.1909         3.42676 
        2.12918         21.1333         3.40264 
        2.13531         21.0496         3.37875 
        2.14145         20.9611         3.35503 
         2.1476         20.8456         3.33152 
        2.15372         20.7817         3.30834 
        2.15985         20.6641         3.28537 
        2.16599         20.6172         3.26254 
        2.17213         20.5518         3.23996 
        2.17827         20.4248          3.2176 
         2.1844         20.3317         3.19547 
        2.19054         20.2709         3.17354 
        2.19666         20.2133         3.15184 
         2.2028         20.1543         3.13033 
        2.20893         20.0153         3.10901 
        2.21508          19.956         3.08786 
        2.22122         19.8292         3.06691 
        2.22736          19.803         3.04619 
        2.23349         19.7095         3.02567 
        2.23962         19.6287         3.00532 
        2.24577           19.52         2.98515 
         2.2519         19.4827         2.96519 
        2.25802         19.4302         2.94544 
        2.26417         19.3408         2.92582 
        2.27031         19.2624         2.90635 
        2.27644         19.1951         2.88713 
        2.28257         19.1022         2.86807 
        2.28872         18.9997         2.84915 
        2.29486         18.9503         2.83041 
        2.30099         18.8622         2.81188 
        2.30712         18.8522          2.7935 
        2.31326         18.7454         2.77525 
         2.3194         18.6541         2.75718 
        2.32553         18.5816          2.7393 
        2.33166         18.4821         2.72158 
         2.3378         18.4157           2.704 
        2.34394          18.363         2.68657 
        2.35007         18.2833         2.66931 
        2.35619         18.1718         2.65223 
        2.36233         18.1407         2.63525 
        2.36848         18.0648         2.61839 
        2.37462         18.0286         2.60172 
        2.38075         17.9397          2.5852 
        2.38689         17.9021         2.56882 
        2.39303          17.791         2.55257 
        2.39916         17.7314         2.53649 
        2.40529         17.6539         2.52054 
        2.41143         17.6096         2.50473 
        2.41757          17.537         2.48904 
         2.4237          17.451         2.47351 
        2.42983         17.4029         2.45811 
        2.43598         17.3322         2.44281 
        2.44211         17.2443         2.42766 
        2.44823         17.1733         2.41268 
        2.45437         17.1393         2.39778 
        2.46052          17.073         2.38299 
        2.46665         17.0221         2.36836 
        2.47279          16.938         2.35385 
        2.47892          16.886         2.33945 
        2.48507         16.8229         2.32516 
         2.4912         16.7555         2.31102 
