# k  (h/Mpc)    Pcb(k)  (Mpc/h)^3    Pcb_linear(k)  (Mpc/h)^3
     0.00783031         2074.82         2088.03 
       0.013688         2632.84          2666.1 
       0.019231         2773.47         2789.75 
      0.0249154         2678.14         2676.73 
      0.0312784         2412.99         2419.64 
      0.0375637         2129.54          2141.1 
      0.0433917         1914.93         1914.35 
      0.0492413         1727.19         1733.91 
      0.0555754         1588.34          1586.6 
      0.0619321         1452.08         1471.25 
       0.067871         1368.12         1375.07 
      0.0738098         1273.86         1277.94 
      0.0800417         1169.75         1170.22 
      0.0862327         1056.48         1060.27 
      0.0921407         956.427         959.484 
      0.0982031         869.628         867.406 
       0.104506         784.319         788.601 
       0.110769         725.527         728.018 
       0.116806         687.999         683.463 
       0.122832         646.752          647.77 
       0.129052         616.529         614.829 
       0.135211         587.227         581.944 
       0.141259         549.284         547.462 
       0.147318         509.027         511.017 
       0.153489         475.488         473.803 
       0.159709         444.557         438.661 
       0.165845         408.331         408.262 
       0.171974         391.226         383.014 
       0.178125         371.157         362.537 
       0.184229         350.419         345.906 
        0.19034         339.538         331.416 
       0.196428         325.926         317.695 
       0.202534         307.139         303.661 
       0.208729         296.753         288.785 
       0.214876         283.921         273.626 
       0.220989         264.553         258.768 
       0.227147         255.935          244.71 
        0.23329         244.473         232.108 
       0.239377         235.297         221.223 
       0.245482         224.088         211.802 
       0.251667          214.43         203.436 
       0.257832         210.249         195.828 
       0.263955         199.821         188.591 
       0.270079         192.656         181.396 
        0.27624         184.141         174.114 
       0.282372         177.876          166.89 
        0.28843         174.605         159.929 
       0.294538         166.729         153.271 
       0.300721           159.3         147.034 
        0.30691         155.909         141.353 
       0.313033         149.704          136.25 
       0.319153          146.89         131.574 
       0.325316         140.752         127.164 
        0.33145         136.358         122.964 
       0.337538         132.331         118.897 
       0.343633         128.513         114.903 
       0.349808         124.336          110.94 
       0.355968         120.618          107.11 
       0.362074         118.173         103.479 
       0.368217         114.863         100.025 
       0.374374         112.351         96.7785 
       0.380519         107.578         93.7419 
       0.386598         104.793         90.9155 
       0.392688         101.865         88.2254 
        0.39888         99.9625         85.6017 
       0.405048         97.6488         83.0771 
       0.411186         95.3212          80.637 
       0.417313         92.7455         78.2734 
       0.423458         90.2403         75.9813 
       0.429607         88.6929         73.7741 
       0.435692         87.1541         71.6834 
       0.441815         84.0359         69.6761 
       0.447964         81.6263         67.7531 
       0.454126         80.1806         65.9132 
       0.460267         79.4914         64.1567 
       0.466387         77.3687         62.4717 
        0.47254         76.3362         60.8349 
       0.478662         73.8722         59.2595 
       0.484765         72.5033         57.7385 
       0.490885          70.553         56.2622 
       0.497035         69.7354         54.8291 
       0.503198         68.0478         53.4454 
       0.509342         66.3485         52.1171 
       0.515458         65.5806         50.8438 
       0.521598         64.0331         49.6123 
       0.527764         63.2402           48.42 
       0.533884          62.099         47.2768 
           0.54         60.7669         46.1711 
       0.546137         59.0501          45.096 
       0.552299         58.1353         44.0499 
       0.558452         57.0074         43.0382 
       0.564573           56.62         42.0628 
       0.570708         55.0168         41.1158 
       0.576825         54.3962         40.2016 
       0.582926          53.583          39.319 
       0.589034         52.5902         38.4633 
       0.595184         51.9056         37.6286 
       0.601379         50.5417         36.8135 
       0.607522         49.8529         36.0293 
       0.613639          49.175         35.2712 
       0.619772         48.3448         34.5331 
       0.625918         47.4637         33.8148 
       0.632068         47.0828         33.1167 
       0.638161         46.1416         32.4446 
         0.6443         45.5445         31.7865 
       0.650464         44.4748         31.1447 
       0.656582         44.2368         30.5256 
       0.662703         43.7506         29.9236 
       0.668861         42.6467         29.3348 
       0.675024         42.2666         28.7617 
       0.681124          41.896         28.2099 
       0.687237         41.0766         27.6715 
       0.693381         40.3866         27.1447 
       0.699536         40.1961         26.6309 
       0.705665         39.4746         26.1326 
       0.711789         38.8268         25.6478 
       0.717957         38.1339         25.1721 
        0.72409         37.8037         24.7114 
       0.730186         37.6301         24.2652 
       0.736317         36.9156         23.8278 
       0.742472         36.4731         23.3997 
       0.748622         35.9201         22.9826 
        0.75476         35.1251         22.5768 
       0.760888         35.0476         22.1814 
       0.767043         34.4775         21.7941 
       0.773185         34.1731         21.4169 
       0.779291         33.7956          21.051 
       0.785407         33.2515         20.6932 
       0.791564         33.1236         20.3415 
       0.797719         32.4648         19.9984 
       0.803834         32.2938         19.6654 
       0.809972         31.7426          19.339 
       0.816124         31.4264         19.0193 
       0.822261         31.1038         18.7078 
       0.828378         30.8167         18.4043 
       0.834502         30.5205         18.1074 
       0.840667         30.2138         17.8152 
       0.846816         29.5886         17.5303 
       0.852925         29.5386         17.2536 
       0.859047         29.2238         16.9822 
       0.865192         28.8247         16.7159 
       0.871341         28.4806         16.4552 
       0.877463         28.2217         16.2013 
       0.883569         28.0843         15.9535 
       0.889708         27.6697         15.7096 
       0.895864          27.337         15.4702 
       0.902008         27.0306         15.2364 
       0.908149         26.7586         15.0076 
       0.914301         26.6313         14.7832 
       0.920448         26.2547         14.5636 
       0.926574         26.0245         14.3493 
       0.932687         25.7459         14.1398 
       0.938823         25.4453         13.9338 
       0.944975         25.2478         13.7314 
       0.951105         25.0113         13.5339 
       0.957225         24.8754         13.3406 
       0.963368          24.508         13.1504 
       0.969511         24.2943          12.964 
       0.975621         24.0863         12.7823 
       0.981748         23.8072         12.6036 
       0.987916         23.6682         12.4273 
        0.99406         23.4043          12.255 
        1.00019         23.2418         12.0863 
        1.00632         23.0502         11.9211 
        1.01246         22.8647         11.7587 
        1.01859         22.5953         11.5996 
        1.02471         22.3898         11.4437 
        1.03085         22.3103         11.2902 
        1.03698         22.1101         11.1398 
        1.04314          21.858         10.9916 
        1.04929         21.6202         10.8464 
        1.05541         21.5497         10.7045 
        1.06154         21.3861         10.5648 
        1.06769         21.1797         10.4274 
        1.07382         20.9125         10.2929 
        1.07993         20.7502         10.1611 
        1.08607         20.6632         10.0311 
        1.09222         20.4366         9.90326 
        1.09836         20.3234         9.77783 
        1.10449         20.1228         9.65473 
        1.11063         20.0215         9.53363 
        1.11677         19.9222         9.41467 
         1.1229         19.7232         9.29797 
        1.12903         19.5863         9.18316 
        1.13518         19.3643         9.07021 
        1.14131         19.2794         8.95923 
        1.14745         19.0229         8.85019 
        1.15359         18.8861         8.74295 
        1.15973         18.7412         8.63746 
        1.16584         18.6072          8.5342 
        1.17197         18.4498         8.43249 
        1.17811         18.3265         8.33214 
        1.18424         18.2111         8.23372 
        1.19038         18.1197         8.13663 
        1.19652         17.9507         8.04115 
        1.20267         17.8442         7.94722 
        1.20881         17.6648         7.85482 
        1.21495         17.5413         7.76405 
        1.22108         17.5062         7.67474 
         1.2272         17.3565         7.58705 
        1.23334         17.2532         7.50055 
        1.23949         17.1097         7.41521 
        1.24562         16.9598         7.33144 
        1.25174         16.8853          7.2491 
        1.25789         16.7292         7.16779 
        1.26402         16.6737         7.08788 
        1.27014         16.5834          7.0094 
        1.27628         16.3807         6.93188 
        1.28244         16.3835         6.85539 
        1.28858          16.214         6.78018 
        1.29471         16.0229         6.70627 
        1.30084         15.9425         6.63353 
        1.30697         15.9319         6.56178 
        1.31312         15.7616         6.49099 
        1.31925         15.6892         6.42148 
        1.32537         15.5821         6.35306 
        1.33151          15.481          6.2854 
        1.33765         15.3852         6.21878 
        1.34378         15.3384         6.15325 
        1.34992         15.2039         6.08864 
        1.35606         15.0706         6.02482 
         1.3622         14.9674         5.96203 
        1.36833         14.9309          5.9003 
        1.37445         14.8494         5.83948 
        1.38059         14.7612         5.77933 
        1.38675         14.6555         5.71989 
        1.39288         14.5224         5.66154 
        1.39901         14.4723         5.60403 
        1.40515         14.3725         5.54719 
         1.4113         14.2741         5.49117 
        1.41742         14.2241         5.43614 
        1.42355         14.0907         5.38176 
         1.4297         14.0426         5.32797 
        1.43585          13.973         5.27494 
        1.44198         13.9048         5.22284 
        1.44809         13.8136         5.17155 
        1.45423          13.709         5.12076 
        1.46036         13.6455         5.07075 
        1.46649          13.559         5.02139 
        1.47263         13.5109         4.97266 
        1.47877         13.4214          4.9246 
        1.48491         13.3536          4.8771 
        1.49104         13.2548         4.83034 
        1.49718         13.2129         4.78415 
        1.50333         13.1322         4.73851 
        1.50947          13.052         4.69355 
         1.5156         13.0038         4.64925 
        1.52172         12.9252         4.60553 
        1.52787          12.858         4.56228 
          1.534         12.7968         4.51965 
        1.54013         12.7303         4.47761 
        1.54627         12.6456         4.43603 
        1.55241          12.552         4.39498 
        1.55855         12.5395         4.35451 
        1.56467         12.4556         4.31466 
         1.5708         12.4107          4.2752 
        1.57695         12.3154         4.23618 
        1.58308         12.2395         4.19774 
        1.58922         12.1991         4.15976 
        1.59535         12.1223         4.12226 
         1.6015          12.027         4.08518 
        1.60764         12.0007         4.04857 
        1.61376         11.9625         4.01251 
        1.61989         11.8582         3.97687 
        1.62604         11.8351         3.94158 
        1.63218         11.7809         3.90675 
        1.63831         11.7007         3.87241 
        1.64444         11.6184         3.83848 
        1.65059         11.5641         3.80488 
        1.65673         11.5366         3.77172 
        1.66285         11.4745         3.73905 
        1.66898         11.4275         3.70675 
        1.67512         11.3601         3.67478 
        1.68127         11.2734         3.64316 
         1.6874         11.2544         3.61198 
        1.69353         11.1821         3.58118 
        1.69967         11.1374         3.55068 
        1.70581         11.0733         3.52055 
        1.71193         11.0464         3.49088 
        1.71806         10.9968         3.46149 
        1.72421         10.9159         3.43238 
        1.73035          10.876         3.40365 
        1.73649         10.8404         3.37525 
        1.74262         10.7339          3.3472 
        1.74876         10.7468         3.31946 
        1.75489           10.68         3.29208 
        1.76101         10.6075         3.26503 
        1.76715         10.5877         3.23824 
        1.77329         10.5403         3.21172 
        1.77943         10.4591          3.1855 
        1.78557         10.4587          3.1596 
        1.79171         10.3976         3.13399 
        1.79785         10.3636         3.10866 
        1.80399         10.2699         3.08362 
        1.81012         10.2558         3.05889 
        1.81625         10.1795         3.03444 
        1.82239         10.1447         3.01022 
        1.82853         10.0904         2.98629 
        1.83466         10.0288         2.96263 
        1.84078         10.0163         2.93926 
        1.84692         9.97688         2.91611 
        1.85306         9.93486         2.89318 
         1.8592         9.89652         2.87053 
        1.86533         9.85656         2.84814 
        1.87147         9.79527         2.82596 
        1.87761         9.77102         2.80401 
        1.88375         9.71593         2.78232 
        1.88988         9.66405         2.76089 
        1.89601         9.64939         2.73967 
        1.90215         9.57723         2.71865 
        1.90829         9.55296         2.69787 
        1.91442         9.50139          2.6773 
        1.92056         9.49776         2.65697 
         1.9267         9.42553         2.63683 
        1.93284         9.41925         2.61689 
        1.93897         9.35562         2.59719 
        1.94509         9.30258         2.57774 
        1.95123          9.2913         2.55844 
        1.95737         9.25383         2.53932 
        1.96349         9.17759         2.52045 
        1.96964         9.15662         2.50172 
        1.97578         9.12362         2.48317 
        1.98192         9.07723         2.46485 
        1.98805         9.04999         2.44671 
        1.99419         9.02414         2.42876 
        2.00033         8.97439         2.41097 
        2.00647         8.95239         2.39337 
         2.0126         8.91382         2.37598 
        2.01874         8.86229         2.35873 
        2.02488         8.83711         2.34164 
        2.03101         8.78873         2.32476 
        2.03714         8.74757         2.30805 
        2.04328         8.72028         2.29149 
        2.04941         8.67512         2.27511 
        2.05554         8.66465         2.25891 
        2.06167         8.62628         2.24283 
        2.06781         8.58219         2.22692 
        2.07396         8.55608         2.21113 
        2.08009         8.51332         2.19553 
        2.08622         8.50096          2.1801 
        2.09237         8.47409         2.16478 
        2.09851         8.40893         2.14961 
        2.10464         8.39749         2.13461 
        2.11077         8.35132         2.11978 
        2.11691         8.34907         2.10505 
        2.12305         8.29246         2.09046 
        2.12918         8.26331         2.07605 
        2.13531         8.23445         2.06177 
        2.14145          8.2069         2.04759 
         2.1476         8.17663         2.03353 
        2.15372         8.13724         2.01968 
        2.15985         8.11673         2.00594 
        2.16599         8.08744         1.99229 
        2.17213         8.07705         1.97878 
        2.17827         8.02222          1.9654 
         2.1844         8.00026         1.95216 
        2.19054         7.97395         1.93903 
        2.19666         7.94026         1.92605 
         2.2028         7.90222         1.91317 
        2.20893         7.88603          1.9004 
        2.21508         7.85913         1.88774 
        2.22122         7.80163         1.87519 
        2.22736         7.79054         1.86278 
        2.23349         7.76262         1.85048 
        2.23962         7.74462          1.8383 
        2.24577          7.7036          1.8262 
         2.2519         7.69605         1.81424 
        2.25802         7.62797          1.8024 
        2.26417         7.62541         1.79064 
        2.27031         7.59047         1.77897 
        2.27644         7.56331         1.76744 
        2.28257         7.53134         1.75601 
        2.28872         7.52145         1.74466 
        2.29486         7.49074         1.73342 
        2.30099         7.46449          1.7223 
        2.30712         7.43286         1.71127 
        2.31326         7.40387         1.70032 
         2.3194         7.37748         1.68947 
        2.32553         7.34385         1.67873 
        2.33166          7.3244          1.6681 
         2.3378          7.3044         1.65754 
        2.34394         7.28077         1.64707 
        2.35007         7.24132         1.63671 
        2.35619         7.23432         1.62644 
        2.36233         7.19127         1.61624 
        2.36848         7.17711         1.60611 
        2.37462         7.15188         1.59609 
        2.38075          7.1364         1.58616 
        2.38689         7.11113         1.57631 
        2.39303         7.07109         1.56655 
        2.39916         7.05781         1.55688 
        2.40529         7.02696         1.54729 
        2.41143         7.00943         1.53777 
        2.41757         6.98687         1.52833 
         2.4237         6.95637         1.51899 
        2.42983         6.94611         1.50973 
        2.43598         6.92403         1.50052 
        2.44211         6.90218          1.4914 
        2.44823         6.85918         1.48238 
        2.45437         6.84525         1.47341 
        2.46052         6.82629         1.46451 
        2.46665         6.80914          1.4557 
        2.47279         6.77706         1.44696 
        2.47892         6.74766         1.43829 
        2.48507         6.73589         1.42968 
         2.4912         6.71055         1.42116 
