# k  (h/Mpc)    P(k)  (Mpc/h)^3    P_linear(k)  (Mpc/h)^3
     0.00783031         7419.47         7483.35 
       0.013688          8587.9         8763.93 
       0.019231          8323.3         8410.01 
      0.0249154         7365.29         7337.31 
      0.0312784         5965.83         5978.34 
      0.0375637         4838.71         4871.31 
      0.0433917         4169.25         4160.39 
      0.0492413         3697.87         3710.19 
      0.0555754         3417.26         3406.91 
      0.0619321         3108.31         3167.79 
       0.067871         2900.74         2920.53 
      0.0738098         2620.75          2623.2 
      0.0800417         2293.21         2279.71 
      0.0862327          1964.4         1954.77 
      0.0921407         1717.68         1699.25 
      0.0982031         1545.03         1510.07 
       0.104506         1397.57         1385.92 
       0.110769         1326.27         1312.55 
       0.116806         1286.83          1260.7 
       0.122832         1214.28         1203.32 
       0.129052         1139.71         1124.57 
       0.135211         1061.09         1027.74 
       0.141259         953.448         925.787 
       0.147318         855.122         831.012 
       0.153489         785.631         752.818 
       0.159709         741.021         696.593 
       0.165845         686.693         660.374 
       0.171974          676.84          636.02 
       0.178125         653.146         614.868 
       0.184229         613.971          590.29 
        0.19034          592.29          558.99 
       0.196428          560.99         522.152 
       0.202534         513.146         483.362 
       0.208729         492.542         446.729 
       0.214876         465.846         416.417 
       0.220989         433.814         393.361 
       0.227147         423.967         376.334 
        0.23329         409.214         363.233 
       0.239377         401.359         351.411 
       0.245482         381.621         338.576 
       0.251667         364.421         323.602 
       0.257832         356.875         306.984 
       0.263955         333.987         289.962 
       0.270079         318.372         273.852 
        0.27624         303.507         259.635 
       0.282372         294.364         247.908 
        0.28843          291.21         238.466 
       0.294538         277.226           230.4 
       0.300721         267.347         222.879 
        0.30691         262.658          215.25 
       0.313033          250.48          207.26 
       0.319153         245.366         198.837 
       0.325316         237.511         190.264 
        0.33145         229.875         182.055 
       0.337538         221.127         174.591 
       0.343633         213.958         167.969 
       0.349808         207.486         162.087 
       0.355968          202.66         156.856 
       0.362074         197.266         152.014 
       0.368217         193.672         147.266 
       0.374374         188.615         142.468 
       0.380519         180.662         137.626 
       0.386598          177.12         132.863 
       0.392688         171.669         128.229 
        0.39888         168.137         123.786 
       0.405048         164.076         119.701 
       0.411186         161.699         115.961 
       0.417313         157.894         112.518 
       0.423458         153.708         109.266 
       0.429607         149.883         106.123 
       0.435692         147.428         103.077 
       0.441815         143.562         100.058 
       0.447964         139.134          97.072 
       0.454126          136.65         94.1637 
       0.460267         135.191         91.3905 
       0.466387         131.768         88.7708 
        0.47254         130.164           86.28 
       0.478662         125.772         83.9403 
       0.484765         123.904         81.7237 
       0.490885         121.346         79.5864 
       0.497035         120.101         77.4976 
       0.503198         117.854         75.4572 
       0.509342         114.722          73.478 
       0.515458         112.954         71.5652 
       0.521598         110.121         69.7074 
       0.527764         109.015         67.9119 
       0.533884         108.168         66.2055 
           0.54         105.203         64.5759 
       0.546137         102.726         63.0061 
       0.552299         101.114         61.4854 
       0.558452         99.3257         60.0136 
       0.564573         98.8011         58.5914 
       0.570708         95.9978         57.2079 
       0.576825         94.9089         55.8702 
       0.582926         93.8221          54.577 
       0.589034          92.116         53.3229 
       0.595184         90.9708         52.1012 
       0.601379         88.9564          50.912 
       0.607522         87.1774         49.7732 
       0.613639         86.4925         48.6773 
       0.619772         84.9263         47.6135 
       0.625918         84.2474         46.5797 
       0.632068         82.4448         45.5748 
       0.638161         81.2979         44.6064 
         0.6443         80.7774         43.6576 
       0.650464         78.9261         42.7323 
       0.656582         78.6173         41.8405 
       0.662703         77.5114         40.9749 
       0.668861         75.8027         40.1303 
       0.675024         75.6888         39.3102 
       0.681124         74.4101         38.5222 
       0.687237         73.1445         37.7546 
       0.693381         72.4203         37.0045 
       0.699536         71.5508         36.2731 
       0.705665         70.5936         35.5642 
       0.711789         69.5459         34.8746 
       0.717957         68.6358         34.1984 
        0.72409         67.9461         33.5439 
       0.730186         67.5699         32.9107 
       0.736317         66.4275         32.2906 
       0.742472         65.4113         31.6845 
       0.748622         64.4641         31.0949 
        0.75476          64.153         30.5217 
       0.760888         63.7202         29.9641 
       0.767043         62.3711         29.4183 
       0.773185         61.5577         28.8874 
       0.779291         60.8971         28.3726 
       0.785407         60.2701         27.8697 
       0.791564         60.0604         27.3758 
       0.797719         59.0225         26.8941 
       0.803834         58.6771         26.4272 
       0.809972         58.0821         25.9698 
       0.816124         57.2947         25.5222 
       0.822261         56.5255         25.0864 
       0.828378         56.3888         24.6623 
       0.834502         55.6235         24.2476 
       0.840667         55.1744         23.8399 
       0.846816         54.5771         23.4427 
       0.852925         53.9144         23.0572 
       0.859047         53.7586         22.6796 
       0.865192         52.9252         22.3093 
       0.871341          52.342         21.9471 
       0.877463         51.8437         21.5946 
       0.883569          51.771         21.2508 
       0.889708         51.1572         20.9128 
       0.895864         50.7559         20.5813 
       0.902008         50.1842         20.2578 
       0.908149          49.565         19.9414 
       0.914301         49.2673         19.6313 
       0.920448         49.1346         19.3281 
       0.926574         48.1601         19.0325 
       0.932687         47.9011         18.7437 
       0.938823         47.4631         18.4598 
       0.944975         46.8945         18.1813 
       0.951105         46.5484         17.9095 
       0.957225         46.2996         17.6437 
       0.963368         45.8658         17.3825 
       0.969511         45.4722         17.1265 
       0.975621         45.0765         16.8771 
       0.981748         44.6738         16.6321 
       0.987916         44.2831         16.3904 
        0.99406         44.0194         16.1545 
        1.00019         43.5011         15.9236 
        1.00632         43.2029         15.6975 
        1.01246         42.8877         15.4755 
        1.01859         42.6269         15.2582 
        1.02471         42.1766         15.0453 
        1.03085         41.8738         14.8357 
        1.03698         41.6439         14.6306 
        1.04314         41.2706         14.4286 
        1.04929          40.841         14.2308 
        1.05541         40.7101         14.0376 
        1.06154         40.3678         13.8475 
        1.06769         39.9155         13.6606 
        1.07382         39.6124         13.4778 
        1.07993          39.446         13.2988 
        1.08607         39.0901         13.1224 
        1.09222         38.9037         12.9489 
        1.09836         38.5879         12.7788 
        1.10449         38.3668          12.612 
        1.11063         37.9954          12.448 
        1.11677         37.8997          12.287 
         1.1229         37.4851         12.1292 
        1.12903         37.2813         11.9739 
        1.13518         37.1592         11.8213 
        1.14131         36.7807         11.6714 
        1.14745         36.4929         11.5243 
        1.15359         36.0895         11.3796 
        1.15973         36.0819         11.2374 
        1.16584          35.771         11.0982 
        1.17197         35.3811         10.9613 
        1.17811         35.2273         10.8262 
        1.18424         34.7388         10.6938 
        1.19038         34.6484         10.5632 
        1.19652         34.4841         10.4349 
        1.20267         34.2458         10.3087 
        1.20881         34.0167         10.1846 
        1.21495         33.8997         10.0628 
        1.22108         33.7794         9.94294 
         1.2272          33.385         9.82536 
        1.23334         33.2319         9.70942 
        1.23949         33.0069         9.59508 
        1.24562          32.779          9.4829 
        1.25174         32.5697         9.37269 
        1.25789         32.4369          9.2639 
        1.26402          32.219         9.15703 
        1.27014         32.0964         9.05211 
        1.27628         31.7482         8.94853 
        1.28244          31.769         8.84638 
        1.28858         31.4242         8.74596 
        1.29471          31.181         8.64733 
        1.30084         30.9693         8.55031 
        1.30697         30.9592         8.45465 
        1.31312         30.6799         8.36031 
        1.31925         30.4172         8.26772 
        1.32537         30.2419         8.17662 
        1.33151         30.0421         8.08658 
        1.33765         29.9905         7.99795 
        1.34378         29.8411         7.91083 
        1.34992         29.5745         7.82495 
        1.35606         29.3309         7.74016 
         1.3622         29.2602         7.65678 
        1.36833         29.1595         7.57483 
        1.37445         28.8568         7.49413 
        1.38059         28.7416         7.41436 
        1.38675         28.5519         7.33557 
        1.39288         28.4272         7.25824 
        1.39901         28.2199         7.18205 
        1.40515           28.11          7.1068 
         1.4113          28.047         7.03265 
        1.41742         27.8453         6.95985 
        1.42355         27.5944         6.88794 
         1.4297         27.5347         6.81683 
        1.43585         27.3579         6.74676 
        1.44198         27.1816         6.67794 
        1.44809              27          6.6102 
        1.45423         26.9272         6.54316 
        1.46036         26.8377         6.47717 
        1.46649          26.624         6.41207 
        1.47263         26.4671         6.34781 
        1.47877         26.3286         6.28446 
        1.48491         26.2035         6.22188 
        1.49104         26.0185         6.16029 
        1.49718         26.0001         6.09948 
        1.50333         25.8484          6.0394 
        1.50947         25.6356         5.98025 
         1.5156         25.5718         5.92198 
        1.52172         25.3803          5.8645 
        1.52787         25.3362         5.80766 
          1.534         25.1117         5.75164 
        1.54013         25.1344         5.69643 
        1.54627         24.8944         5.64184 
        1.55241         24.7738         5.58796 
        1.55855         24.6601         5.53486 
        1.56467         24.5079         5.48259 
         1.5708         24.4389         5.43086 
        1.57695         24.3399         5.37972 
        1.58308         24.1112         5.32935 
        1.58922         24.0192          5.2796 
        1.59535           23.93          5.2305 
         1.6015         23.8829         5.18195 
        1.60764         23.6736         5.13405 
        1.61376         23.5701         5.08689 
        1.61989         23.3935         5.04028 
        1.62604          23.306         4.99416 
        1.63218         23.1826         4.94864 
        1.63831         23.1098         4.90379 
        1.64444         23.0054         4.85948 
        1.65059         22.8732         4.81561 
        1.65673          22.792         4.77234 
        1.66285         22.7132         4.72972 
        1.66898          22.561          4.6876 
        1.67512         22.5096         4.64591 
        1.68127         22.3618          4.6047 
         1.6874          22.271         4.56407 
        1.69353          22.164         4.52396 
        1.69967         22.0554         4.48424 
        1.70581         21.9482         4.44501 
        1.71193         21.8421          4.4064 
        1.71806          21.773         4.36817 
        1.72421         21.6735         4.33031 
        1.73035          21.547         4.29295 
        1.73649         21.4101         4.25604 
        1.74262         21.3169         4.21959 
        1.74876         21.3047         4.18354 
        1.75489         21.1369         4.14799 
        1.76101         21.0619         4.11286 
        1.76715         20.9536          4.0781 
        1.77329         20.8143         4.04369 
        1.77943         20.7786         4.00967 
        1.78557         20.7167         3.97608 
        1.79171         20.6045         3.94288 
        1.79785         20.4989         3.91005 
        1.80399         20.3727          3.8776 
        1.81012         20.3484         3.84556 
        1.81625         20.1786          3.8139 
        1.82239         20.1118         3.78255 
        1.82853         20.0331         3.75156 
        1.83466         19.9352         3.72096 
        1.84078         19.8285         3.69072 
        1.84692         19.7727         3.66078 
        1.85306         19.6694         3.63113 
         1.8592         19.6466         3.60186 
        1.86533         19.5182         3.57292 
        1.87147         19.4074         3.54427 
        1.87761          19.318         3.51593 
        1.88375         19.2587         3.48792 
        1.88988         19.1822         3.46026 
        1.89601         19.0803         3.43287 
        1.90215         18.9897         3.40576 
        1.90829         18.9534         3.37896 
        1.91442         18.8097         3.35244 
        1.92056         18.7682         3.32624 
         1.9267         18.6953         3.30028 
        1.93284         18.6503         3.27459 
        1.93897         18.5469         3.24922 
        1.94509         18.4726         3.22417 
        1.95123         18.3725         3.19932 
        1.95737         18.2848         3.17472 
        1.96349         18.2363         3.15043 
        1.96964         18.1827         3.12634 
        1.97578         18.0703         3.10248 
        1.98192         17.9974         3.07892 
        1.98805          17.883         3.05561 
        1.99419         17.8465         3.03253 
        2.00033         17.7552         3.00968 
        2.00647         17.7018         2.98707 
         2.0126         17.5894         2.96474 
        2.01874         17.5455         2.94259 
        2.02488         17.4472         2.92066 
        2.03101         17.3722         2.89899 
        2.03714         17.3217         2.87756 
        2.04328         17.2437         2.85632 
        2.04941         17.1615         2.83531 
        2.05554         17.1216         2.81453 
        2.06167         17.0575         2.79393 
        2.06781         16.9939         2.77353 
        2.07396         16.9233         2.75331 
        2.08009         16.8152         2.73332 
        2.08622          16.786         2.71356 
        2.09237         16.7295         2.69395 
        2.09851         16.6497         2.67453 
        2.10464         16.5329         2.65534 
        2.11077         16.5036         2.63636 
        2.11691         16.4271         2.61752 
        2.12305         16.3851         2.59886 
        2.12918         16.3094         2.58043 
        2.13531         16.2547         2.56218 
        2.14145         16.1644         2.54406 
         2.1476         16.0694          2.5261 
        2.15372         16.0701          2.5084 
        2.15985         15.9856         2.49085 
        2.16599         15.9011         2.47342 
        2.17213         15.8531         2.45618 
        2.17827         15.7763          2.4391 
         2.1844         15.7175         2.42221 
        2.19054         15.7163         2.40546 
        2.19666         15.6026          2.3889 
         2.2028         15.5899         2.37248 
        2.20893         15.4691          2.3562 
        2.21508         15.4192         2.34006 
        2.22122         15.3444         2.32407 
        2.22736         15.3396         2.30826 
        2.23349         15.2311          2.2926 
        2.23962         15.1988         2.27707 
        2.24577         15.1322         2.26168 
         2.2519         15.0678         2.24645 
        2.25802         14.9801         2.23139 
        2.26417         14.9707         2.21642 
        2.27031         14.8964         2.20157 
        2.27644         14.8492          2.1869 
        2.28257         14.7777         2.17237 
        2.28872         14.7725         2.15794 
        2.29486         14.7046         2.14365 
        2.30099         14.6058         2.12952 
        2.30712         14.5883          2.1155 
        2.31326         14.4954         2.10159 
         2.3194         14.4479         2.08781 
        2.32553         14.4051         2.07418 
        2.33166         14.3202         2.06068 
         2.3378         14.2896         2.04728 
        2.34394         14.2246         2.03399 
        2.35007         14.1926         2.02084 
        2.35619         14.1566         2.00782 
        2.36233         14.0456         1.99489 
        2.36848         14.0148         1.98204 
        2.37462         13.9659         1.96933 
        2.38075         13.9235         1.95675 
        2.38689         13.8551         1.94427 
        2.39303         13.7978         1.93189 
        2.39916         13.7416         1.91964 
        2.40529         13.7154         1.90749 
        2.41143         13.6311         1.89545 
        2.41757          13.576         1.88349 
         2.4237          13.541         1.87167 
        2.42983         13.5079         1.85995 
        2.43598          13.445         1.84829 
        2.44211          13.408         1.83676 
        2.44823         13.3295         1.82535 
        2.45437         13.3249           1.814 
        2.46052          13.247         1.80274 
        2.46665         13.2359          1.7916 
        2.47279         13.1507         1.78056 
        2.47892          13.096          1.7696 
        2.48507         13.0594         1.75872 
         2.4912         12.9923         1.74796 
