# k  (h/Mpc)    Pcb(k)  (Mpc/h)^3    Pcb_linear(k)  (Mpc/h)^3
     0.00783031         11958.7         12119.7 
       0.013688           14487         14377.3 
       0.019231         14086.8         14047.4 
      0.0249154         12290.7         12494.2 
      0.0312784         10267.5         10332.8 
      0.0375637         8458.21         8421.19 
      0.0433917         7027.77         7090.79 
      0.0492413          6190.5         6188.72 
      0.0555754         5473.63         5579.91 
      0.0619321         5225.62         5180.11 
       0.067871         4773.66         4853.71 
      0.0738098         4409.97         4483.59 
      0.0800417         3926.25         4021.04 
      0.0862327         3484.32          3519.2 
      0.0921407         3087.85         3058.73 
      0.0982031         2677.85         2657.56 
       0.104506         2442.08         2346.29 
       0.110769         2230.61         2142.37 
       0.116806         2093.71         2021.93 
       0.122832         2011.65         1942.87 
       0.129052         1891.01         1868.96 
       0.135211         1800.71         1777.02 
       0.141259         1711.62          1658.6 
       0.147318         1590.05         1518.07 
       0.153489         1435.61         1369.04 
       0.159709         1327.85         1231.69 
       0.165845         1246.82         1121.89 
       0.171974         1164.18         1042.14 
       0.178125         1107.32         988.704 
       0.184229         1063.77         953.397 
        0.19034            1004         925.057 
       0.196428         987.746         894.315 
       0.202534          954.59         855.168 
       0.208729         902.451         806.056 
       0.214876         851.196         751.461 
       0.220989         813.194         697.028 
       0.227147         768.338          647.52 
        0.23329         731.549         606.934 
       0.239377         712.496         576.247 
       0.245482         664.618         553.507 
       0.251667         659.703         535.659 
       0.257832          636.06         519.618 
       0.263955         615.224         502.544 
       0.270079         591.004         482.797 
        0.27624         582.213         460.283 
       0.282372         557.479         436.425 
        0.28843         541.512         413.227 
       0.294538         513.207         391.816 
       0.300721         508.369         373.235 
        0.30691          484.82         357.946 
       0.313033         474.686          345.56 
       0.319153         459.503         334.929 
       0.325316         446.589         324.884 
        0.33145         433.016         314.656 
       0.337538         426.188         303.841 
       0.343633          412.23         292.338 
       0.349808         397.629         280.411 
       0.355968         392.873          268.76 
       0.362074         385.085         258.011 
       0.368217         374.027         248.288 
       0.374374          358.37         239.735 
       0.380519         355.374         232.217 
       0.386598         346.032         225.455 
       0.392688         342.908         219.042 
        0.39888         333.209         212.574 
       0.405048         325.549         206.031 
       0.411186         319.289         199.432 
       0.417313         312.959          192.83 
       0.423458         306.421          186.38 
       0.429607         300.512         180.267 
       0.435692         292.525         174.635 
       0.441815         289.807         169.419 
       0.447964         283.626         164.609 
       0.454126          274.88         160.097 
       0.460267         270.543         155.799 
       0.466387         267.178          151.63 
        0.47254         261.487         147.492 
       0.478662         260.586         143.397 
       0.484765         251.425         139.381 
       0.490885         248.492         135.468 
       0.497035         244.185          131.69 
       0.503198         239.454         128.085 
       0.509342         237.217         124.693 
       0.515458         233.869         121.509 
       0.521598         228.777         118.468 
       0.527764         225.591         115.529 
       0.533884         222.973         112.698 
           0.54         219.524         109.942 
       0.546137         218.242         107.238 
       0.552299         213.617          104.58 
       0.558452         211.736         101.995 
       0.564573         208.429         99.5076 
       0.570708         204.105         97.1119 
       0.576825         201.271         94.8255 
       0.582926         198.537         92.6363 
       0.589034         196.542         90.5246 
       0.595184         194.356         88.4699 
       0.601379         191.744          86.465 
       0.607522         188.374         84.5351 
       0.613639         187.122         82.6655 
       0.619772         183.171          80.839 
       0.625918         181.806         79.0553 
       0.632068         179.181         77.3203 
       0.638161         178.094         75.6535 
         0.6443         175.345         74.0288 
       0.650464         173.482         72.4541 
       0.656582         171.498         70.9428 
       0.662703         170.356         69.4776 
       0.668861         167.263          68.046 
       0.675024         165.129         66.6514 
       0.681124         164.331         65.3064 
       0.687237         161.866         63.9931 
       0.693381         159.336         62.7081 
       0.699536         158.199         61.4559 
       0.705665         157.305         60.2442 
       0.711789         154.804         59.0678 
       0.717957         154.453         57.9165 
        0.72409         152.197         56.8034 
       0.730186         150.157         55.7269 
       0.736317         148.602         54.6727 
       0.742472         147.733         53.6416 
       0.748622         146.366         52.6376 
        0.75476         145.073         51.6609 
       0.760888         143.162         50.7102 
       0.767043         142.709         49.7795 
       0.773185         141.167         48.8742 
       0.779291         138.576         47.9968 
       0.785407          138.14         47.1401 
       0.791564         136.968         46.2992 
       0.797719         134.642         45.4796 
       0.803834         134.013         44.6854 
       0.809972          132.99         43.9074 
       0.816124         132.438         43.1464 
       0.822261             131         42.4056 
       0.828378         129.721         41.6843 
       0.834502         129.373         40.9791 
       0.840667         127.372         40.2856 
       0.846816         126.094         39.6101 
       0.852925         125.565         38.9543 
       0.859047         124.082          38.312 
       0.865192         123.029         37.6821 
       0.871341         122.015          37.066 
       0.877463         120.848         36.4665 
       0.883569          120.46         35.8819 
       0.889708         119.275         35.3072 
       0.895864         117.951         34.7436 
       0.902008         117.232         34.1936 
       0.908149         116.758         33.6559 
       0.914301         115.446         33.1289 
       0.920448         114.528         32.6138 
       0.926574         113.791         32.1114 
       0.932687         113.658         31.6207 
       0.938823         111.907         31.1386 
       0.944975         110.767         30.6654 
       0.951105         110.328         30.2038 
       0.957225         109.222         29.7525 
       0.963368         108.041         29.3089 
       0.969511          107.94         28.8744 
       0.975621         107.273         28.4511 
       0.981748         106.644         28.0351 
       0.987916         105.489         27.6249 
        0.99406         104.678         27.2245 
        1.00019         104.439         26.8328 
        1.00632         103.295         26.4492 
        1.01246         102.777         26.0725 
        1.01859         101.863         25.7038 
        1.02471         101.018         25.3427 
        1.03085         100.159         24.9873 
        1.03698         99.8895         24.6395 
        1.04314         98.8635         24.2968 
        1.04929         98.2893         23.9615 
        1.05541         97.5613         23.6338 
        1.06154         97.1323         23.3115 
        1.06769         96.8583         22.9947 
        1.07382         96.0332         22.6849 
        1.07993         95.3099         22.3815 
        1.08607         94.5896         22.0823 
        1.09222         94.3716         21.7884 
        1.09836         93.5054         21.5001 
        1.10449         92.8381         21.2174 
        1.11063         92.1714         20.9395 
        1.11677          91.783         20.6666 
         1.1229         90.9209         20.3992 
        1.12903         90.3252         20.1362 
        1.13518         90.3305         19.8776 
        1.14131         89.5038         19.6237 
        1.14745         88.9039         19.3744 
        1.15359         88.3645         19.1294 
        1.15973         87.9709         18.8886 
        1.16584         87.1365          18.653 
        1.17197         86.7181          18.421 
        1.17811         86.2331         18.1923 
        1.18424         85.7125         17.9682 
        1.19038          85.396         17.7472 
        1.19652         84.8451           17.53 
        1.20267         84.0148         17.3164 
        1.20881         83.5986         17.1064 
        1.21495         83.0768         16.9003 
        1.22108         82.7565         16.6976 
         1.2272         81.8842         16.4987 
        1.23334         81.6276         16.3026 
        1.23949         81.0969         16.1092 
        1.24562         80.6156         15.9194 
        1.25174         80.1479         15.7331 
        1.25789         79.8261         15.5491 
        1.26402         79.2152         15.3684 
        1.27014         78.8486          15.191 
        1.27628         78.4514         15.0159 
        1.28244         77.9251         14.8432 
        1.28858         77.7247         14.6735 
        1.29471          77.104         14.5068 
        1.30084          76.764         14.3428 
        1.30697         76.2063         14.1811 
        1.31312         75.8154         14.0217 
        1.31925         75.3065         13.8653 
        1.32537         75.0532         13.7113 
        1.33151          74.342         13.5592 
        1.33765         74.0827         13.4095 
        1.34378         73.6715         13.2623 
        1.34992         73.3638         13.1172 
        1.35606         72.9292         12.9739 
         1.3622         72.3028         12.8331 
        1.36833         72.2016         12.6947 
        1.37445           71.71         12.5584 
        1.38059         71.1753         12.4237 
        1.38675           70.79         12.2906 
        1.39288         70.4863         12.1601 
        1.39901         70.2142         12.0314 
        1.40515         69.7131         11.9044 
         1.4113         69.3632         11.7792 
        1.41742         69.2575         11.6563 
        1.42355         68.6507          11.535 
         1.4297         68.4655          11.415 
        1.43585          67.894         11.2967 
        1.44198         67.5398         11.1806 
        1.44809         67.2612         11.0663 
        1.45423         66.9183         10.9532 
        1.46036          66.695         10.8419 
        1.46649         66.2033         10.7321 
        1.47263         65.8012         10.6237 
        1.47877         65.6537         10.5169 
        1.48491         65.2059         10.4114 
        1.49104         64.9208         10.3075 
        1.49718         64.4812          10.205 
        1.50333         64.2237         10.1037 
        1.50947         63.9254          10.004 
         1.5156         63.5637         9.90578 
        1.52172         63.2558         9.80887 
        1.52787         63.0968         9.71307 
          1.534         62.5745         9.61866 
        1.54013          62.199          9.5256 
        1.54627          62.076          9.4336 
        1.55241          61.552         9.34279 
        1.55855         61.3945         9.25331 
        1.56467         61.0408         9.16525 
         1.5708         60.8119         9.07808 
        1.57695         60.6331         8.99191 
        1.58308         60.0794         8.90706 
        1.58922         59.8897         8.82324 
        1.59535         59.7399         8.74053 
         1.6015         59.1479         8.65877 
        1.60764         59.0256         8.57809 
        1.61376         58.6765         8.49866 
        1.61989         58.4263         8.42017 
        1.62604         58.2035          8.3425 
        1.63218         57.9574         8.26585 
        1.63831         57.4538         8.19034 
        1.64444         57.2891         8.11574 
        1.65059         57.0106          8.0419 
        1.65673         56.7248         7.96905 
        1.66285         56.3723         7.89731 
        1.66898         56.1962         7.82643 
        1.67512         55.7865         7.75628 
        1.68127         55.6346         7.68692 
         1.6874         55.3823         7.61857 
        1.69353         55.1055         7.55108 
        1.69967         54.7667         7.48426 
        1.70581         54.6486         7.41827 
        1.71193         54.4564         7.35332 
        1.71806         53.9187         7.28901 
        1.72421         53.8115         7.22535 
        1.73035         53.5684         7.16251 
        1.73649         53.2455         7.10044 
        1.74262         53.0599         7.03915 
        1.74876         52.7722         6.97854 
        1.75489         52.5168         6.91876 
        1.76101         52.3416         6.85971 
        1.76715         51.9615         6.80125 
        1.77329         51.7615         6.74341 
        1.77943         51.4216         6.68621 
        1.78557         51.2827         6.62976 
        1.79171         51.0137         6.57395 
        1.79785         50.7557         6.51877 
        1.80399         50.6604         6.46423 
        1.81012         50.3435         6.41039 
        1.81625         49.9852         6.35718 
        1.82239         49.8319          6.3045 
        1.82853         49.5536         6.25244 
        1.83466         49.3424         6.20102 
        1.84078         49.0874         6.15022 
        1.84692         48.8064         6.09992 
        1.85306         48.6185         6.05011 
         1.8592          48.322         6.00094 
        1.86533         48.1862         5.95234 
        1.87147         47.9103         5.90422 
        1.87761         47.7473         5.85661 
        1.88375         47.5017         5.80958 
        1.88988         47.3613         5.76312 
        1.89601         47.0775         5.71714 
        1.90215         46.8545         5.67162 
        1.90829         46.7059         5.62662 
        1.91442         46.4609          5.5821 
        1.92056         46.1421         5.53811 
         1.9267         45.9843         5.49454 
        1.93284         45.7327         5.45141 
        1.93897         45.5791         5.40883 
        1.94509          45.316         5.36679 
        1.95123         45.1322          5.3251 
        1.95737         44.9431         5.28381 
        1.96349         44.6323         5.24307 
        1.96964         44.5754         5.20264 
        1.97578         44.2946         5.16262 
        1.98192         44.0969         5.12309 
        1.98805         44.0144         5.08398 
        1.99419          43.685         5.04527 
        2.00033         43.4975         5.00695 
        2.00647         43.3169         4.96903 
         2.0126         42.9826         4.93157 
        2.01874         42.9634         4.89444 
        2.02488         42.7512         4.85765 
        2.03101         42.5111         4.82131 
        2.03714         42.3406         4.78538 
        2.04328         42.1287         4.74977 
        2.04941         41.9113         4.71455 
        2.05554         41.6781         4.67971 
        2.06167         41.5665         4.64517 
        2.06781         41.3247         4.61098 
        2.07396         41.1966         4.57708 
        2.08009         41.0332         4.54358 
        2.08622          40.753         4.51046 
        2.09237         40.6102         4.47759 
        2.09851         40.4678         4.44505 
        2.10464          40.277         4.41289 
        2.11077         40.0782         4.38108 
        2.11691         39.8426         4.34951 
        2.12305         39.7001         4.31826 
        2.12918         39.5183         4.28738 
        2.13531         39.2883          4.2568 
        2.14145          39.117         4.22645 
         2.1476         38.9454         4.19636 
        2.15372         38.7287         4.16672 
        2.15985         38.6047         4.13733 
        2.16599         38.4673         4.10813 
        2.17213         38.3333         4.07925 
        2.17827         38.1009         4.05066 
         2.1844         37.9305         4.02236 
        2.19054         37.7235         3.99432 
        2.19666         37.5611         3.96659 
         2.2028         37.3852          3.9391 
        2.20893         37.2851         3.91185 
        2.21508         37.1631         3.88483 
        2.22122         36.9273         3.85805 
        2.22736          36.819         3.83159 
        2.23349         36.6355         3.80537 
        2.23962         36.3544         3.77939 
        2.24577         36.2141         3.75363 
         2.2519         36.0482         3.72814 
        2.25802         36.0232         3.70293 
        2.26417         35.7617         3.67788 
        2.27031         35.6044         3.65304 
        2.27644         35.4634          3.6285 
        2.28257         35.3168         3.60418 
        2.28872         35.1029         3.58005 
        2.29486         35.0238         3.55613 
        2.30099         34.8585         3.53249 
        2.30712          34.712         3.50905 
        2.31326         34.4877         3.48578 
         2.3194         34.3515         3.46274 
        2.32553         34.2109         3.43994 
        2.33166         34.0956         3.41735 
         2.3378         33.8474         3.39494 
        2.34394         33.7888         3.37272 
        2.35007         33.6057         3.35073 
        2.35619         33.4433         3.32896 
        2.36233          33.351         3.30734 
        2.36848         33.1944         3.28586 
        2.37462         32.9989         3.26462 
        2.38075         32.9317         3.24358 
        2.38689         32.7912         3.22271 
        2.39303           32.61         3.20203 
        2.39916         32.4194         3.18155 
        2.40529         32.2841         3.16125 
        2.41143           32.22         3.14111 
        2.41757         32.0624         3.12114 
         2.4237         31.9665         3.10138 
        2.42983         31.7511         3.08179 
        2.43598         31.6404         3.06231 
        2.44211         31.4808         3.04304 
        2.44823         31.3947         3.02398 
        2.45437         31.2178         3.00503 
        2.46052         31.0161         2.98622 
        2.46665         30.9448         2.96761 
        2.47279         30.8241         2.94916 
        2.47892          30.667         2.93085 
        2.48507         30.5311         2.91269 
         2.4912         30.4384         2.89471 
