# k  (h/Mpc)    Pcb(k)  (Mpc/h)^3    Pcb_linear(k)  (Mpc/h)^3
     0.00783031         2634.64         2651.17 
       0.013688         3297.78          3342.7 
       0.019231         3430.69         3452.89 
      0.0249154         3262.52          3259.5 
      0.0312784         2877.81          2885.5 
      0.0375637         2487.82         2501.71 
      0.0433917         2204.16         2202.56 
      0.0492413         1968.53         1975.72 
      0.0555754         1804.84          1801.5 
      0.0619321          1650.1         1673.08 
       0.067871         1559.95         1567.95 
      0.0738098         1454.11         1458.56 
      0.0800417         1331.67         1331.71 
      0.0862327         1193.89         1197.77 
      0.0921407          1070.8          1073.1 
      0.0982031         964.224         959.448 
       0.104506         861.251         864.149 
       0.110769         793.423         793.946 
       0.116806         753.121         745.528 
       0.122832         710.107         709.261 
       0.129052         680.084         676.681 
       0.135211         650.545         642.937 
       0.141259         608.505         605.249 
       0.147318         562.213         563.246 
       0.153489         522.325          518.93 
       0.159709         485.566         476.594 
       0.165845         442.805         440.316 
       0.171974         423.383         411.107 
       0.178125         401.311         388.649 
       0.184229         379.114         371.586 
        0.19034         368.817         357.449 
       0.196428         355.347         344.053 
       0.202534         335.008         329.691 
       0.208729         324.207         313.516 
       0.214876         309.538         296.214 
       0.220989         287.296         278.768 
       0.227147         276.991         262.148 
        0.23329         263.783         247.452 
       0.239377         253.771         235.176 
       0.245482         241.423         225.049 
       0.251667         231.237         216.508 
       0.257832          227.48         208.978 
       0.263955         216.243          201.78 
       0.270079         208.593         194.374 
        0.27624         199.441         186.529 
       0.282372         192.552         178.444 
        0.28843          188.94         170.472 
       0.294538         179.892         162.804 
       0.300721         171.651         155.702 
        0.30691         167.975         149.403 
       0.313033         161.086         143.944 
       0.319153         158.155         139.101 
       0.325316         151.916         134.625 
        0.33145          147.27         130.352 
       0.337538         142.856         126.135 
       0.343633         138.678         121.876 
       0.349808         134.127         117.539 
       0.355968         130.126         113.277 
       0.362074         127.379         109.211 
       0.368217         123.845         105.375 
       0.374374          120.94         101.826 
       0.380519         115.776         98.5779 
       0.386598         112.901         95.6153 
       0.392688         109.723         92.8279 
        0.39888         107.722         90.1156 
       0.405048          105.26         87.4811 
       0.411186         102.854         84.8957 
       0.417313         100.063          82.356 
       0.423458         97.3753         79.8636 
       0.429607          95.602         77.4529 
       0.435692         93.9458         75.1776 
       0.441815         90.6384           73.01 
       0.447964         87.9872         70.9566 
       0.454126         86.4074         69.0161 
       0.460267         85.6713         67.1768 
       0.466387         83.4378         65.4154 
        0.47254         82.3624         63.7001 
       0.478662         79.6136         62.0394 
       0.484765         78.1938         60.4222 
       0.490885         76.1158         58.8427 
       0.497035         75.3126         57.3057 
       0.503198         73.4799         55.8226 
       0.509342         71.6108         54.4028 
       0.515458         70.7641          53.049 
       0.521598           69.06         51.7482 
       0.527764         68.2076         50.4945 
       0.533884          67.143         49.2942 
           0.54          65.604         48.1323 
       0.546137         63.7912         47.0003 
       0.552299         62.7819         45.8963 
       0.558452         61.5533         44.8252 
       0.564573         61.1828         43.7902 
       0.570708         59.4038         42.7847 
       0.576825         58.7698         41.8156 
       0.582926         57.9264         40.8826 
       0.589034         56.8396         39.9807 
       0.595184         56.0948         39.1024 
       0.601379         54.6235         38.2458 
       0.607522         53.8467         37.4218 
       0.613639         53.1901         36.6251 
       0.619772         52.2452         35.8492 
       0.625918         51.3604         35.0935 
       0.632068         50.8963         34.3582 
       0.638161          49.883         33.6499 
         0.6443         49.2911         32.9565 
       0.650464         48.1494         32.2808 
       0.656582         47.8938         31.6298 
       0.662703         47.3287         30.9979 
       0.668861          46.155         30.3804 
       0.675024          45.794         29.7797 
       0.681124         45.3455         29.2015 
       0.687237         44.4401         28.6371 
       0.693381         43.7768         28.0847 
       0.699536         43.5115         27.5457 
       0.705665         42.7429         27.0232 
       0.711789          42.065         26.5148 
       0.717957         41.3435         26.0164 
        0.72409         40.9658         25.5338 
       0.730186          40.768         25.0668 
       0.736317         39.9934         24.6091 
       0.742472         39.5228         24.1613 
       0.748622         38.9289         23.7252 
        0.75476         38.1178         23.3009 
       0.760888         38.0529         22.8876 
       0.767043         37.3959         22.4827 
       0.773185          37.054         22.0885 
       0.779291         36.6067         21.7061 
       0.785407          36.047         21.3323 
       0.791564          35.956          20.965 
       0.797719         35.2476         20.6067 
       0.803834         35.0393         20.2592 
       0.809972         34.4665         19.9185 
       0.816124         34.1273          19.585 
       0.822261         33.7584         19.2602 
       0.828378         33.4812         18.9437 
       0.834502         33.1345         18.6342 
       0.840667         32.8105         18.3296 
       0.846816         32.1575         18.0328 
       0.852925         32.0884         17.7444 
       0.859047         31.7918         17.4618 
       0.865192           31.33         17.1844 
       0.871341         30.9621          16.913 
       0.877463         30.6804         16.6487 
       0.883569         30.5344         16.3907 
       0.889708         30.1084          16.137 
       0.895864         29.7449          15.888 
       0.902008         29.4216         15.6448 
       0.908149         29.1398         15.4069 
       0.914301         28.9811         15.1736 
       0.920448         28.5975         14.9454 
       0.926574         28.3028         14.7228 
       0.932687          28.029         14.5052 
       0.938823         27.6936         14.2912 
       0.944975         27.4876         14.0811 
       0.951105          27.245          13.876 
       0.957225         27.0831         13.6754 
       0.963368         26.6971         13.4781 
       0.969511         26.4736         13.2847 
       0.975621         26.2518         13.0962 
       0.981748         25.9511         12.9109 
       0.987916          25.804          12.728 
        0.99406         25.4881         12.5494 
        1.00019         25.3341         12.3747 
        1.00632         25.1268         12.2034 
        1.01246         24.9185         12.0351 
        1.01859          24.636         11.8703 
        1.02471         24.4267         11.7088 
        1.03085         24.3316         11.5498 
        1.03698         24.1241         11.3941 
        1.04314         23.8546         11.2407 
        1.04929         23.5997         11.0904 
        1.05541         23.5182         10.9435 
        1.06154         23.3488         10.7989 
        1.06769         23.0779         10.6568 
        1.07382         22.8489         10.5177 
        1.07993         22.6625         10.3813 
        1.08607         22.5529         10.2469 
        1.09222         22.3277         10.1147 
        1.09836         22.1631         9.98505 
        1.10449         22.0068         9.85781 
        1.11063         21.8633         9.73266 
        1.11677         21.7752         9.60974 
         1.1229         21.5489         9.48917 
        1.12903         21.3845         9.37058 
        1.13518         21.1981         9.25393 
        1.14131         21.0824         9.13935 
        1.14745         20.8109         9.02677 
        1.15359         20.6479         8.91609 
        1.15973         20.5065         8.80723 
        1.16584         20.3553         8.70068 
        1.17197         20.1665         8.59576 
        1.17811         20.0583         8.49225 
        1.18424         19.9097         8.39076 
        1.19038         19.8214         8.29065 
        1.19652         19.6252         8.19222 
        1.20267         19.5261          8.0954 
        1.20881         19.3313         8.00017 
        1.21495         19.2102         7.90664 
        1.22108         19.1664         7.81462 
         1.2272           19.01          7.7243 
        1.23334         18.8844          7.6352 
        1.23949         18.7327         7.54731 
        1.24562         18.5543         7.46105 
        1.25174          18.491         7.37628 
        1.25789         18.3491         7.29257 
        1.26402         18.2668         7.21032 
        1.27014         18.1663         7.12955 
        1.27628         17.9553         7.04978 
        1.28244         17.9596         6.97109 
        1.28858         17.7592          6.8937 
        1.29471         17.5713         6.81768 
        1.30084         17.4806         6.74287 
        1.30697         17.4501         6.66908 
        1.31312         17.2805          6.5963 
        1.31925          17.198         6.52483 
        1.32537         17.0698          6.4545 
        1.33151         16.9671         6.38496 
        1.33765         16.8887         6.31648 
        1.34378         16.8093         6.24915 
        1.34992         16.6795         6.18276 
        1.35606          16.524          6.1172 
         1.3622         16.4125          6.0527 
        1.36833         16.3852          5.9893 
        1.37445         16.2922         5.92684 
        1.38059         16.1884         5.86508 
        1.38675         16.0782         5.80406 
        1.39288         15.9419         5.74415 
        1.39901         15.8806         5.68512 
        1.40515         15.7793         5.62679 
         1.4113         15.6796         5.56931 
        1.41742         15.6194         5.51285 
        1.42355         15.4776         5.45708 
         1.4297         15.4129         5.40191 
        1.43585         15.3399         5.34753 
        1.44198         15.2769         5.29411 
        1.44809          15.168         5.24152 
        1.45423          15.065         5.18946 
        1.46036         14.9867          5.1382 
        1.46649         14.8934         5.08762 
        1.47263          14.843         5.03769 
        1.47877         14.7507         4.98845 
        1.48491         14.6685         4.93979 
        1.49104         14.5722         4.89189 
        1.49718         14.5153         4.84459 
        1.50333         14.4395         4.79785 
        1.50947         14.3636         4.75181 
         1.5156         14.2918         4.70646 
        1.52172          14.199          4.6617 
        1.52787         14.1416         4.61743 
          1.534         14.0725         4.57379 
        1.54013         13.9996         4.53076 
        1.54627         13.8982         4.48822 
        1.55241         13.8022         4.44621 
        1.55855         13.7744          4.4048 
        1.56467         13.7113         4.36403 
         1.5708         13.6533         4.32367 
        1.57695         13.5543         4.28376 
        1.58308         13.4674         4.24444 
        1.58922         13.4224          4.2056 
        1.59535          13.344         4.16725 
         1.6015         13.2313         4.12934 
        1.60764         13.1988         4.09191 
        1.61376           13.16         4.05505 
        1.61989         13.0546         4.01862 
        1.62604         13.0297         3.98256 
        1.63218         12.9672         3.94696 
        1.63831         12.8703         3.91189 
        1.64444         12.7926         3.87722 
        1.65059         12.7308          3.8429 
        1.65673         12.7026         3.80903 
        1.66285          12.618         3.77567 
        1.66898         12.5913         3.74269 
        1.67512          12.526         3.71005 
        1.68127         12.4161         3.67776 
         1.6874         12.4004         3.64594 
        1.69353         12.3043         3.61451 
        1.69967         12.2635         3.58338 
        1.70581         12.2115         3.55263 
        1.71193         12.1581         3.52236 
        1.71806         12.1092         3.49238 
        1.72421         12.0315         3.46269 
        1.73035          11.983         3.43338 
        1.73649          11.949         3.40442 
        1.74262         11.8249         3.37581 
        1.74876         11.8358         3.34752 
        1.75489          11.773         3.31961 
        1.76101         11.6898         3.29203 
        1.76715         11.6647         3.26472 
        1.77329         11.6083         3.23769 
        1.77943         11.5253         3.21096 
        1.78557         11.5233         3.18456 
        1.79171         11.4484         3.15846 
        1.79785         11.4222         3.13265 
        1.80399         11.3281         3.10714 
        1.81012         11.3057         3.08194 
        1.81625         11.2223         3.05703 
        1.82239         11.1855         3.03237 
        1.82853         11.1245         3.00798 
        1.83466         11.0578         2.98389 
        1.84078         11.0445         2.96009 
        1.84692         11.0109         2.93652 
        1.85306         10.9593         2.91317 
         1.8592         10.9111         2.89011 
        1.86533         10.8543         2.86731 
        1.87147         10.8029         2.84474 
        1.87761         10.7653          2.8224 
        1.88375         10.7174         2.80033 
        1.88988          10.653         2.77851 
        1.89601         10.6364         2.75692 
        1.90215         10.5652         2.73554 
        1.90829         10.5257          2.7144 
        1.91442         10.4761         2.69348 
        1.92056         10.4786         2.67281 
         1.9267         10.4011         2.65232 
        1.93284         10.3888         2.63204 
        1.93897         10.3123         2.61202 
        1.94509         10.2689         2.59224 
        1.95123         10.2488         2.57262 
        1.95737         10.2093         2.55319 
        1.96349         10.1262         2.53401 
        1.96964          10.098         2.51497 
        1.97578         10.0736         2.49612 
        1.98192         10.0207          2.4775 
        1.98805         9.98614         2.45907 
        1.99419         9.95116         2.44083 
        2.00033         9.90969         2.42276 
        2.00647         9.87275         2.40488 
         2.0126          9.8388         2.38722 
        2.01874         9.76931          2.3697 
        2.02488         9.74794         2.35235 
        2.03101         9.71107          2.3352 
        2.03714         9.66168         2.31824 
        2.04328         9.61473         2.30142 
        2.04941         9.57363         2.28479 
        2.05554         9.56223         2.26834 
        2.06167         9.52557         2.25203 
        2.06781         9.47278         2.23587 
        2.07396         9.45269         2.21985 
        2.08009         9.38369         2.20401 
        2.08622         9.38788         2.18835 
        2.09237         9.35105         2.17281 
        2.09851         9.28577         2.15742 
        2.10464         9.27533          2.1422 
        2.11077         9.21034         2.12715 
        2.11691          9.2103         2.11221 
        2.12305         9.15113         2.09742 
        2.12918         9.10668          2.0828 
        2.13531         9.08888         2.06832 
        2.14145         9.05175         2.05394 
         2.1476         9.02329         2.03968 
        2.15372         8.98218         2.02564 
        2.15985         8.95389         2.01171 
        2.16599         8.92391         1.99787 
        2.17213          8.9131         1.98418 
        2.17827          8.8573         1.97061 
         2.1844         8.83463         1.95719 
        2.19054         8.80545         1.94389 
        2.19666         8.76721         1.93073 
         2.2028         8.73112         1.91768 
        2.20893         8.69988         1.90475 
        2.21508          8.6734         1.89192 
        2.22122         8.61648         1.87921 
        2.22736         8.59847         1.86664 
        2.23349         8.56938         1.85418 
        2.23962         8.54802         1.84184 
        2.24577         8.51727         1.82959 
         2.2519         8.50223         1.81748 
        2.25802         8.41661         1.80549 
        2.26417         8.42332         1.79358 
        2.27031         8.38404         1.78177 
        2.27644          8.3597         1.77009 
        2.28257         8.30783         1.75853 
        2.28872         8.29997         1.74704 
        2.29486         8.26839         1.73566 
        2.30099         8.25192          1.7244 
        2.30712          8.2007         1.71324 
        2.31326         8.16875         1.70216 
         2.3194         8.14702         1.69119 
        2.32553         8.11232         1.68033 
        2.33166         8.08461         1.66957 
         2.3378          8.0669         1.65889 
        2.34394         8.03956          1.6483 
        2.35007         8.00066         1.63781 
        2.35619         7.98337         1.62743 
        2.36233         7.93989         1.61712 
        2.36848         7.92189         1.60688 
        2.37462         7.89766         1.59674 
        2.38075         7.87811          1.5867 
        2.38689         7.85501         1.57675 
        2.39303         7.80208         1.56687 
        2.39916         7.79166          1.5571 
        2.40529         7.76114          1.5474 
        2.41143         7.73284         1.53779 
        2.41757         7.70483         1.52825 
         2.4237         7.68577         1.51881 
        2.42983         7.66449         1.50945 
        2.43598         7.63873         1.50014 
        2.44211         7.61697         1.49093 
        2.44823         7.57376         1.48182 
        2.45437         7.55414         1.47275 
        2.46052            7.54         1.46376 
        2.46665         7.51396         1.45486 
        2.47279         7.49078         1.44603 
        2.47892         7.44722         1.43727 
        2.48507          7.4312         1.42858 
         2.4912         7.40687         1.41998 
