# k  (h/Mpc)    P(k)  (Mpc/h)^3    P_linear(k)  (Mpc/h)^3
     0.00783031         7799.77         7850.89 
       0.013688         9689.21         9893.54 
       0.019231           10157         10277.5 
      0.0249154         9795.25         9792.13 
      0.0312784         8691.47         8764.89 
      0.0375637         7549.36         7658.56 
      0.0433917          6723.1         6756.41 
      0.0492413         5969.77         6041.62 
      0.0555754         5447.35         5472.74 
      0.0619321         4904.89         5054.75 
       0.067871         4652.96          4733.6 
      0.0738098         4369.77         4424.29 
      0.0800417         4038.41         4079.19 
      0.0862327          3656.2         3711.54 
      0.0921407          3317.3         3355.57 
      0.0982031         3014.17         3012.19 
       0.104506         2678.99         2703.99 
       0.110769          2454.7         2460.27 
       0.116806         2321.59         2283.24 
       0.122832         2166.45         2151.64 
       0.129052         2063.49         2045.18 
       0.135211         1996.07         1950.53 
       0.141259         1872.54         1854.07 
       0.147318         1743.63         1747.26 
       0.153489         1644.53         1628.79 
       0.159709          1559.7         1506.25 
       0.165845         1417.28         1391.14 
       0.171974         1367.12         1289.46 
       0.178125         1299.17         1204.89 
       0.184229         1202.08         1138.41 
        0.19034         1173.95         1086.13 
       0.196428          1136.3         1043.23 
       0.202534         1068.01            1004 
       0.208729         1049.95         963.587 
       0.214876         1009.37          920.42 
       0.220989         947.232         874.304 
       0.227147         923.221         826.338 
        0.23329          884.85          779.57 
       0.239377         865.328          736.75 
       0.245482         818.733         698.949 
       0.251667          785.47         666.442 
       0.257832         775.236         639.222 
       0.263955         734.928         615.946 
       0.270079         711.755         594.777 
        0.27624          682.94         574.097 
       0.282372         669.362          553.15 
        0.28843         663.994         531.767 
       0.294538         630.314         509.759 
       0.300721         610.653         487.702 
        0.30691         599.856         466.593 
       0.313033         573.543         447.309 
       0.319153         563.709         429.921 
       0.325316         552.793         414.329 
        0.33145         540.288         400.392 
       0.337538         521.331          387.69 
       0.343633         506.347         375.609 
       0.349808         493.817         363.649 
       0.355968         484.369         351.762 
       0.362074         469.846         340.005 
       0.368217         465.918         328.317 
       0.374374         456.415         316.934 
       0.380519         438.244         306.117 
       0.386598         432.939         296.076 
       0.392688         423.313         286.735 
        0.39888         412.264         277.929 
       0.405048         405.207         269.732 
       0.411186         402.746         262.012 
       0.417313         396.692         254.597 
       0.423458          385.45         247.346 
       0.429607         375.941         240.243 
       0.435692         369.649          233.35 
       0.441815         363.459         226.588 
       0.447964         354.999         220.033 
       0.454126         350.272         213.741 
       0.460267           345.2          207.77 
       0.466387         339.188         202.132 
        0.47254         334.596          196.75 
       0.478662         326.155         191.637 
       0.484765         322.545         186.744 
       0.490885         318.719         182.004 
       0.497035         313.562         177.376 
       0.503198         311.688         172.859 
       0.509342          303.53         168.481 
       0.515458         299.682         164.254 
       0.521598         293.819         160.149 
       0.527764          290.14         156.173 
       0.533884         289.321         152.381 
           0.54         283.791         148.743 
       0.546137          277.69          145.23 
       0.552299         276.448         141.829 
       0.558452         271.861         138.547 
       0.564573         269.646         135.383 
       0.570708         264.792         132.306 
       0.576825         260.749         129.322 
       0.582926         258.239         126.429 
       0.589034         254.784         123.617 
       0.595184         253.046         120.873 
       0.601379         248.408         118.197 
       0.607522         243.952         115.629 
       0.613639         242.476         113.153 
       0.619772         240.728         110.748 
       0.625918         238.025         108.412 
       0.632068         233.478         106.145 
       0.638161          231.53         103.963 
         0.6443          230.04         101.825 
       0.650464         226.031         99.7365 
       0.656582         224.418         97.7194 
       0.662703         222.645         95.7565 
       0.668861         218.547         93.8367 
       0.675024         218.148         91.9697 
       0.681124         215.296         90.1743 
       0.687237         212.894         88.4249 
       0.693381         210.865         86.7148 
       0.699536         208.541         85.0477 
       0.705665         206.364         83.4319 
       0.711789         204.304         81.8597 
       0.717957         202.089         80.3174 
        0.72409         200.277         78.8235 
       0.730186         200.637         77.3769 
       0.736317          197.17         75.9588 
       0.742472         194.629         74.5712 
       0.748622         191.951         73.2198 
        0.75476         192.646          71.905 
       0.760888         190.332         70.6248 
       0.767043         187.563         69.3711 
       0.773185          186.06         68.1508 
       0.779291         183.638         66.9673 
       0.785407         182.697         65.8105 
       0.791564         181.137         64.6741 
       0.797719         178.618         63.5654 
       0.803834         179.041         62.4899 
       0.809972         177.562         61.4357 
       0.816124         174.985         60.4037 
       0.822261         173.429         59.3983 
       0.828378         173.379          58.419 
       0.834502         170.575         57.4611 
       0.840667          170.19         56.5187 
       0.846816         168.239         55.6002 
       0.852925         166.871          54.708 
       0.859047         165.307         53.8338 
       0.865192         164.707         52.9758 
       0.871341         162.682         52.1362 
       0.877463         161.449         51.3187 
       0.883569         161.311         50.5209 
       0.889708         159.874         49.7361 
       0.895864         158.357          48.966 
       0.902008         156.912          48.214 
       0.908149         155.127         47.4783 
       0.914301          155.09         46.7569 
       0.920448         154.273         46.0512 
       0.926574         152.015         45.3626 
       0.932687         151.713         44.6897 
       0.938823         150.585          44.028 
       0.944975         149.123         43.3784 
       0.951105          147.95         42.7442 
       0.957225         147.595         42.1239 
       0.963368          146.07         41.5139 
       0.969511         144.744         40.9159 
       0.975621         143.654         40.3331 
       0.981748         142.602         39.7602 
       0.987916         141.953         39.1949 
        0.99406         141.145         38.6427 
        1.00019         139.955         38.1024 
        1.00632          139.18          37.573 
        1.01246         138.253         37.0529 
        1.01859         137.349         36.5435 
        1.02471         136.323         36.0444 
        1.03085         135.251          35.553 
        1.03698         134.346         35.0719 
        1.04314         133.738         34.5977 
        1.04929          133.19         34.1334 
        1.05541         132.254         33.6795 
        1.06154         131.319         33.2329 
        1.06769         130.277         32.7937 
        1.07382         129.526          32.364 
        1.07993         128.808         31.9429 
        1.08607         127.786         31.5277 
        1.09222         127.284         31.1195 
        1.09836         126.121          30.719 
        1.10449         125.326         30.3261 
        1.11063         124.617         29.9396 
        1.11677          123.88         29.5601 
         1.1229         122.931         29.1878 
        1.12903         122.474         28.8216 
        1.13518         121.678         28.4614 
        1.14131         120.953         28.1077 
        1.14745         120.225         27.7601 
        1.15359         118.919         27.4184 
        1.15973         118.621         27.0823 
        1.16584          117.91         26.7534 
        1.17197         117.298         26.4295 
        1.17811         116.334           26.11 
        1.18424         115.715         25.7967 
        1.19038         115.382         25.4876 
        1.19652         114.464         25.1838 
        1.20267         113.744         24.8849 
        1.20881         113.073         24.5909 
        1.21495         112.571         24.3022 
        1.22108         111.918         24.0182 
         1.2272         110.974         23.7394 
        1.23334         110.743         23.4645 
        1.23949         110.102         23.1932 
        1.24562         109.185          22.927 
        1.25174         108.478         22.6654 
        1.25789         108.212         22.4071 
        1.26402         107.559         22.1533 
        1.27014         106.989         21.9041 
        1.27628         105.917          21.658 
        1.28244         105.803         21.4152 
        1.28858         104.901         21.1765 
        1.29471         104.307          20.942 
        1.30084         103.665         20.7112 
        1.30697         103.486         20.4836 
        1.31312         102.689         20.2591 
        1.31925         102.027         20.0387 
        1.32537         101.598         19.8218 
        1.33151         101.346         19.6074 
        1.33765         100.405         19.3962 
        1.34378         100.183         19.1886 
        1.34992         99.7477         18.9839 
        1.35606         98.9737         18.7818 
         1.3622         98.7409          18.583 
        1.36833         97.7476         18.3875 
        1.37445         97.3102         18.1949 
        1.38059         96.9525         18.0046 
        1.38675          96.115         17.8165 
        1.39288         95.8904         17.6318 
        1.39901         94.9877         17.4499 
        1.40515         94.7657         17.2701 
         1.4113         94.3396         17.0929 
        1.41742         93.6351         16.9189 
        1.42355         93.3191          16.747 
         1.4297          92.697          16.577 
        1.43585         92.1424         16.4094 
        1.44198         91.6937         16.2448 
        1.44809         91.0812         16.0827 
        1.45423         90.7748         15.9223 
        1.46036         90.0733         15.7643 
        1.46649         89.6386         15.6084 
        1.47263         89.3289         15.4546 
        1.47877         88.8553         15.3028 
        1.48491         88.3068         15.1529 
        1.49104         87.5852         15.0053 
        1.49718         87.4494         14.8596 
        1.50333         86.9193         14.7156 
        1.50947         86.6641         14.5737 
         1.5156         86.2476          14.434 
        1.52172          85.579         14.2961 
        1.52787         85.0966         14.1597 
          1.534         84.7783         14.0253 
        1.54013         84.4694         13.8928 
        1.54627         83.7101         13.7618 
        1.55241         83.3623         13.6324 
        1.55855          82.983         13.5049 
        1.56467         82.2156         13.3793 
         1.5708         82.0618          13.255 
        1.57695         81.6705         13.1322 
        1.58308         81.2575         13.0111 
        1.58922         80.9131         12.8915 
        1.59535         80.6377         12.7735 
         1.6015           80.28         12.6567 
        1.60764         79.7853         12.5415 
        1.61376         79.2604         12.4281 
        1.61989         78.6833         12.3159 
        1.62604         78.4748         12.2049 
        1.63218         78.1997         12.0954 
        1.63831         77.7496         11.9874 
        1.64444          77.451         11.8807 
        1.65059         76.9576         11.7751 
        1.65673          76.436         11.6708 
        1.66285         75.9912         11.5682 
        1.66898         75.5802         11.4667 
        1.67512         75.3756         11.3662 
        1.68127         75.0434         11.2669 
         1.6874         74.5455         11.1689 
        1.69353         74.2031         11.0722 
        1.69967          73.932         10.9764 
        1.70581         73.5335         10.8818 
        1.71193         73.1251         10.7887 
        1.71806         72.6199         10.6964 
        1.72421         72.4673         10.6051 
        1.73035         72.2097         10.5149 
        1.73649         71.6784         10.4258 
        1.74262         71.1441         10.3378 
        1.74876          70.982         10.2507 
        1.75489         70.4694         10.1649 
        1.76101         70.1332           10.08 
        1.76715         70.0138         9.99602 
        1.77329         69.4417         9.91288 
        1.77943         69.2683         9.83065 
        1.78557         68.9847         9.74948 
        1.79171         68.5797         9.66921 
        1.79785         68.2076         9.58983 
        1.80399         67.8584         9.51136 
        1.81012         67.5281         9.43388 
        1.81625         67.2831         9.35729 
        1.82239         66.9787         9.28145 
        1.82853         66.4808         9.20648 
        1.83466         66.2577         9.13241 
        1.84078         65.9248         9.05924 
        1.84692         65.7076         8.98675 
        1.85306         65.3305         8.91497 
         1.8592         65.0678         8.84409 
        1.86533         64.6282         8.77402 
        1.87147         64.3442         8.70462 
        1.87761         63.9751         8.63596 
        1.88375         63.6499         8.56811 
        1.88988         63.3809         8.50107 
        1.89601         63.0203          8.4347 
        1.90215         62.6811           8.369 
        1.90829         62.5209         8.30403 
        1.91442         62.1523         8.23974 
        1.92056         61.8936         8.17619 
         1.9267         61.5696         8.11324 
        1.93284         61.3793         8.05092 
        1.93897         61.0665         7.98938 
        1.94509         60.6431         7.92861 
        1.95123         60.3983         7.86832 
        1.95737         60.0685         7.80861 
        1.96349         59.8336         7.74967 
        1.96964         59.4954         7.69118 
        1.97578         59.1992         7.63326 
        1.98192         58.9356         7.57606 
        1.98805         58.6115         7.51943 
        1.99419          58.347         7.46338 
        2.00033          58.105         7.40788 
        2.00647         57.8549         7.35296 
         2.0126         57.4894         7.29869 
        2.01874         57.3742         7.24488 
        2.02488          57.015         7.19157 
        2.03101         56.7493         7.13889 
        2.03714         56.5588          7.0868 
        2.04328         56.1855         7.03516 
        2.04941         55.8272         6.98408 
        2.05554         55.7727         6.93355 
        2.06167         55.5728         6.88345 
        2.06781         55.0619         6.83383 
        2.07396         54.8028         6.78464 
        2.08009         54.6664         6.73601 
        2.08622         54.3634         6.68792 
        2.09237         54.0912          6.6402 
        2.09851         53.8109         6.59294 
        2.10464         53.5866         6.54622 
        2.11077         53.3795         6.50001 
        2.11691         53.0502         6.45414 
        2.12305          52.775         6.40872 
        2.12918         52.5556         6.36384 
        2.13531         52.3479         6.31938 
        2.14145         52.0224         6.27525 
         2.1476         51.8617          6.2315 
        2.15372         51.7073         6.18837 
        2.15985         51.3099         6.14562 
        2.16599         51.0791         6.10314 
        2.17213         50.8696         6.06112 
        2.17827         50.6463         6.01949 
         2.1844         50.3556          5.9783 
        2.19054         50.1759         5.93748 
        2.19666         49.8632          5.8971 
         2.2028         49.6392         5.85706 
        2.20893         49.3774         5.81737 
        2.21508         49.1367           5.778 
        2.22122         48.9478         5.73899 
        2.22736         48.6414         5.70042 
        2.23349         48.5418         5.66221 
        2.23962         48.2693         5.62433 
        2.24577         48.0415         5.58676 
         2.2519         47.7711         5.54959 
        2.25802         47.6204         5.51282 
        2.26417         47.3997         5.47628 
        2.27031         47.1278         5.44003 
        2.27644         47.0113         5.40422 
        2.28257         46.5819         5.36873 
        2.28872         46.6269          5.3335 
        2.29486         46.3098         5.29859 
        2.30099         45.9914         5.26406 
        2.30712         45.9139         5.22983 
        2.31326         45.6021         5.19584 
         2.3194         45.3628         5.16217 
        2.32553         45.2851         5.12886 
        2.33166         44.9235         5.09586 
         2.3378         44.7328          5.0631 
        2.34394         44.5299         5.03062 
        2.35007         44.3281         4.99847 
        2.35619         44.2376         4.96665 
        2.36233         43.8553         4.93502 
        2.36848         43.7623         4.90361 
        2.37462         43.4819         4.87253 
        2.38075         43.3955         4.84175 
        2.38689         43.2287         4.81122 
        2.39303          42.982         4.78095 
        2.39916         42.7297         4.75097 
        2.40529         42.5618         4.72126 
        2.41143         42.3374         4.69177 
        2.41757         42.2119         4.66253 
         2.4237         42.0203         4.63358 
        2.42983         41.7604         4.60489 
        2.43598         41.5755         4.57636 
        2.44211         41.4106         4.54812 
        2.44823         41.1769         4.52019 
        2.45437         41.0565         4.49241 
        2.46052         40.7576         4.46484 
        2.46665         40.6248         4.43755 
        2.47279         40.3861          4.4105 
        2.47892         40.2516         4.38366 
        2.48507         40.1382         4.35701 
         2.4912         39.8415         4.33064 
