# k  (h/Mpc)    Pcb(k)  (Mpc/h)^3    Pcb_linear(k)  (Mpc/h)^3
     0.00783031         2214.74         2228.78 
       0.013688         2778.28         2813.49 
       0.019231         2907.75         2925.03 
      0.0249154         2790.02         2788.21 
      0.0312784          2489.9         2496.54 
      0.0375637         2170.48         2181.88 
      0.0433917         1926.41         1925.12 
      0.0492413         1715.81         1721.63 
      0.0555754         1563.01         1559.65 
      0.0619321         1422.65         1440.62 
       0.067871         1343.53         1349.15 
      0.0738098         1257.83         1261.04 
      0.0800417         1162.76         1162.71 
      0.0862327         1054.18         1057.95 
      0.0921407         953.736         956.501 
      0.0982031         861.506         858.637 
       0.104506         767.466         770.795 
       0.110769         700.327         701.329 
       0.116806         657.075         650.872 
       0.122832         614.462         613.363 
       0.129052          586.59         583.022 
       0.135211          562.65         556.042 
       0.141259         531.233         528.548 
       0.147318         496.599         498.101 
       0.153489         465.972         464.332 
       0.159709         435.223         429.401 
       0.165845         397.009         396.587 
       0.171974         376.622         367.603 
       0.178125         353.247         343.495 
       0.184229         330.772         324.543 
        0.19034         319.473          309.64 
       0.196428         307.128          297.41 
       0.202534         290.938         286.226 
       0.208729          283.26         274.706 
       0.214876         272.652           262.4 
       0.220989         255.005         249.253 
       0.227147         246.483         235.579 
        0.23329         234.444         222.247 
       0.239377         224.261          210.04 
       0.245482         212.154         199.263 
       0.251667         201.891         189.996 
       0.257832         197.523         182.236 
       0.263955          187.72           175.6 
       0.270079         181.402         169.565 
        0.27624         174.082          163.67 
       0.282372         168.695         157.699 
        0.28843         165.918         151.603 
       0.294538         158.425         145.328 
       0.300721         151.089          139.04 
        0.30691         147.441         133.022 
       0.313033         141.054         127.525 
       0.319153         138.006         122.568 
       0.325316         132.084         118.122 
        0.33145         127.848         114.149 
       0.337538         124.144         110.528 
       0.343633         120.731         107.084 
       0.349808         116.924         103.674 
       0.355968         113.535         100.285 
       0.362074         111.256         96.9334 
       0.368217         108.069         93.6014 
       0.374374         105.514         90.3561 
       0.380519         100.899         87.2724 
       0.386598         98.1658         84.4095 
       0.392688         95.3043         81.7466 
        0.39888         93.4789         79.2362 
       0.405048         91.3192         76.8992 
       0.411186         89.1399         74.6984 
       0.417313         86.7394         72.5841 
       0.423458         84.4212         70.5173 
       0.429607         82.9535         68.4919 
       0.435692         81.5037         66.5271 
       0.441815         78.5419         64.5992 
       0.447964         76.2292         62.7303 
       0.454126         74.8356         60.9365 
       0.460267         74.1465         59.2345 
       0.466387         72.1269         57.6271 
        0.47254         71.1515         56.0926 
       0.478662         68.8289          54.635 
       0.484765         67.5367         53.2399 
       0.490885          65.704         51.8887 
       0.497035          64.929         50.5692 
       0.503198         63.3626         49.2815 
       0.509342         61.7461         48.0334 
       0.515458         61.0063         46.8283 
       0.521598         59.5449         45.6578 
       0.527764         58.7691         44.5244 
       0.533884         57.7022         43.4434 
           0.54         56.4512         42.4062 
       0.546137         54.8443         41.4047 
       0.552299         53.9603         40.4349 
       0.558452         52.8923         39.4992 
       0.564573         52.5254         38.5974 
       0.570708         51.0368         37.7199 
       0.576825         50.4537         36.8694 
       0.582926         49.6769         36.0446 
       0.589034         48.7365         35.2428 
       0.595184         48.0975         34.4604 
       0.601379         46.8259         33.6976 
       0.607522         46.1551         32.9655 
       0.613639         45.5237         32.2596 
       0.619772         44.7392         31.5739 
       0.625918         43.9189          30.908 
       0.632068         43.5577         30.2616 
       0.638161         42.6824         29.6395 
         0.6443         42.1112           29.03 
       0.650464         41.1131         28.4346 
       0.656582         40.8821         27.8595 
       0.662703         40.4172         27.2999 
       0.668861         39.3842         26.7526 
       0.675024          39.015         26.2203 
       0.681124          38.689         25.7084 
       0.687237         37.9175         25.2097 
       0.693381         37.2607         24.7221 
       0.699536         37.0777         24.2469 
       0.705665         36.4067         23.7862 
       0.711789         35.8076          23.338 
       0.717957          35.151         22.8983 
        0.72409         34.8442         22.4724 
       0.730186         34.6797         22.0599 
       0.736317          34.007         21.6556 
       0.742472         33.5887           21.26 
       0.748622         33.0818         20.8748 
        0.75476         32.3436         20.4999 
       0.760888         32.2646          20.135 
       0.767043         31.7291         19.7775 
       0.773185         31.4358         19.4296 
       0.779291         31.0772         19.0922 
       0.785407          30.581         18.7624 
       0.791564          30.457         18.4384 
       0.797719          29.836         18.1223 
       0.803834          29.683         17.8157 
       0.809972         29.1633         17.5152 
       0.816124         28.8727         17.2209 
       0.822261          28.568         16.9343 
       0.828378         28.3011         16.6551 
       0.834502         28.0175          16.382 
       0.840667         27.7333         16.1133 
       0.846816         27.1529         15.8515 
       0.852925         27.1004         15.5971 
       0.859047         26.8139         15.3479 
       0.865192         26.4422         15.1033 
       0.871341         26.1171         14.8639 
       0.877463         25.8698         14.6308 
       0.883569         25.7384         14.4034 
       0.889708         25.3542         14.1796 
       0.895864         25.0428         13.9601 
       0.902008         24.7669         13.7457 
       0.908149         24.5011          13.536 
       0.914301         24.3822         13.3303 
       0.920448         24.0325         13.1291 
       0.926574         23.8277         12.9328 
       0.932687           23.56         12.7409 
       0.938823         23.2761         12.5523 
       0.944975         23.1041         12.3671 
       0.951105         22.8825         12.1863 
       0.957225          22.748         12.0094 
       0.963368         22.4095         11.8355 
       0.969511         22.2078          11.665 
       0.975621         22.0173         11.4989 
       0.981748         21.7563         11.3355 
       0.987916         21.6299         11.1744 
        0.99406         21.3744          11.017 
        1.00019         21.2334         10.8629 
        1.00632         21.0549          10.712 
        1.01246         20.8743         10.5637 
        1.01859         20.6306         10.4185 
        1.02471         20.4403         10.2762 
        1.03085         20.3613         10.1361 
        1.03698          20.181         9.99892 
        1.04314         19.9443         9.86372 
        1.04929         19.7235         9.73135 
        1.05541         19.6539         9.60196 
        1.06154         19.4971         9.47462 
        1.06769         19.3084         9.34942 
        1.07382         19.0662          9.2269 
        1.07993         18.9158         9.10687 
        1.08607         18.8322         8.98849 
        1.09222         18.6215          8.8721 
        1.09836         18.5121         8.75793 
        1.10449         18.3324          8.6459 
        1.11063         18.2358         8.53572 
        1.11677         18.1428         8.42751 
         1.1229         17.9604         8.32138 
        1.12903         17.8269         8.21698 
        1.13518         17.6265          8.1143 
        1.14131          17.546         8.01344 
        1.14745         17.3107         7.91435 
        1.15359           17.18         7.81693 
        1.15973         17.0498         7.72111 
        1.16584         16.9235         7.62734 
        1.17197         16.7771         7.53499 
        1.17811         16.6657          7.4439 
        1.18424          16.556         7.35458 
        1.19038         16.4743         7.26647 
        1.19652         16.3164         7.17984 
        1.20267         16.2195         7.09463 
        1.20881         16.0489         7.01083 
        1.21495         15.9393         6.92852 
        1.22108         15.8988         6.84755 
         1.2272          15.763         6.76807 
        1.23334           15.67         6.68967 
        1.23949         15.5331         6.61234 
        1.24562         15.3965         6.53645 
        1.25174         15.3287         6.46187 
        1.25789         15.1823         6.38823 
        1.26402         15.1313         6.31587 
        1.27014           15.05         6.24482 
        1.27628         14.8612         6.17465 
        1.28244         14.8624         6.10544 
        1.28858         14.7081         6.03738 
        1.29471         14.5329         5.97051 
        1.30084          14.457         5.90473 
        1.30697         14.4437         5.83984 
        1.31312          14.292         5.77584 
        1.31925         14.2234           5.713 
        1.32537         14.1231         5.65116 
        1.33151         14.0295         5.59002 
        1.33765         13.9424         5.52983 
        1.34378         13.9005         5.47064 
        1.34992         13.7745         5.41229 
        1.35606         13.6506         5.35465 
         1.3622         13.5571         5.29797 
        1.36833          13.523         5.24224 
        1.37445         13.4447         5.18734 
        1.38059         13.3607         5.13307 
        1.38675         13.2709         5.07944 
        1.39288         13.1458          5.0268 
        1.39901         13.0954         4.97492 
        1.40515         13.0075         4.92367 
         1.4113         12.9152         4.87316 
        1.41742         12.8697         4.82355 
        1.42355         12.7481         4.77454 
         1.4297          12.701         4.72607 
        1.43585          12.638         4.67829 
        1.44198         12.5752         4.63135 
        1.44809         12.4885         4.58515 
        1.45423         12.3953         4.53941 
        1.46036         12.3348         4.49438 
        1.46649         12.2551         4.44994 
        1.47263         12.2106         4.40607 
        1.47877         12.1284         4.36281 
        1.48491         12.0685         4.32007 
        1.49104         11.9766         4.27799 
        1.49718         11.9361         4.23644 
        1.50333         11.8641         4.19538 
        1.50947         11.7895         4.15495 
         1.5156          11.745         4.11511 
        1.52172         11.6706          4.0758 
        1.52787         11.6141         4.03692 
          1.534         11.5518          3.9986 
        1.54013         11.4939         3.96082 
        1.54627         11.4148         3.92345 
        1.55241         11.3287         3.88657 
        1.55855         11.3152         3.85021 
        1.56467         11.2447         3.81443 
         1.5708         11.1977         3.77899 
        1.57695         11.1118         3.74395 
        1.58308         11.0437         3.70944 
        1.58922         11.0061         3.67535 
        1.59535         10.9402         3.64169 
         1.6015         10.8482         3.60841 
        1.60764         10.8198         3.57557 
        1.61376         10.7867         3.54322 
        1.61989         10.6925         3.51125 
        1.62604           10.67          3.4796 
        1.63218         10.6205         3.44837 
        1.63831         10.5478         3.41759 
        1.64444         10.4711         3.38717 
        1.65059         10.4235         3.35705 
        1.65673         10.3982         3.32734 
        1.66285         10.3401         3.29806 
        1.66898         10.2999         3.26913 
        1.67512         10.2382         3.24049 
        1.68127         10.1569         3.21217 
         1.6874         10.1388         3.18425 
        1.69353         10.0693         3.15668 
        1.69967         10.0336         3.12936 
        1.70581          9.9733         3.10239 
        1.71193         9.94508         3.07583 
        1.71806         9.90004         3.04953 
        1.72421         9.82975         3.02349 
        1.73035          9.7939         2.99778 
        1.73649         9.75951         2.97237 
        1.74262         9.66148         2.94728 
        1.74876         9.67389         2.92247 
        1.75489         9.61345         2.89799 
        1.76101         9.54383          2.8738 
        1.76715         9.52801         2.84985 
        1.77329         9.48356         2.82615 
        1.77943         9.40966          2.8027 
        1.78557         9.40968         2.77956 
        1.79171         9.35464         2.75668 
        1.79785          9.3231         2.73405 
        1.80399         9.23921         2.71168 
        1.81012         9.22379         2.68958 
        1.81625         9.15648         2.66775 
        1.82239         9.12592         2.64613 
        1.82853         9.07327         2.62475 
        1.83466         9.01721         2.60364 
        1.84078         9.00394         2.58277 
        1.84692         8.96909         2.56211 
        1.85306         8.92938         2.54164 
         1.8592          8.8953         2.52144 
        1.86533         8.85919         2.50146 
        1.87147         8.80679         2.48168 
        1.87761          8.7816          2.4621 
        1.88375         8.73164         2.44276 
        1.88988         8.68511         2.42364 
        1.89601         8.67122         2.40472 
        1.90215          8.6066         2.38599 
        1.90829          8.5832         2.36747 
        1.91442         8.53586         2.34914 
        1.92056         8.53272         2.33102 
         1.9267         8.46642         2.31307 
        1.93284         8.46135         2.29531 
        1.93897         8.40164         2.27776 
        1.94509         8.35136         2.26043 
        1.95123         8.34397         2.24325 
        1.95737         8.30936         2.22622 
        1.96349         8.24213         2.20942 
        1.96964         8.21938         2.19274 
        1.97578          8.1912         2.17623 
        1.98192         8.15002         2.15992 
        1.98805         8.12451         2.14378 
        1.99419         8.10051          2.1278 
        2.00033         8.05328         2.11198 
        2.00647         8.03381         2.09632 
         2.0126         7.99981         2.08085 
        2.01874         7.95324         2.06551 
        2.02488         7.93101         2.05031 
        2.03101         7.88703         2.03529 
        2.03714         7.84887         2.02044 
        2.04328         7.82489         2.00571 
        2.04941         7.78312         1.99115 
        2.05554         7.77329         1.97675 
        2.06167         7.74108         1.96246 
        2.06781         7.70024         1.94832 
        2.07396         7.67417         1.93429 
        2.08009         7.63467         1.92043 
        2.08622         7.62557         1.90672 
        2.09237         7.60007         1.89311 
        2.09851         7.54301         1.87964 
        2.10464         7.53046         1.86632 
        2.11077         7.49028         1.85314 
        2.11691         7.48543         1.84007 
        2.12305         7.43507         1.82712 
        2.12918         7.40946         1.81432 
        2.13531         7.38231         1.80165 
        2.14145         7.35684         1.78907 
         2.1476         7.33142         1.77659 
        2.15372         7.29412          1.7643 
        2.15985         7.27622         1.75211 
        2.16599          7.2501            1.74 
        2.17213         7.24031         1.72802 
        2.17827         7.18936         1.71615 
         2.1844         7.16915         1.70441 
        2.19054          7.1473         1.69277 
        2.19666         7.11489         1.68126 
         2.2028         7.08048         1.66984 
        2.20893         7.06582         1.65852 
        2.21508         7.04063          1.6473 
        2.22122          6.9893         1.63618 
        2.22736         6.97743         1.62518 
        2.23349         6.95284         1.61429 
        2.23962         6.93762         1.60349 
        2.24577         6.90059         1.59278 
         2.2519         6.89567         1.58218 
        2.25802         6.83049          1.5717 
        2.26417         6.82883         1.56128 
        2.27031         6.79812         1.55095 
        2.27644         6.77458         1.54074 
        2.28257         6.74444         1.53062 
        2.28872         6.73447         1.52057 
        2.29486         6.70597         1.51062 
        2.30099         6.68444         1.50078 
        2.30712         6.65415         1.49102 
        2.31326         6.62965         1.48133 
         2.3194         6.60467         1.47173 
        2.32553          6.5762         1.46223 
        2.33166         6.55764         1.45282 
         2.3378         6.53912         1.44348 
        2.34394         6.51547         1.43422 
        2.35007         6.48354         1.42506 
        2.35619          6.4751         1.41599 
        2.36233         6.43526         1.40697 
        2.36848         6.42369         1.39801 
        2.37462         6.40097         1.38915 
        2.38075         6.38773         1.38038 
        2.38689         6.36526         1.37167 
        2.39303         6.32792         1.36304 
        2.39916         6.31751          1.3545 
        2.40529         6.28826         1.34602 
        2.41143         6.27252         1.33762 
        2.41757         6.25168         1.32928 
         2.4237         6.22602         1.32103 
        2.42983         6.21491         1.31285 
        2.43598          6.1955         1.30472 
        2.44211         6.17375         1.29666 
        2.44823         6.13708          1.2887 
        2.45437         6.12397         1.28078 
        2.46052         6.10728         1.27292 
        2.46665         6.09074         1.26514 
        2.47279         6.06241         1.25743 
        2.47892         6.03676         1.24978 
        2.48507         6.02479         1.24218 
         2.4912         6.00182         1.23466 
