# k  (h/Mpc)    Pcb(k)  (Mpc/h)^3    Pcb_linear(k)  (Mpc/h)^3
     0.00783031         14446.2         14652.2 
       0.013688           19111         18949.6 
       0.019231         19961.9           19967 
      0.0249154         18722.7         19182.6 
      0.0312784         16999.1         17275.6 
      0.0375637         15094.5         15197.6 
      0.0433917         13166.5         13530.3 
      0.0492413           12043         12243.3 
      0.0555754         10762.8         11240.4 
      0.0619321           10375         10490.4 
       0.067871         9447.13         9867.51 
      0.0738098         8809.98         9212.32 
      0.0800417         7959.33         8446.93 
      0.0862327         7295.35         7634.62 
      0.0921407          6697.3         6875.54 
      0.0982031         6007.31         6180.99 
       0.104506         5630.65         5596.54 
       0.110769         5201.39         5164.25 
       0.116806         4886.67         4864.25 
       0.122832         4662.74         4637.23 
       0.129052         4348.35         4430.51 
       0.135211         4146.95         4214.29 
       0.141259         3987.49         3972.07 
       0.147318          3772.8         3702.34 
       0.153489         3466.47          3418.4 
       0.159709         3282.76         3148.02 
       0.165845         3166.35         2917.18 
       0.171974         2984.08         2732.03 
       0.178125         2840.58         2590.05 
       0.184229         2722.23         2481.95 
        0.19034            2588         2391.34 
       0.196428         2543.89         2303.93 
       0.202534         2450.67         2208.79 
       0.208729         2351.44         2100.91 
       0.214876         2261.57         1985.52 
       0.220989         2189.07         1869.69 
       0.227147         2097.69         1760.11 
        0.23329         2018.29         1664.11 
       0.239377         1993.22         1584.76 
       0.245482         1874.91         1519.86 
       0.251667         1867.87         1465.17 
       0.257832         1797.75         1416.53 
       0.263955         1741.29         1369.15 
       0.270079         1686.99         1319.48 
        0.27624          1669.5          1266.3 
       0.282372         1600.96         1211.21 
        0.28843         1599.49         1157.09 
       0.294538         1524.55         1105.38 
       0.300721         1515.94         1058.04 
        0.30691         1460.77         1016.55 
       0.313033         1432.56         980.932 
       0.319153         1415.75         949.455 
       0.325316         1368.42         920.182 
        0.33145         1340.79         891.844 
       0.337538         1319.28         863.457 
       0.343633         1293.22         834.392 
       0.349808         1253.75         804.657 
       0.355968         1245.05          775.38 
       0.362074         1234.69         747.662 
       0.368217         1196.77         721.693 
       0.374374         1156.31          697.93 
       0.380519         1159.38         676.381 
       0.386598         1129.01         656.763 
       0.392688            1124         638.303 
        0.39888            1094         620.163 
       0.405048         1083.19         602.339 
       0.411186         1068.01         584.717 
       0.417313         1046.02         567.246 
       0.423458          1030.1          550.09 
       0.429607            1017         533.561 
       0.435692         998.887         518.013 
       0.441815         992.534         503.309 
       0.447964         971.335         489.497 
       0.454126         964.854         476.455 
       0.460267         942.898         464.084 
       0.466387         930.436         452.214 
        0.47254         927.098          440.58 
       0.478662         917.009         429.209 
       0.484765         894.659         418.102 
       0.490885         889.576         407.244 
       0.497035         870.398         396.667 
       0.503198         866.635         386.471 
       0.509342         856.128         376.761 
       0.515458          853.21         367.556 
       0.521598          834.04         358.717 
       0.527764         817.707         350.188 
       0.533884          817.91         342.013 
           0.54         810.273         334.092 
       0.546137         802.133         326.348 
       0.552299         793.181         318.755 
       0.558452         787.059         311.366 
       0.564573         776.543          304.23 
       0.570708         769.591         297.316 
       0.576825         748.993         290.664 
       0.582926         753.575         284.263 
       0.589034         746.373         278.072 
       0.595184         739.205         272.049 
       0.601379         729.947         266.179 
       0.607522         720.002         260.534 
       0.613639         721.474         255.066 
       0.619772          705.65         249.724 
       0.625918         700.935         244.507 
       0.632068         693.351         239.425 
       0.638161         691.003         234.534 
         0.6443         678.626         229.753 
       0.650464         677.673         225.101 
       0.656582         673.209         220.623 
       0.662703         669.581         216.272 
       0.668861         658.294         212.017 
       0.675024         653.037         207.873 
       0.681124         649.899         203.878 
       0.687237          644.69         199.979 
       0.693381         637.454         196.164 
       0.699536         626.324         192.441 
       0.705665         627.312         188.831 
       0.711789         622.741         185.319 
       0.717957         617.186         181.874 
        0.72409         614.144         178.537 
       0.730186         605.226         175.305 
       0.736317         602.342         172.136 
       0.742472         599.392         169.035 
       0.748622         593.013         166.015 
        0.75476         584.088         163.075 
       0.760888         579.961         160.213 
       0.767043         578.862         157.408 
       0.773185         573.574         154.677 
       0.779291         568.909         152.027 
       0.785407         563.555         149.436 
       0.791564         558.137          146.89 
       0.797719         555.932         144.404 
       0.803834         551.023         141.993 
       0.809972         548.005         139.629 
       0.816124         547.024         137.313 
       0.822261         538.851         135.057 
       0.828378         536.097         132.859 
       0.834502         530.798         130.708 
       0.840667         526.861         128.592 
       0.846816         524.169         126.529 
       0.852925         519.786         124.524 
       0.859047         519.487         122.559 
       0.865192         512.783         120.631 
       0.871341          508.52         118.743 
       0.877463         508.063         116.905 
       0.883569         502.499          115.11 
       0.889708          500.37         113.345 
       0.895864         497.793         111.612 
       0.902008         493.912          109.92 
       0.908149         488.173         108.264 
       0.914301         485.878          106.64 
       0.920448         483.396         105.051 
       0.926574         475.507           103.5 
       0.932687         475.334         101.984 
       0.938823         470.749         100.493 
       0.944975         471.148         99.0289 
       0.951105         465.014         97.5995 
       0.957225         461.918         96.2009 
       0.963368         457.861         94.8252 
       0.969511         456.489         93.4766 
       0.975621         453.498         92.1618 
       0.981748         450.787          90.869 
       0.987916         447.991          89.593 
        0.99406         440.692         88.3466 
        1.00019         439.832         87.1265 
        1.00632         437.678         85.9307 
        1.01246         434.291         84.7558 
        1.01859         434.087         83.6048 
        1.02471         428.306         82.4769 
        1.03085         426.675          81.366 
        1.03698         424.993         80.2781 
        1.04314         421.022         79.2057 
        1.04929         416.159         78.1555 
        1.05541         417.337         77.1287 
        1.06154         411.286         76.1179 
        1.06769         408.767         75.1239 
        1.07382         406.544          74.151 
        1.07993         404.219         73.1976 
        1.08607         403.078         72.2573 
        1.09222         399.123         71.3326 
        1.09836         396.715         70.4253 
        1.10449         393.277          69.535 
        1.11063         388.939         68.6592 
        1.11677         389.931         67.7989 
         1.1229         387.415          66.955 
        1.12903          384.08         66.1248 
        1.13518         380.066         65.3081 
        1.14131         379.024         64.5057 
        1.14745         375.885         63.7174 
        1.15359         374.117         62.9422 
        1.15973         371.746         62.1796 
        1.16584          369.19         61.4332 
        1.17197         368.058         60.6981 
        1.17811         364.557         59.9729 
        1.18424         361.261         59.2616 
        1.19038           359.6           58.56 
        1.19652         357.771           57.87 
        1.20267         355.833         57.1912 
        1.20881         354.225         56.5236 
        1.21495         351.164         55.8677 
        1.22108         349.361         55.2223 
         1.2272         346.642         54.5887 
        1.23334         344.563         53.9637 
        1.23949         342.484          53.347 
        1.24562         341.105         52.7417 
        1.25174         338.294         52.1468 
        1.25789         334.964         51.5593 
        1.26402         333.241         50.9819 
        1.27014          331.24         50.4149 
        1.27628         329.271         49.8548 
        1.28244         329.262         49.3022 
        1.28858         325.394         48.7588 
        1.29471         323.534         48.2248 
        1.30084         321.815         47.6994 
        1.30697         319.798          47.181 
        1.31312         316.554         46.6696 
        1.31925         315.902         46.1675 
        1.32537         314.753         45.6733 
        1.33151         311.291         45.1846 
        1.33765         309.278         44.7034 
        1.34378          308.24         44.2302 
        1.34992         306.117         43.7635 
        1.35606         304.673         43.3026 
         1.3622          302.55         42.8492 
        1.36833         300.588         42.4035 
        1.37445         298.922         41.9643 
        1.38059         296.117           41.53 
        1.38675         294.858         41.1009 
        1.39288         293.255         40.6796 
        1.39901         292.151         40.2644 
        1.40515         289.991         39.8541 
         1.4113         288.523         39.4497 
        1.41742         286.193         39.0525 
        1.42355         284.471           38.66 
         1.4297         282.684         38.2718 
        1.43585         281.289         37.8891 
        1.44198         279.737         37.5131 
        1.44809          277.34         37.1429 
        1.45423         275.643         36.7764 
        1.46036         274.581         36.4156 
        1.46649          272.34         36.0594 
        1.47263         270.968         35.7078 
        1.47877         269.076         35.3611 
        1.48491         267.085         35.0184 
        1.49104         266.259          34.681 
        1.49718          264.17         34.3478 
        1.50333         262.801         34.0185 
        1.50947         261.265         33.6942 
         1.5156         259.061         33.3746 
        1.52172         258.371         33.0592 
        1.52787          256.26         32.7472 
          1.534         255.381         32.4396 
        1.54013         252.758         32.1364 
        1.54627         251.971         31.8365 
        1.55241         250.489         31.5403 
        1.55855         248.661         31.2484 
        1.56467          247.31          30.961 
         1.5708         246.684         30.6764 
        1.57695         244.412          30.395 
        1.58308         243.208         30.1178 
        1.58922         240.339         29.8438 
        1.59535         239.422         29.5734 
         1.6015          238.82          29.306 
        1.60764          236.97          29.042 
        1.61376         235.781          28.782 
        1.61989          234.28          28.525 
        1.62604         232.688         28.2706 
        1.63218         231.597         28.0194 
        1.63831         229.949         27.7719 
        1.64444         229.171         27.5273 
        1.65059         227.604         27.2851 
        1.65673         226.161         27.0461 
        1.66285         224.553         26.8106 
        1.66898          223.26         26.5778 
        1.67512          222.46         26.3474 
        1.68127         220.082         26.1195 
         1.6874         219.018         25.8948 
        1.69353         218.024         25.6729 
        1.69967         216.504         25.4531 
        1.70581         215.551          25.236 
        1.71193           213.9         25.0222 
        1.71806         213.186         24.8105 
        1.72421         211.496         24.6008 
        1.73035         210.817         24.3938 
        1.73649         209.438         24.1892 
        1.74262         208.059         23.9871 
        1.74876         206.605         23.7872 
        1.75489         205.458         23.5901 
        1.76101         204.191         23.3952 
        1.76715          203.29         23.2022 
        1.77329          202.18         23.0112 
        1.77943         201.137         22.8223 
        1.78557         199.567         22.6357 
        1.79171          198.68         22.4513 
        1.79785         197.069         22.2688 
        1.80399         196.258         22.0885 
        1.81012         195.084         21.9104 
        1.81625         194.067         21.7343 
        1.82239           192.7         21.5599 
        1.82853         192.192         21.3875 
        1.83466          190.62         21.2172 
        1.84078         189.735         21.0489 
        1.84692         188.154         20.8822 
        1.85306         187.592         20.7171 
         1.8592         186.291          20.554 
        1.86533         185.537         20.3928 
        1.87147         184.099         20.2331 
        1.87761         183.328         20.0751 
        1.88375         181.714         19.9189 
        1.88988         180.352         19.7646 
        1.89601         180.137         19.6119 
        1.90215         178.914         19.4606 
        1.90829         177.743          19.311 
        1.91442         176.683          19.163 
        1.92056         176.015         19.0167 
         1.9267         174.443         18.8717 
        1.93284         173.559         18.7282 
        1.93897         172.897         18.5865 
        1.94509         171.853         18.4465 
        1.95123         170.936         18.3076 
        1.95737         169.928         18.1701 
        1.96349         168.857         18.0343 
        1.96964         167.805         17.8995 
        1.97578         166.958         17.7661 
        1.98192         166.003         17.6343 
        1.98805         164.821         17.5038 
        1.99419         164.047         17.3746 
        2.00033         163.129         17.2467 
        2.00647         162.324         17.1201 
         2.0126         161.045          16.995 
        2.01874         160.725         16.8709 
        2.02488         159.761          16.748 
        2.03101         158.282         16.6266 
        2.03714         157.738         16.5064 
        2.04328         156.686         16.3873 
        2.04941           156.1         16.2695 
        2.05554         154.771          16.153 
        2.06167         154.233         16.0374 
        2.06781          153.21         15.9229 
        2.07396         152.279         15.8094 
        2.08009         151.762         15.6972 
        2.08622         150.575         15.5863 
        2.09237         149.754         15.4761 
        2.09851         148.989         15.3671 
        2.10464         148.529         15.2592 
        2.11077         147.532         15.1526 
        2.11691          146.65         15.0467 
        2.12305         145.794         14.9418 
        2.12918         144.889         14.8382 
        2.13531         144.417         14.7356 
        2.14145         143.145         14.6336 
         2.1476         142.202         14.5326 
        2.15372         142.029          14.433 
        2.15985         141.465         14.3342 
        2.16599         140.063         14.2361 
        2.17213         139.488          14.139 
        2.17827         138.672         14.0429 
         2.1844         137.763         13.9477 
        2.19054         137.138         13.8534 
        2.19666         136.268         13.7601 
         2.2028          135.63         13.6675 
        2.20893         135.137         13.5758 
        2.21508         134.286         13.4848 
        2.22122          133.31         13.3946 
        2.22736         132.676         13.3055 
        2.23349         131.936         13.2171 
        2.23962         131.164         13.1296 
        2.24577         130.496         13.0427 
         2.2519             130         12.9567 
        2.25802         129.141         12.8717 
        2.26417          128.51         12.7872 
        2.27031         127.526         12.7034 
        2.27644         126.965         12.6206 
        2.28257         126.227         12.5385 
        2.28872         125.792          12.457 
        2.29486         124.786         12.3762 
        2.30099         124.207         12.2963 
        2.30712         123.576         12.2171 
        2.31326         122.877         12.1385 
         2.3194         122.291         12.0606 
        2.32553         121.603         11.9835 
        2.33166         121.092         11.9071 
         2.3378           120.5         11.8313 
        2.34394         119.847         11.7561 
        2.35007         119.005         11.6817 
        2.35619         118.367          11.608 
        2.36233         117.816         11.5348 
        2.36848         117.193         11.4621 
        2.37462         116.767         11.3901 
        2.38075         115.809         11.3189 
        2.38689         115.349         11.2481 
        2.39303         114.807          11.178 
        2.39916         114.297         11.1086 
        2.40529         113.691         11.0398 
        2.41143         113.127         10.9715 
        2.41757         112.286         10.9037 
         2.4237         111.644         10.8367 
        2.42983         110.993         10.7702 
        2.43598         110.595         10.7041 
        2.44211         110.095         10.6387 
        2.44823         109.462          10.574 
        2.45437         108.983         10.5096 
        2.46052          108.19         10.4457 
        2.46665         107.616         10.3825 
        2.47279         107.292         10.3198 
        2.47892         106.632         10.2576 
        2.48507         106.025         10.1958 
         2.4912         105.504         10.1347 
