# k  (h/Mpc)    P(k)  (Mpc/h)^3    P_linear(k)  (Mpc/h)^3
     0.00783031         55.3232           55.75 
       0.013688         71.8951         72.1583 
       0.019231          76.023         76.0578 
      0.0249154          72.933         73.0839 
      0.0312784         65.8561         65.8268 
      0.0375637         58.0395         57.9135 
      0.0433917         51.6473         51.5628 
      0.0492413         46.7642         46.6595 
      0.0555754         42.8849         42.8388 
      0.0619321         40.0807         39.9812 
       0.067871         37.6237         37.6077 
      0.0738098         35.1089          35.111 
      0.0800417         32.1739         32.1942 
      0.0862327         29.1097         29.0986 
      0.0921407         26.2359         26.2056 
      0.0982031         23.5788         23.5586 
       0.104506         21.3898         21.3311 
       0.110769         19.7311         19.6835 
       0.116806         18.5491         18.5401 
       0.122832         17.6997         17.6748 
       0.129052         16.8839         16.8869 
       0.135211         16.0491         16.0628 
       0.141259         15.1428         15.1396 
       0.147318         14.1331         14.1116 
       0.153489         13.0411         13.0294 
       0.159709         12.0125         11.9989 
       0.165845         11.1587          11.119 
       0.171974         10.4247         10.4133 
       0.178125         9.88548         9.87216 
       0.184229         9.47971         9.46012 
        0.19034         9.11044         9.11479 
       0.196428         8.78658         8.78159 
       0.202534         8.44246         8.41897 
       0.208729         8.01773         8.00778 
       0.214876         7.56586         7.56797 
       0.220989         7.15024         7.12649 
       0.227147          6.7101         6.70882 
        0.23329         6.34559          6.3429 
       0.239377         6.04509         6.04048 
       0.245482         5.79347         5.79309 
       0.251667         5.59574         5.58463 
       0.257832         5.40283         5.39925 
       0.263955         5.22475         5.21866 
       0.270079         5.03669         5.02932 
        0.27624         4.84287         4.82664 
       0.282372         4.63209         4.61666 
        0.28843         4.41743         4.41036 
       0.294538         4.22227         4.21326 
       0.300721         4.04916         4.03286 
        0.30691         3.88341         3.87469 
       0.313033         3.74824         3.73892 
       0.319153         3.61485         3.61896 
       0.325316         3.52182         3.50738 
        0.33145         3.41061         3.39936 
       0.337538         3.30083         3.29117 
       0.343633         3.18694         3.18039 
       0.349808         3.07659         3.06704 
       0.355968         2.96712         2.95545 
       0.362074         2.85929          2.8498 
       0.368217         2.76081         2.75081 
       0.374374         2.66388         2.66025 
       0.380519         2.58786         2.57811 
       0.386598         2.51452         2.50333 
       0.392688         2.44664         2.43297 
        0.39888         2.37457         2.36383 
       0.405048         2.30717         2.29589 
       0.411186         2.24121         2.22873 
       0.417313         2.17123         2.16212 
       0.423458         2.10953         2.09674 
       0.429607         2.04303         2.03373 
       0.435692         1.98364         1.97447 
       0.441815         1.92814         1.91842 
       0.447964         1.88005         1.86578 
       0.454126         1.82535         1.81607 
       0.460267         1.77689         1.76892 
       0.466387         1.73086         1.72367 
        0.47254         1.68749         1.67933 
       0.478662         1.64555         1.63598 
       0.484765         1.60143         1.59365 
       0.490885         1.56098         1.55226 
       0.497035         1.52505         1.51195 
       0.503198         1.48343         1.47308 
       0.509342         1.44858         1.43607 
       0.515458         1.41065         1.40099 
       0.521598         1.37756          1.3673 
       0.527764         1.34265         1.33478 
       0.533884         1.31533         1.30363 
           0.54         1.28416         1.27343 
       0.546137         1.25589         1.24392 
       0.552299         1.22583         1.21498 
       0.558452         1.19566         1.18681 
       0.564573         1.16985         1.15961 
       0.570708         1.14383         1.13326 
       0.576825         1.11749         1.10791 
       0.582926         1.09504          1.0835 
       0.589034         1.06714         1.05991 
       0.595184         1.04505         1.03695 
       0.601379         1.02334         1.01458 
       0.607522         1.00339        0.993057 
       0.613639         0.98419        0.972219 
       0.619772        0.960779        0.951857 
       0.625918        0.941536        0.931968 
       0.632068        0.923487        0.912601 
       0.638161         0.90375        0.893957 
         0.6443        0.885467        0.875733 
       0.650464        0.866265        0.858004 
       0.656582        0.850299        0.840934 
       0.662703        0.834174        0.824351 
       0.668861        0.819383        0.808132 
       0.675024        0.802102        0.792334 
       0.681124        0.785089        0.777109 
       0.687237        0.772129        0.762248 
       0.693381        0.758027        0.747703 
       0.699536        0.741072        0.733513 
       0.705665        0.727791        0.719756 
       0.711789        0.715975        0.706369 
       0.717957        0.701531        0.693237 
        0.72409        0.689641        0.680516 
       0.730186        0.676496        0.668197 
       0.736317        0.666052         0.65612 
       0.742472        0.653764        0.644301 
       0.748622         0.64185        0.632787 
        0.75476        0.629418        0.621584 
       0.760888        0.618282        0.610672 
       0.767043        0.610421        0.599982 
       0.773185         0.59831        0.589572 
       0.779291        0.587964        0.579472 
       0.785407        0.578527        0.569595 
       0.791564        0.568847         0.55989 
       0.797719        0.559809        0.550417 
       0.803834        0.550719        0.541225 
       0.809972        0.541219        0.532213 
       0.816124        0.532159        0.523388 
       0.822261        0.522907        0.514789 
       0.828378        0.515376         0.50641 
       0.834502        0.507506        0.498213 
       0.840667        0.498307        0.490146 
       0.846816        0.490657        0.482281 
       0.852925        0.484153        0.474641 
       0.859047        0.476604        0.467152 
       0.865192        0.468377        0.459801 
       0.871341        0.460866        0.452606 
       0.877463        0.455234        0.445598 
       0.883569        0.447456        0.438759 
       0.889708        0.440784        0.432029 
       0.895864        0.433977        0.425425 
       0.902008        0.427387        0.418974 
       0.908149        0.420822        0.412662 
       0.914301        0.413605        0.406472 
       0.920448         0.40821        0.400415 
       0.926574        0.402006        0.394504 
       0.932687         0.39599        0.388725 
       0.938823        0.391591        0.383043 
       0.944975        0.385621        0.377462 
       0.951105        0.380248        0.372014 
       0.957225        0.375616        0.366683 
       0.963368        0.369835        0.361439 
       0.969511        0.364018        0.356299 
       0.975621        0.358919        0.351287 
       0.981748         0.35504         0.34636 
       0.987916        0.349862        0.341496 
        0.99406        0.344748        0.336745 
        1.00019        0.340585        0.332095 
        1.00632        0.335134        0.327537 
        1.01246        0.330432        0.323058 
        1.01859        0.326642        0.318671 
        1.02471        0.322254        0.314372 
        1.03085        0.318702        0.310138 
        1.03698        0.313857        0.305991 
        1.04314        0.309866        0.301903 
        1.04929        0.305576          0.2979 
        1.05541        0.302171        0.293987 
        1.06154        0.297771        0.290134 
        1.06769        0.293682        0.286345 
        1.07382        0.290256        0.282637 
        1.07993        0.286274        0.279003 
        1.08607        0.283602        0.275419 
        1.09222        0.279449        0.271894 
        1.09836        0.276593        0.268436 
        1.10449         0.27307        0.265042 
        1.11063        0.269063        0.261704 
        1.11677        0.265631        0.258425 
         1.1229        0.262787        0.255208 
        1.12903        0.259347        0.252044 
        1.13518        0.256549        0.248931 
        1.14131        0.253178        0.245873 
        1.14745        0.249471        0.242868 
        1.15359        0.247033        0.239913 
        1.15973        0.243652        0.237006 
        1.16584        0.241437        0.234161 
        1.17197        0.238505        0.231359 
        1.17811        0.235972        0.228595 
        1.18424         0.23362        0.225884 
        1.19038        0.230427         0.22321 
        1.19652        0.227209         0.22058 
        1.20267        0.225368        0.217992 
        1.20881        0.222711        0.215447 
        1.21495        0.220444        0.212947 
        1.22108        0.217597        0.210488 
         1.2272         0.21548        0.208073 
        1.23334        0.212848         0.20569 
        1.23949        0.210475         0.20334 
        1.24562        0.208192        0.201032 
        1.25174        0.205993        0.198765 
        1.25789        0.204109        0.196525 
        1.26402        0.201164        0.194325 
        1.27014        0.199291        0.192163 
        1.27628        0.197273        0.190029 
        1.28244        0.194669        0.187922 
        1.28858        0.192882        0.185851 
        1.29471         0.19123        0.183816 
        1.30084        0.188728        0.181813 
        1.30697        0.186823        0.179837 
        1.31312        0.184398        0.177888 
        1.31925        0.182661        0.175974 
        1.32537        0.180952         0.17409 
        1.33151        0.179162        0.172228 
        1.33765        0.177363        0.170393 
        1.34378        0.175318         0.16859 
        1.34992        0.173509        0.166811 
        1.35606        0.171784        0.165054 
         1.3622        0.170091        0.163326 
        1.36833        0.168317        0.161627 
        1.37445        0.166228        0.159953 
        1.38059        0.164761        0.158298 
        1.38675        0.163685        0.156662 
        1.39288         0.16183        0.155056 
        1.39901        0.160147        0.153473 
        1.40515        0.158858         0.15191 
         1.4113        0.156829        0.150368 
        1.41742        0.155345        0.148854 
        1.42355        0.154105        0.147358 
         1.4297         0.15244        0.145878 
        1.43585        0.151038         0.14442 
        1.44198        0.149705        0.142987 
        1.44809        0.148099        0.141576 
        1.45423        0.146825        0.140179 
        1.46036        0.145362        0.138803 
        1.46649        0.144298        0.137446 
        1.47263         0.14274        0.136106 
        1.47877        0.141071        0.134784 
        1.48491        0.140027        0.133478 
        1.49104        0.138438        0.132192 
        1.49718        0.137133        0.130922 
        1.50333         0.13624        0.129666 
        1.50947        0.134706         0.12843 
         1.5156        0.133533        0.127212 
        1.52172        0.132333         0.12601 
        1.52787        0.131136        0.124821 
          1.534        0.129749        0.123648 
        1.54013        0.128654        0.122492 
        1.54627        0.127758        0.121349 
        1.55241        0.126349        0.120221 
        1.55855        0.125087        0.119108 
        1.56467        0.124425        0.118012 
         1.5708        0.123178        0.116928 
        1.57695        0.122004        0.115855 
        1.58308        0.120885        0.114798 
        1.58922        0.119938        0.113754 
        1.59535        0.118856        0.112723 
         1.6015        0.117703        0.111704 
        1.60764        0.116819        0.110698 
        1.61376        0.115665        0.109707 
        1.61989        0.114791        0.108727 
        1.62604        0.113909        0.107757 
        1.63218        0.112883          0.1068 
        1.63831        0.111889        0.105857 
        1.64444           0.111        0.104924 
        1.65059         0.11007        0.104001 
        1.65673        0.109158         0.10309 
        1.66285        0.108414        0.102192 
        1.66898        0.107422        0.101305 
        1.67512        0.106359        0.100427 
        1.68127        0.105433       0.0995583 
         1.6874        0.104735       0.0987019 
        1.69353        0.103641       0.0978561 
        1.69967        0.103185       0.0970183 
        1.70581        0.101927       0.0961907 
        1.71193        0.101233       0.0953759 
        1.71806        0.100281       0.0945689 
        1.72421       0.0998218       0.0937696 
        1.73035        0.098779       0.0929805 
        1.73649       0.0981616       0.0922007 
        1.74262       0.0972849       0.0914305 
        1.74876        0.096472       0.0906686 
        1.75489       0.0958796        0.089917 
        1.76101       0.0949206       0.0891741 
        1.76715       0.0941728       0.0884386 
        1.77329       0.0933412       0.0877106 
        1.77943        0.092738       0.0869905 
        1.78557       0.0921088       0.0862795 
        1.79171       0.0913643       0.0855764 
        1.79785       0.0906382        0.084881 
        1.80399       0.0899194       0.0841935 
        1.81012       0.0892832       0.0835146 
        1.81625       0.0885291       0.0828435 
        1.82239       0.0877989       0.0821788 
        1.82853       0.0871534       0.0815217 
        1.83466       0.0865527       0.0808725 
        1.84078       0.0858789        0.080231 
        1.84692       0.0851429       0.0795955 
        1.85306       0.0846199       0.0789662 
         1.8592       0.0838333       0.0783446 
        1.86533       0.0833386       0.0777301 
        1.87147       0.0826659       0.0771215 
        1.87761       0.0822477       0.0765192 
        1.88375       0.0815657        0.075924 
        1.88988        0.080852       0.0753359 
        1.89601       0.0802716       0.0747536 
        1.90215       0.0796835       0.0741771 
        1.90829       0.0790498       0.0736069 
        1.91442       0.0786531       0.0730427 
        1.92056       0.0779371        0.072485 
         1.9267       0.0773326       0.0719325 
        1.93284       0.0768315       0.0713855 
        1.93897       0.0762675       0.0708452 
        1.94509        0.075811       0.0703117 
        1.95123       0.0751745       0.0697823 
        1.95737       0.0747107       0.0692581 
        1.96349       0.0741233       0.0687405 
        1.96964       0.0736206       0.0682268 
        1.97578       0.0730853       0.0677182 
        1.98192        0.072663       0.0672158 
        1.98805       0.0720917       0.0667184 
        1.99419       0.0715059        0.066226 
        2.00033       0.0710265       0.0657384 
        2.00647       0.0707195       0.0652559 
         2.0126        0.070037        0.064779 
        2.01874       0.0697267       0.0643062 
        2.02488       0.0692007       0.0638377 
        2.03101       0.0687451       0.0633747 
        2.03714       0.0681069       0.0629168 
        2.04328       0.0678673       0.0624628 
        2.04941       0.0672038       0.0620138 
        2.05554       0.0669132       0.0615695 
        2.06167       0.0665122        0.061129 
        2.06781        0.065943       0.0606927 
        2.07396       0.0655518         0.06026 
        2.08009       0.0650854       0.0598324 
        2.08622       0.0647096       0.0594094 
        2.09237       0.0642624       0.0589897 
        2.09851       0.0638116       0.0585739 
        2.10464        0.063495       0.0581629 
        2.11077       0.0629706       0.0577563 
        2.11691       0.0625564       0.0573527 
        2.12305         0.06215        0.056953 
        2.12918       0.0618246       0.0565581 
        2.13531       0.0613175       0.0561668 
        2.14145       0.0608971       0.0557784 
         2.1476       0.0605367       0.0553932 
        2.15372       0.0602477       0.0550136 
        2.15985       0.0597607       0.0546372 
        2.16599       0.0593633       0.0542632 
        2.17213       0.0590137       0.0538932 
        2.17827       0.0586229       0.0535266 
         2.1844       0.0583361       0.0531639 
        2.19054       0.0579376       0.0528043 
        2.19666       0.0575314       0.0524486 
         2.2028        0.057128       0.0520959 
        2.20893       0.0568764       0.0517463 
        2.21508       0.0564835       0.0513995 
        2.22122       0.0560899       0.0510557 
        2.22736       0.0558097       0.0507158 
        2.23349       0.0554465       0.0503791 
        2.23962       0.0551999       0.0500453 
        2.24577       0.0547788       0.0497143 
         2.2519        0.054461       0.0493867 
        2.25802       0.0541141       0.0490626 
        2.26417        0.053792       0.0487405 
        2.27031       0.0534018       0.0484209 
        2.27644       0.0530852       0.0481052 
        2.28257       0.0528297       0.0477924 
        2.28872       0.0525264       0.0474817 
        2.29486       0.0522528       0.0471739 
        2.30099       0.0519004       0.0468694 
        2.30712       0.0514739       0.0465675 
        2.31326       0.0512063       0.0462678 
         2.3194        0.051008       0.0459708 
        2.32553        0.050657        0.045677 
        2.33166       0.0504404       0.0453859 
         2.3378       0.0501235       0.0450969 
        2.34394       0.0497873       0.0448104 
        2.35007       0.0494564       0.0445267 
        2.35619        0.049085       0.0442459 
        2.36233       0.0489477       0.0439668 
        2.36848       0.0487104       0.0436895 
        2.37462       0.0483415       0.0434153 
        2.38075       0.0480654       0.0431436 
        2.38689       0.0478078       0.0428741 
        2.39303       0.0475729       0.0426069 
        2.39916       0.0472662       0.0423423 
        2.40529       0.0470392       0.0420799 
        2.41143       0.0467052       0.0418196 
        2.41757       0.0464496       0.0415614 
         2.4237       0.0462644       0.0413058 
        2.42983       0.0460267       0.0410524 
        2.43598       0.0457953       0.0408005 
        2.44211       0.0454475       0.0405511 
        2.44823       0.0452202       0.0403044 
        2.45437       0.0449475        0.040059 
        2.46052       0.0447246       0.0398155 
        2.46665       0.0444173       0.0395745 
        2.47279       0.0441801       0.0393355 
        2.47892       0.0438947       0.0390983 
        2.48507       0.0436684       0.0388629 
         2.4912       0.0434671       0.0386299 
