# k  (h/Mpc)    P(k)  (Mpc/h)^3    P_linear(k)  (Mpc/h)^3
     0.00783031         1751.21         1769.16 
       0.013688          2004.7         2030.47 
       0.019231         1908.45         1918.77 
      0.0249154          1654.3         1650.73 
      0.0312784          1326.6         1325.02 
      0.0375637         1063.79         1064.65 
      0.0433917         902.717          899.29 
      0.0492413         796.021         795.802 
      0.0555754          731.12         727.892 
      0.0619321         671.319         676.626 
       0.067871         624.059         624.586 
      0.0738098         561.838         561.423 
      0.0800417         489.451         487.197 
      0.0862327         416.997         415.763 
      0.0921407         360.319         358.725 
      0.0982031         319.204         315.939 
       0.104506         288.142         287.685 
       0.110769         272.117         271.371 
       0.116806         262.985         260.763 
       0.122832         250.226         249.779 
       0.129052         235.965         234.556 
       0.135211         217.674         215.133 
       0.141259         195.669         193.899 
       0.147318         174.596         173.482 
       0.153489         158.128         156.103 
       0.159709         146.055         143.265 
       0.165845         135.962         134.901 
       0.171974         132.339         129.493 
       0.178125         127.629         125.268 
       0.184229          122.15         120.707 
        0.19034         117.203         114.872 
       0.196428         110.133         107.743 
       0.202534         101.174         99.9019 
       0.208729         94.8043         92.1717 
       0.214876         88.7388         85.5168 
       0.220989         82.4859         80.2933 
       0.227147         79.5491         76.3971 
        0.23329         76.5927         73.5013 
       0.239377         74.3207         71.0865 
       0.245482         71.4777         68.6406 
       0.251667         68.1753         65.8379 
       0.257832         65.9163         62.6611 
       0.263955         61.8809         59.2915 
       0.270079         58.5876         55.9716 
        0.27624         55.3936         52.9292 
       0.282372         52.9623         50.3491 
        0.28843         51.5083         48.2482 
       0.294538         49.4665         46.4939 
       0.300721         47.4614         44.9332 
        0.30691         46.3832         43.4316 
       0.313033         44.5945         41.8956 
       0.319153         43.4452         40.2769 
       0.325316         41.2582          38.592 
        0.33145         39.5249         36.9332 
       0.337538         38.0523         35.3774 
       0.343633         36.8316         33.9677 
       0.349808         35.4265         32.7013 
       0.355968         34.2442         31.5864 
       0.362074          33.511         30.5812 
       0.368217         32.4269         29.6239 
       0.374374         31.6365         28.6807 
       0.380519         30.3539         27.7329 
       0.386598         29.3313          26.795 
       0.392688         28.3221         25.8679 
        0.39888         27.6361         24.9604 
       0.405048          26.854         24.1128 
       0.411186         26.0091         23.3308 
       0.417313          25.233         22.6103 
       0.423458         24.4156         21.9386 
       0.429607         23.9734         21.3009 
       0.435692         23.4852         20.6908 
       0.441815         22.5952         20.0912 
       0.447964         21.8584          19.499 
       0.454126         21.4321         18.9177 
       0.460267         21.0753         18.3573 
       0.466387         20.4194         17.8232 
        0.47254         20.0245         17.3124 
       0.478662          19.388         16.8311 
       0.484765         18.9267          16.377 
       0.490885         18.3485         15.9427 
       0.497035         17.9464         15.5222 
       0.503198         17.5987         15.1134 
       0.509342         17.0566         14.7175 
       0.515458         16.7755         14.3346 
       0.521598          16.379         13.9613 
       0.527764         16.0861         13.5988 
       0.533884         15.6192         13.2526 
           0.54         15.3302         12.9212 
       0.546137         14.8611         12.6024 
       0.552299         14.5752         12.2945 
       0.558452         14.2294         11.9978 
       0.564573         14.0222          11.712 
       0.570708         13.6933         11.4344 
       0.576825         13.4425          11.166 
       0.582926         13.1521         10.9063 
       0.589034         12.8828         10.6541 
       0.595184         12.7091         10.4079 
       0.601379         12.3566         10.1681 
       0.607522         12.1069         9.93837 
       0.613639         11.8688         9.71737 
       0.619772          11.662         9.50308 
       0.625918         11.4184         9.29508 
       0.632068         11.2671         9.09315 
       0.638161         11.0313         8.89874 
         0.6443         10.8197         8.70833 
       0.650464         10.5549         8.52262 
       0.656582         10.4599         8.34361 
       0.662703         10.2912         8.16977 
       0.668861         10.0154         8.00009 
       0.675024         9.84181          7.8353 
       0.681124         9.81511         7.67696 
       0.687237         9.58292         7.52278 
       0.693381         9.33995         7.37215 
       0.699536         9.27471         7.22537 
       0.705665         9.08717         7.08317 
       0.711789         8.90673          6.9449 
       0.717957         8.71969         6.80936 
        0.72409         8.62625          6.6782 
       0.730186         8.56332         6.55131 
       0.736317         8.35573         6.42707 
       0.742472          8.2531         6.30565 
       0.748622         8.11799         6.18753 
        0.75476         7.90525         6.07273 
       0.760888         7.85193         5.96104 
       0.767043         7.68225         5.85175 
       0.773185         7.58305         5.74544 
       0.779291          7.5279         5.64239 
       0.785407         7.37891         5.54171 
       0.791564         7.28073         5.44287 
       0.797719         7.13616         5.34649 
       0.803834         7.07853         5.25306 
       0.809972         6.93713         5.16155 
       0.816124         6.85298         5.07202 
       0.822261         6.76008         4.98487 
       0.828378         6.66707         4.90005 
       0.834502         6.57836         4.81714 
       0.840667         6.50219         4.73563 
       0.846816         6.35835         4.65625 
       0.852925         6.31031          4.5792 
       0.859047          6.2145         4.50374 
       0.865192         6.12556         4.42975 
       0.871341         6.04278         4.35738 
       0.877463         5.95336         4.28696 
       0.883569         5.90184         4.21829 
       0.889708         5.80582         4.15078 
       0.895864         5.72923         4.08458 
       0.902008           5.648         4.01997 
       0.908149         5.56804         3.95681 
       0.914301         5.51008         3.89491 
       0.920448         5.44659          3.8344 
       0.926574         5.40555         3.77539 
       0.932687         5.30868         3.71776 
       0.938823         5.22138         3.66113 
       0.944975          5.1935         3.60555 
       0.951105         5.09727         3.55133 
       0.957225         5.06774         3.49833 
       0.963368         4.99413         3.44623 
       0.969511         4.93419          3.3952 
       0.975621         4.87192         3.34548 
       0.981748         4.79623         3.29663 
       0.987916         4.75109         3.24846 
        0.99406         4.70996         3.20143 
        1.00019          4.6584         3.15543 
        1.00632         4.61446         3.11038 
        1.01246         4.54549         3.06614 
        1.01859         4.49557         3.02284 
        1.02471         4.42656         2.98043 
        1.03085         4.39791         2.93869 
        1.03698         4.34871         2.89785 
        1.04314         4.29861         2.85761 
        1.04929         4.24115         2.81823 
        1.05541         4.19592         2.77975 
        1.06154         4.15867          2.7419 
        1.06769         4.13395          2.7047 
        1.07382         4.06065         2.66831 
        1.07993         4.01561         2.63268 
        1.08607         3.99113         2.59755 
        1.09222         3.93599         2.56304 
        1.09836         3.92167         2.52919 
        1.10449         3.84154         2.49599 
        1.11063         3.82254         2.46336 
        1.11677         3.78747         2.43132 
         1.1229         3.74547         2.39991 
        1.12903         3.71553         2.36903 
        1.13518         3.66151         2.33868 
        1.14131         3.62603         2.30887 
        1.14745         3.58179          2.2796 
        1.15359         3.54607         2.25083 
        1.15973         3.50974         2.22255 
        1.16584         3.48428         2.19489 
        1.17197         3.44273         2.16766 
        1.17811         3.40945          2.1408 
        1.18424         3.37623         2.11449 
        1.19038         3.35054         2.08854 
        1.19652         3.32032         2.06303 
        1.20267         3.29198         2.03796 
        1.20881         3.25485         2.01331 
        1.21495         3.22565          1.9891 
        1.22108         3.19408          1.9653 
         1.2272         3.15555         1.94195 
        1.23334         3.14634         1.91892 
        1.23949         3.10287         1.89621 
        1.24562         3.08237         1.87393 
        1.25174         3.06245         1.85204 
        1.25789         3.01335         1.83044 
        1.26402         2.99454         1.80922 
        1.27014         2.96855         1.78839 
        1.27628          2.9377         1.76782 
        1.28244         2.91884         1.74754 
        1.28858         2.89623         1.72761 
        1.29471         2.85777         1.70803 
        1.30084          2.8326         1.68878 
        1.30697         2.81998         1.66979 
        1.31312         2.79048         1.65107 
        1.31925         2.76471         1.63269 
        1.32537         2.74652         1.61462 
        1.33151          2.7164         1.59675 
        1.33765         2.69513         1.57916 
        1.34378         2.68295         1.56188 
        1.34992         2.65625         1.54484 
        1.35606         2.63543         1.52802 
         1.3622         2.61206         1.51148 
        1.36833         2.58454         1.49523 
        1.37445         2.55946         1.47922 
        1.38059         2.53885          1.4634 
        1.38675         2.51954         1.44777 
        1.39288         2.50907         1.43244 
        1.39901         2.47736         1.41733 
        1.40515         2.46415         1.40241 
         1.4113         2.44425         1.38771 
        1.41742         2.42214         1.37328 
        1.42355         2.40264         1.35902 
         1.4297         2.38529         1.34493 
        1.43585         2.37054         1.33104 
        1.44198         2.34714          1.3174 
        1.44809         2.33286         1.30397 
        1.45423         2.31346         1.29069 
        1.46036         2.29798         1.27761 
        1.46649         2.27401         1.26471 
        1.47263         2.26569         1.25198 
        1.47877         2.24877         1.23943 
        1.48491         2.22605         1.22704 
        1.49104         2.21051         1.21483 
        1.49718          2.1975         1.20279 
        1.50333         2.17566         1.19089 
        1.50947         2.15975         1.17917 
         1.5156          2.1466         1.16764 
        1.52172          2.1303         1.15625 
        1.52787         2.11623           1.145 
          1.534          2.1027          1.1339 
        1.54013         2.08724         1.12297 
        1.54627         2.06733         1.11216 
        1.55241         2.05151         1.10149 
        1.55855         2.04117         1.09098 
        1.56467         2.02854         1.08063 
         1.5708         2.01113         1.07039 
        1.57695         1.99282         1.06026 
        1.58308         1.97708         1.05029 
        1.58922         1.97166         1.04044 
        1.59535         1.95358         1.03073 
         1.6015         1.93786         1.02112 
        1.60764         1.93097         1.01164 
        1.61376         1.91021          1.0023 
        1.61989         1.89666        0.993079 
        1.62604         1.88343        0.983951 
        1.63218           1.876        0.974943 
        1.63831          1.8654        0.966069 
        1.64444         1.84858        0.957302 
        1.65059         1.84171        0.948623 
        1.65673         1.82207        0.940062 
        1.66285         1.81167         0.93163 
        1.66898         1.79965        0.923298 
        1.67512         1.78569        0.915053 
        1.68127         1.77507          0.9069 
         1.6874         1.76704        0.898866 
        1.69353         1.75128        0.890933 
        1.69967         1.73874        0.883078 
        1.70581         1.73351        0.875321 
        1.71193         1.71142        0.867686 
        1.71806         1.70804        0.860126 
        1.72421         1.69902        0.852642 
        1.73035         1.68356        0.845255 
        1.73649         1.67583        0.837957 
        1.74262         1.66473        0.830752 
        1.74876          1.6548        0.823626 
        1.75489         1.64203        0.816598 
        1.76101         1.62991        0.809655 
        1.76715         1.62536        0.802783 
        1.77329         1.61206        0.795982 
        1.77943          1.6024        0.789258 
        1.78557         1.59336         0.78262 
        1.79171         1.58391        0.776058 
        1.79785          1.5757         0.76957 
        1.80399         1.56384        0.763157 
        1.81012         1.55558        0.756826 
        1.81625         1.54138         0.75057 
        1.82239         1.53649        0.744375 
        1.82853         1.52703        0.738252 
        1.83466         1.51358        0.732205 
        1.84078         1.50539        0.726232 
        1.84692         1.49662        0.720316 
        1.85306          1.4899        0.714458 
         1.8592         1.47884        0.708675 
        1.86533         1.47301        0.702959 
        1.87147         1.46488          0.6973 
        1.87761         1.45688        0.691701 
        1.88375         1.44582        0.686169 
        1.88988         1.43734        0.680704 
        1.89601         1.42731        0.675296 
        1.90215          1.4198        0.669942 
        1.90829         1.41492        0.664648 
        1.91442         1.40369        0.659412 
        1.92056         1.39902        0.654236 
         1.9267         1.39034        0.649111 
        1.93284          1.3811        0.644037 
        1.93897         1.37217        0.639028 
        1.94509         1.36332        0.634082 
        1.95123         1.35837        0.629176 
        1.95737         1.35273        0.624319 
        1.96349         1.34253        0.619525 
        1.96964         1.33823        0.614768 
        1.97578         1.32775        0.610059 
        1.98192         1.31674        0.605408 
        1.98805         1.31263        0.600806 
        1.99419         1.30439        0.596251 
        2.00033         1.29667        0.591741 
        2.00647         1.29352        0.587279 
         2.0126         1.28665        0.582871 
        2.01874         1.27787        0.578501 
        2.02488         1.27196        0.574172 
        2.03101         1.26312        0.569896 
        2.03714         1.25848        0.565667 
        2.04328         1.25157        0.561476 
        2.04941         1.24443        0.557331 
        2.05554         1.23638        0.553231 
        2.06167         1.23055        0.549166 
        2.06781         1.22412        0.545142 
        2.07396         1.21826        0.541152 
        2.08009         1.21349        0.537209 
        2.08622         1.20545         0.53331 
        2.09237         1.20123        0.529442 
        2.09851         1.19222        0.525612 
        2.10464         1.18653        0.521825 
        2.11077         1.18224        0.518081 
        2.11691         1.17397        0.514365 
        2.12305         1.16773        0.510685 
        2.12918         1.16117        0.507051 
        2.13531         1.15761        0.503451 
        2.14145         1.15106        0.499878 
         2.1476         1.14175        0.496335 
        2.15372         1.13866        0.492845 
        2.15985         1.13213        0.489385 
        2.16599         1.12796        0.485947 
        2.17213          1.1228        0.482547 
        2.17827          1.1158         0.47918 
         2.1844         1.11012        0.475848 
        2.19054         1.10412        0.472547 
        2.19666         1.09985        0.469281 
         2.2028         1.09299        0.466044 
        2.20893         1.08958        0.462835 
        2.21508         1.08323        0.459653 
        2.22122         1.07756          0.4565 
        2.22736         1.07137        0.453383 
        2.23349         1.06629        0.450296 
        2.23962          1.0645        0.447236 
        2.24577         1.05747        0.444201 
         2.2519         1.05223        0.441199 
        2.25802         1.04811         0.43823 
        2.26417          1.0421        0.435279 
        2.27031          1.0377        0.432353 
        2.27644         1.03179        0.429462 
        2.28257         1.02663        0.426598 
        2.28872         1.02346        0.423755 
        2.29486          1.0174        0.420938 
        2.30099         1.01235        0.418153 
        2.30712         1.00971        0.415391 
        2.31326         1.00381         0.41265 
         2.3194        0.997733        0.409935 
        2.32553        0.994484        0.407249 
        2.33166        0.990443        0.404588 
         2.3378        0.986518        0.401947 
        2.34394          0.9798        0.399329 
        2.35007         0.97436        0.396738 
        2.35619        0.971983        0.394174 
        2.36233        0.967699        0.391625 
        2.36848        0.963303        0.389094 
        2.37462        0.958397        0.386591 
        2.38075        0.954719        0.384112 
        2.38689        0.951787        0.381653 
        2.39303        0.945811        0.379215 
        2.39916        0.942546        0.376802 
        2.40529        0.937266         0.37441 
        2.41143        0.931874        0.372036 
        2.41757        0.929334        0.369682 
         2.4237        0.924135        0.367353 
        2.42983        0.919878        0.365044 
        2.43598        0.917217        0.362749 
        2.44211        0.912272        0.360478 
        2.44823        0.908711         0.35823 
        2.45437        0.905119        0.355996 
        2.46052        0.901507        0.353779 
        2.46665        0.897807        0.351585 
        2.47279        0.893584         0.34941 
        2.47892        0.889748        0.347253 
        2.48507        0.886491        0.345111 
         2.4912        0.882101        0.342991 
