# k  (h/Mpc)    Pcb(k)  (Mpc/h)^3    Pcb_linear(k)  (Mpc/h)^3
     0.00783031         1511.87         1524.62 
       0.013688         1731.88         1751.72 
       0.019231         1648.48         1656.06 
      0.0249154         1428.28         1425.04 
      0.0312784         1145.73         1144.03 
      0.0375637         918.931         919.307 
      0.0433917         779.549         776.561 
      0.0492413         687.523         687.223 
      0.0555754         631.297         628.597 
      0.0619321         580.099         584.338 
       0.067871          539.01         539.404 
      0.0738098         485.176         484.861 
      0.0800417         422.576         420.762 
      0.0862327         360.049         359.072 
      0.0921407         311.051         309.813 
      0.0982031         275.434         272.863 
       0.104506         248.759         248.462 
       0.110769         234.893         234.374 
       0.116806         226.915         225.213 
       0.122832         216.005         215.727 
       0.129052          203.66         202.579 
       0.135211         187.759         185.805 
       0.141259         168.798         167.466 
       0.147318         150.634         149.833 
       0.153489         136.358         134.822 
       0.159709          125.85         123.735 
       0.165845         117.251         116.512 
       0.171974         114.009         111.841 
       0.178125         109.966         108.192 
       0.184229         105.326         104.253 
        0.19034         101.004          99.213 
       0.196428         94.8669         93.0562 
       0.202534         87.2027          86.284 
       0.208729         81.5926         79.6075 
       0.214876         76.3195         73.8598 
       0.220989         70.9881         69.3483 
       0.227147         68.3929         65.9833 
        0.23329         65.8455         63.4822 
       0.239377         63.8597         61.3966 
       0.245482         61.4614         59.2841 
       0.251667         58.6285         56.8632 
       0.257832         56.6092         54.1196 
       0.263955         53.1767         51.2095 
       0.270079         50.3329         48.3422 
        0.27624          47.572         45.7148 
       0.282372         45.4548          43.486 
        0.28843         44.1486         41.6715 
       0.294538         42.4204         40.1563 
       0.300721         40.7135         38.8085 
        0.30691         39.7615         37.5115 
       0.313033         38.2455          36.185 
       0.319153         37.2311         34.7868 
       0.325316         35.3452         33.3315 
        0.33145         33.8519         31.8989 
       0.337538         32.5855         30.5553 
       0.343633         31.5316         29.3376 
       0.349808           30.32         28.2441 
       0.355968         29.2986          27.281 
       0.362074         28.6523         26.4128 
       0.368217         27.7186          25.586 
       0.374374         27.0425         24.7711 
       0.380519          25.958         23.9527 
       0.386598         25.0698         23.1426 
       0.392688         24.2041         22.3419 
        0.39888         23.5954         21.5582 
       0.405048          22.918          20.826 
       0.411186         22.1884         20.1507 
       0.417313         21.5266         19.5284 
       0.423458         20.8196         18.9482 
       0.429607         20.4375         18.3974 
       0.435692         20.0038         17.8705 
       0.441815         19.2592         17.3527 
       0.447964         18.6318         16.8412 
       0.454126          18.259         16.3391 
       0.460267         17.9357         15.8551 
       0.466387         17.3754         15.3938 
        0.47254         17.0251         14.9526 
       0.478662         16.4934          14.537 
       0.484765         16.0952         14.1447 
       0.490885         15.6053         13.7696 
       0.497035          15.242         13.4064 
       0.503198         14.9516         13.0534 
       0.509342         14.4895         12.7114 
       0.515458         14.2416         12.3807 
       0.521598         13.9069         12.0583 
       0.527764         13.6517         11.7452 
       0.533884         13.2393         11.4462 
           0.54         12.9971           11.16 
       0.546137         12.6034         10.8846 
       0.552299         12.3578         10.6187 
       0.558452         12.0632         10.3624 
       0.564573         11.8748         10.1156 
       0.570708          11.602          9.8758 
       0.576825         11.3793         9.64401 
       0.582926         11.1263         9.41973 
       0.589034         10.9025         9.20185 
       0.595184         10.7499         8.98929 
       0.601379         10.4529         8.78217 
       0.607522         10.2363         8.58372 
       0.613639         10.0267         8.39285 
       0.619772         9.85569         8.20776 
       0.625918         9.64862         8.02811 
       0.632068         9.51033         7.85371 
       0.638161         9.31191          7.6858 
         0.6443         9.12798         7.52134 
       0.650464         8.91061         7.36094 
       0.656582         8.82356         7.20633 
       0.662703         8.67472         7.05619 
       0.668861         8.44293         6.90964 
       0.675024         8.29362         6.76731 
       0.681124            8.27         6.63056 
       0.687237         8.07048         6.49739 
       0.693381         7.86286         6.36729 
       0.699536         7.80363         6.24051 
       0.705665         7.64783          6.1177 
       0.711789         7.48993         5.99828 
       0.717957         7.33606         5.88121 
        0.72409         7.25207         5.76793 
       0.730186          7.1947         5.65834 
       0.736317         7.01842         5.55103 
       0.742472         6.93218         5.44616 
       0.748622         6.81943         5.34414 
        0.75476         6.64196         5.24499 
       0.760888         6.59081         5.14853 
       0.767043         6.44158         5.05413 
       0.773185         6.35917         4.96231 
       0.779291         6.31511          4.8733 
       0.785407         6.18648         4.78635 
       0.791564         6.09803         4.70098 
       0.797719         5.98271         4.61774 
       0.803834         5.92611         4.53705 
       0.809972         5.80997           4.458 
       0.816124         5.73758         4.38068 
       0.822261         5.65705         4.30541 
       0.828378         5.57611         4.23215 
       0.834502         5.49867         4.16054 
       0.840667         5.43558         4.09014 
       0.846816         5.31756         4.02158 
       0.852925         5.26888         3.95503 
       0.859047         5.18911         3.88986 
       0.865192         5.11493         3.82595 
       0.871341         5.04517         3.76345 
       0.877463         4.96734         3.70263 
       0.883569         4.92059         3.64332 
       0.889708         4.84447         3.58501 
       0.895864         4.77973         3.52783 
       0.902008         4.70706         3.47203 
       0.908149         4.64301         3.41748 
       0.914301         4.59066         3.36402 
       0.920448         4.53929         3.31175 
       0.926574         4.50261         3.26079 
       0.932687         4.42242         3.21101 
       0.938823         4.34633          3.1621 
       0.944975         4.32232          3.1141 
       0.951105         4.23737         3.06727 
       0.957225         4.21285         3.02149 
       0.963368         4.15436          2.9765 
       0.969511         4.10389         2.93242 
       0.975621         4.04833         2.88948 
       0.981748         3.98248         2.84729 
       0.987916         3.94467         2.80568 
        0.99406         3.91186         2.76506 
        1.00019         3.86585         2.72533 
        1.00632         3.82857         2.68642 
        1.01246         3.77091         2.64822 
        1.01859         3.72886         2.61082 
        1.02471         3.66993         2.57419 
        1.03085         3.64287         2.53814 
        1.03698         3.60213         2.50286 
        1.04314         3.56117          2.4681 
        1.04929         3.51532         2.43409 
        1.05541         3.47271         2.40086 
        1.06154         3.44358         2.36817 
        1.06769         3.42103         2.33604 
        1.07382         3.36105         2.30461 
        1.07993         3.32123         2.27383 
        1.08607         3.30056          2.2435 
        1.09222         3.25408         2.21368 
        1.09836         3.24206         2.18445 
        1.10449         3.17382         2.15578 
        1.11063         3.15508         2.12759 
        1.11677         3.12639         2.09992 
         1.1229         3.08934          2.0728 
        1.12903         3.06624         2.04613 
        1.13518         3.02085          2.0199 
        1.14131         2.99134         1.99416 
        1.14745          2.9559         1.96888 
        1.15359         2.92563         1.94403 
        1.15973         2.89393         1.91961 
        1.16584         2.87189         1.89572 
        1.17197         2.83637          1.8722 
        1.17811         2.80822           1.849 
        1.18424          2.7796         1.82627 
        1.19038         2.75678         1.80386 
        1.19652         2.73162         1.78183 
        1.20267         2.70883         1.76018 
        1.20881         2.67843         1.73889 
        1.21495         2.65278         1.71798 
        1.22108         2.62768         1.69742 
         1.2272         2.59319         1.67725 
        1.23334         2.58418         1.65736 
        1.23949         2.54932         1.63775 
        1.24562         2.53135         1.61851 
        1.25174         2.51442          1.5996 
        1.25789         2.47528         1.58094 
        1.26402         2.45657         1.56262 
        1.27014         2.43321         1.54462 
        1.27628          2.4102         1.52686 
        1.28244         2.39179         1.50935 
        1.28858          2.3727         1.49213 
        1.29471         2.34177         1.47522 
        1.30084         2.32184         1.45859 
        1.30697          2.3092         1.44219 
        1.31312         2.28549         1.42602 
        1.31925          2.2638         1.41015 
        1.32537         2.24841         1.39454 
        1.33151         2.22287         1.37911 
        1.33765          2.2054         1.36392 
        1.34378         2.19283         1.34899 
        1.34992         2.17189         1.33427 
        1.35606         2.15367         1.31974 
         1.3622         2.13524         1.30546 
        1.36833         2.11126         1.29142 
        1.37445          2.0908          1.2776 
        1.38059         2.07446         1.26393 
        1.38675          2.0577         1.25044 
        1.39288          2.0484         1.23719 
        1.39901          2.0225         1.22414 
        1.40515         2.01029         1.21126 
         1.4113          1.9953         1.19856 
        1.41742         1.97421         1.18609 
        1.42355         1.95874         1.17378 
         1.4297         1.94513         1.16161 
        1.43585          1.9313         1.14961 
        1.44198         1.91295         1.13783 
        1.44809         1.90048         1.12624 
        1.45423          1.8844         1.11476 
        1.46036         1.87091         1.10347 
        1.46649         1.84974         1.09233 
        1.47263         1.84368         1.08133 
        1.47877         1.83096         1.07049 
        1.48491         1.80897         1.05979 
        1.49104         1.79718         1.04925 
        1.49718         1.78533         1.03884 
        1.50333         1.76816         1.02857 
        1.50947         1.75591         1.01845 
         1.5156         1.74347         1.00848 
        1.52172         1.73021        0.998649 
        1.52787           1.718        0.988928 
          1.534         1.70754        0.979348 
        1.54013          1.6932        0.969904 
        1.54627         1.67794        0.960568 
        1.55241         1.66396        0.951354 
        1.55855         1.65462        0.942273 
        1.56467         1.64393        0.933337 
         1.5708         1.63066         0.92449 
        1.57695         1.61568        0.915746 
        1.58308           1.602        0.907134 
        1.58922         1.59649        0.898628 
        1.59535         1.58066        0.890234 
         1.6015         1.56884        0.881935 
        1.60764         1.56208        0.873747 
        1.61376         1.54543        0.865685 
        1.61989         1.53523        0.857718 
        1.62604         1.52259        0.849834 
        1.63218         1.51698        0.842055 
        1.63831         1.50725         0.83439 
        1.64444         1.49392        0.826818 
        1.65059         1.48768        0.819322 
        1.65673         1.47119        0.811928 
        1.66285         1.46267        0.804645 
        1.66898         1.45347        0.797449 
        1.67512         1.44019        0.790328 
        1.68127           1.432        0.783287 
         1.6874         1.42622        0.776347 
        1.69353         1.41272        0.769496 
        1.69967         1.40262        0.762711 
        1.70581         1.39869        0.756011 
        1.71193         1.37916        0.749417 
        1.71806         1.37668        0.742888 
        1.72421          1.3694        0.736424 
        1.73035         1.35559        0.730044 
        1.73649         1.35064         0.72374 
        1.74262         1.33999        0.717517 
        1.74876         1.33158        0.711363 
        1.75489         1.32187        0.705293 
        1.76101         1.31116        0.699296 
        1.76715         1.30655        0.693361 
        1.77329         1.29661        0.687487 
        1.77943         1.28888        0.681679 
        1.78557         1.28162        0.675946 
        1.79171         1.27365        0.670278 
        1.79785         1.26591        0.664675 
        1.80399         1.25624        0.659136 
        1.81012         1.24897        0.653668 
        1.81625          1.2375        0.648264 
        1.82239         1.23307        0.642914 
        1.82853         1.22544        0.637626 
        1.83466         1.21513        0.632403 
        1.84078          1.2083        0.627244 
        1.84692         1.20096        0.622134 
        1.85306         1.19624        0.617075 
         1.8592         1.18532         0.61208 
        1.86533         1.18105        0.607143 
        1.87147         1.17316        0.602256 
        1.87761         1.16692        0.597419 
        1.88375         1.15826        0.592642 
        1.88988         1.15078        0.587922 
        1.89601         1.14306         0.58325 
        1.90215         1.13704        0.578626 
        1.90829         1.13199        0.574054 
        1.91442         1.12322        0.569531 
        1.92056          1.1189        0.565061 
         1.9267         1.11226        0.560635 
        1.93284         1.10386        0.556253 
        1.93897         1.09697        0.551926 
        1.94509         1.09066        0.547654 
        1.95123         1.08489        0.543417 
        1.95737         1.08058        0.539222 
        1.96349         1.07224        0.535082 
        1.96964         1.06928        0.530973 
        1.97578         1.05973        0.526906 
        1.98192         1.05134        0.522889 
        1.98805         1.04737        0.518914 
        1.99419         1.04092         0.51498 
        2.00033         1.03517        0.511085 
        2.00647         1.03203        0.507231 
         2.0126         1.02659        0.503424 
        2.01874         1.01881        0.499649 
        2.02488         1.01301        0.495911 
        2.03101         1.00687        0.492217 
        2.03714         1.00279        0.488564 
        2.04328        0.997024        0.484945 
        2.04941        0.991048        0.481365 
        2.05554        0.984313        0.477823 
        2.06167        0.979488        0.474313 
        2.06781        0.973969        0.470837 
        2.07396        0.969545        0.467391 
        2.08009        0.965109        0.463986 
        2.08622        0.958195        0.460618 
        2.09237         0.95461        0.457277 
        2.09851        0.948211        0.453969 
        2.10464        0.943281        0.450699 
        2.11077        0.938359        0.447465 
        2.11691        0.932436        0.444255 
        2.12305        0.928424        0.441077 
        2.12918        0.921959        0.437938 
        2.13531        0.918601        0.434829 
        2.14145        0.913375        0.431743 
         2.1476         0.90671        0.428683 
        2.15372         0.90374        0.425668 
        2.15985        0.898231         0.42268 
        2.16599        0.894793        0.419711 
        2.17213        0.889846        0.416774 
        2.17827        0.884728        0.413866 
         2.1844        0.879862        0.410988 
        2.19054         0.87517        0.408137 
        2.19666        0.871463        0.405317 
         2.2028        0.866363         0.40252 
        2.20893        0.863167        0.399749 
        2.21508        0.857807        0.397001 
        2.22122        0.853591        0.394277 
        2.22736        0.847815        0.391585 
        2.23349        0.844008        0.388919 
        2.23962        0.842196        0.386276 
        2.24577         0.83679        0.383655 
         2.2519        0.832121        0.381062 
        2.25802        0.829241        0.378497 
        2.26417        0.823653        0.375949 
        2.27031        0.820292        0.373422 
        2.27644         0.81585        0.370925 
        2.28257        0.810924        0.368451 
        2.28872        0.808925        0.365996 
        2.29486        0.803648        0.363563 
        2.30099        0.799624        0.361157 
        2.30712        0.797472        0.358772 
        2.31326        0.792304        0.356404 
         2.3194        0.787414        0.354059 
        2.32553        0.784523        0.351739 
        2.33166        0.781377        0.349441 
         2.3378        0.778062         0.34716 
        2.34394        0.773273        0.344899 
        2.35007         0.76809        0.342662 
        2.35619        0.766012        0.340446 
        2.36233        0.762597        0.338245 
        2.36848         0.75955        0.336059 
        2.37462         0.75509        0.333897 
        2.38075        0.751896        0.331756 
        2.38689        0.749638        0.329632 
        2.39303        0.744625        0.327527 
        2.39916        0.741782        0.325442 
        2.40529        0.738316        0.323376 
        2.41143        0.732845        0.321326 
        2.41757        0.731139        0.319293 
         2.4237          0.7273        0.317282 
        2.42983        0.723282        0.315288 
        2.43598        0.720842        0.313305 
        2.44211        0.717129        0.311343 
        2.44823        0.714136        0.309402 
        2.45437         0.71149        0.307473 
        2.46052        0.709019        0.305558 
        2.46665         0.70529        0.303663 
        2.47279        0.702045        0.301785 
        2.47892        0.698297        0.299921 
        2.48507        0.696693        0.298071 
         2.4912         0.69212         0.29624 
