# k  (h/Mpc)    Pcb(k)  (Mpc/h)^3    Pcb_linear(k)  (Mpc/h)^3
     0.00783031         2985.17         3008.93 
       0.013688         3409.19         3456.47 
       0.019231         3247.76         3267.48 
      0.0249154         2820.68         2811.55 
      0.0312784         2259.06         2257.07 
      0.0375637         1810.19         1813.69 
      0.0433917         1537.97         1532.05 
      0.0492413          1355.4         1355.79 
      0.0555754          1246.1         1240.12 
      0.0619321         1140.86          1152.8 
       0.067871         1062.38         1064.15 
      0.0738098         957.271         956.549 
      0.0800417         834.645         830.089 
      0.0862327         710.978         708.385 
      0.0921407         614.955         611.206 
      0.0982031         545.776         538.309 
       0.104506         491.752          490.17 
       0.110769         464.639         462.376 
       0.116806         449.727         444.303 
       0.122832         427.173         425.589 
       0.129052         402.991         399.651 
       0.135211         372.758         366.559 
       0.141259         334.969         330.379 
       0.147318         298.867         295.591 
       0.153489         271.244         265.979 
       0.159709         251.387         244.105 
       0.165845         233.277         229.856 
       0.171974         227.921         220.641 
       0.178125         219.732         213.442 
       0.184229         209.586         205.671 
        0.19034         201.536         195.728 
       0.196428         189.809         183.582 
       0.202534         174.002         170.222 
       0.208729         164.048          157.05 
       0.214876         153.947         145.711 
       0.220989         142.811         136.811 
       0.227147         138.221         130.172 
        0.23329          133.12         125.238 
       0.239377         129.475         121.124 
       0.245482         124.141         116.956 
       0.251667         118.401          112.18 
       0.257832         115.065         106.767 
       0.263955          107.79         101.026 
       0.270079         102.175         95.3699 
        0.27624         96.7807         90.1865 
       0.282372         92.7929         85.7895 
        0.28843         90.7138         82.2097 
       0.294538         86.9088         79.2206 
       0.300721         83.3429         76.5616 
        0.30691         81.6436          74.003 
       0.313033         78.3316          71.386 
       0.319153         76.5052         68.6276 
       0.325316         72.8715         65.7567 
        0.33145         69.9173         62.9304 
       0.337538         67.3205         60.2797 
       0.343633         65.1883         57.8774 
       0.349808         62.7944         55.7201 
       0.355968         60.8212           53.82 
       0.362074         59.6014         52.1073 
       0.368217         57.7834         50.4762 
       0.374374         56.3373         48.8686 
       0.380519         53.9792         47.2541 
       0.386598         52.3211         45.6559 
       0.392688         50.5468         44.0762 
        0.39888         49.4825         42.5302 
       0.405048         48.1438         41.0857 
       0.411186         46.7479         39.7533 
       0.417313         45.3716         38.5257 
       0.423458         44.0053         37.3812 
       0.429607         43.1935         36.2946 
       0.435692          42.439         35.2551 
       0.441815         40.7888         34.2334 
       0.447964         39.4659         33.2243 
       0.454126         38.7339         32.2339 
       0.460267         38.2274         31.2791 
       0.466387          37.081         30.3689 
        0.47254         36.4712         29.4986 
       0.478662         35.2303         28.6786 
       0.484765         34.4638         27.9048 
       0.490885         33.4236         27.1648 
       0.497035         32.8847         26.4482 
       0.503198         32.1803         25.7518 
       0.509342         31.2276         25.0772 
       0.515458         30.7562         24.4247 
       0.521598         30.0039         23.7886 
       0.527764         29.5237          23.171 
       0.533884         28.8617         22.5812 
           0.54         28.2555         22.0165 
       0.546137         27.3926         21.4733 
       0.552299         26.8781         20.9486 
       0.558452         26.2677         20.4431 
       0.564573         25.9934         19.9561 
       0.570708          25.315          19.483 
       0.576825         24.9474         19.0257 
       0.582926         24.4785         18.5833 
       0.589034         23.9576         18.1535 
       0.595184         23.6497         17.7341 
       0.601379         22.9996         17.3255 
       0.607522         22.5652          16.934 
       0.613639         22.2145         16.5574 
       0.619772         21.7872         16.1923 
       0.625918         21.3689         15.8379 
       0.632068         21.1453         15.4938 
       0.638161         20.6955         15.1626 
         0.6443         20.3625         14.8381 
       0.650464         19.8359         14.5217 
       0.656582         19.6999         14.2167 
       0.662703         19.4126         13.9205 
       0.668861         18.9023         13.6314 
       0.675024         18.6301         13.3506 
       0.681124         18.5422         13.0808 
       0.687237         18.1407         12.8181 
       0.693381         17.7378         12.5614 
       0.699536         17.6278         12.3113 
       0.705665         17.2718          12.069 
       0.711789          16.976         11.8334 
       0.717957         16.6165         11.6025 
        0.72409         16.4511          11.379 
       0.730186         16.3585         11.1628 
       0.736317         15.9926         10.9511 
       0.742472          15.799         10.7442 
       0.748622         15.5403         10.5429 
        0.75476         15.1428         10.3473 
       0.760888         15.0906          10.157 
       0.767043         14.8026         9.97081 
       0.773185          14.617         9.78967 
       0.779291         14.4643         9.61407 
       0.785407         14.2312         9.44254 
       0.791564         14.1061         9.27411 
       0.797719         13.7778         9.10989 
       0.803834         13.7207          8.9507 
       0.809972         13.4404         8.79477 
       0.816124         13.2922         8.64223 
       0.822261         13.1331         8.49374 
       0.828378         12.9839         8.34921 
       0.834502         12.8349         8.20794 
       0.840667         12.6823         8.06905 
       0.846816         12.3997         7.93379 
       0.852925         12.3587          7.8025 
       0.859047         12.1877         7.67393 
       0.865192         12.0124         7.54785 
       0.871341         11.8606         7.42454 
       0.877463         11.7039         7.30456 
       0.883569         11.6235         7.18755 
       0.889708         11.4262         7.07252 
       0.895864         11.2779         6.95973 
       0.902008         11.1522         6.84964 
       0.908149         10.9856         6.74202 
       0.914301         10.9079         6.63654 
       0.920448         10.7623         6.53344 
       0.926574         10.6886          6.4329 
       0.932687          10.513         6.33469 
       0.938823         10.3641          6.2382 
       0.944975         10.3069          6.1435 
       0.951105         10.1718         6.05112 
       0.957225         10.0977         5.96081 
       0.963368         9.93515         5.87204 
       0.969511         9.82965         5.78509 
       0.975621         9.73684         5.70037 
       0.981748         9.60484         5.61714 
       0.987916         9.53153         5.53506 
        0.99406         9.41483         5.45493 
        1.00019         9.34113         5.37655 
        1.00632         9.26831         5.29978 
        1.01246         9.13922         5.22441 
        1.01859         9.04544         5.15063 
        1.02471         8.93229         5.07837 
        1.03085         8.88499         5.00725 
        1.03698         8.79831         4.93765 
        1.04314         8.68298         4.86908 
        1.04929         8.57236         4.80198 
        1.05541         8.51384         4.73642 
        1.06154         8.43221         4.67193 
        1.06769         8.37141         4.60854 
        1.07382         8.24106         4.54654 
        1.07993         8.17095         4.48583 
        1.08607         8.12072         4.42598 
        1.09222         8.01603         4.36716 
        1.09836         7.96993         4.30949 
        1.10449         7.86502         4.25293 
        1.11063         7.82882         4.19732 
        1.11677         7.76387         4.14274 
         1.1229         7.68364         4.08922 
        1.12903         7.61372          4.0366 
        1.13518         7.52045         3.98487 
        1.14131         7.46484         3.93408 
        1.14745          7.3566         3.88421 
        1.15359         7.29125          3.8352 
        1.15973         7.23743         3.78701 
        1.16584         7.17398         3.73987 
        1.17197         7.10191         3.69347 
        1.17811         7.04726         3.64772 
        1.18424         6.99566         3.60288 
        1.19038         6.95337         3.55866 
        1.19652         6.87999         3.51521 
        1.20267         6.83513         3.47248 
        1.20881         6.74378         3.43048 
        1.21495          6.7005         3.38924 
        1.22108         6.64292         3.34868 
         1.2272         6.58301         3.30889 
        1.23334         6.55786         3.26965 
        1.23949          6.4832         3.23095 
        1.24562         6.43329         3.19299 
        1.25174         6.39491          3.1557 
        1.25789         6.30872         3.11889 
        1.26402         6.27848         3.08273 
        1.27014         6.24398         3.04724 
        1.27628         6.16577          3.0122 
        1.28244         6.14803         2.97764 
        1.28858         6.08686         2.94368 
        1.29471         6.01582         2.91032 
        1.30084         5.96864         2.87751 
        1.30697         5.95273         2.84516 
        1.31312         5.89085         2.81326 
        1.31925         5.85192         2.78195 
        1.32537         5.80427         2.75115 
        1.33151         5.75595          2.7207 
        1.33765         5.71189         2.69074 
        1.34378         5.69966         2.66129 
        1.34992         5.63955         2.63226 
        1.35606         5.59087          2.6036 
         1.3622         5.54267         2.57541 
        1.36833         5.51537         2.54772 
        1.37445         5.46785         2.52045 
        1.38059         5.41803         2.49349 
        1.38675         5.38845         2.46686 
        1.39288         5.35079         2.44073 
        1.39901         5.29909         2.41499 
        1.40515          5.2689         2.38957 
         1.4113         5.22852         2.36452 
        1.41742         5.20547         2.33993 
        1.42355         5.15273         2.31564 
         1.4297         5.11683         2.29162 
        1.43585         5.09508         2.26796 
        1.44198         5.05774         2.24472 
        1.44809         5.01886         2.22184 
        1.45423         4.98046         2.19921 
        1.46036         4.95274         2.17693 
        1.46649          4.9185         2.15495 
        1.47263         4.88796         2.13326 
        1.47877         4.85059         2.11187 
        1.48491         4.83206         2.09075 
        1.49104         4.79039         2.06996 
        1.49718         4.76666         2.04944 
        1.50333          4.7263         2.02916 
        1.50947          4.6926          2.0092 
         1.5156         4.67169         1.98954 
        1.52172         4.63463         1.97014 
        1.52787         4.61558         1.95096 
          1.534         4.57678         1.93206 
        1.54013            4.56         1.91343 
        1.54627         4.51872         1.89501 
        1.55241          4.4836         1.87683 
        1.55855         4.47186         1.85892 
        1.56467         4.45123         1.84129 
         1.5708         4.40563         1.82384 
        1.57695         4.37336         1.80659 
        1.58308         4.34517          1.7896 
        1.58922         4.33335         1.77282 
        1.59535         4.30897         1.75626 
         1.6015         4.26141         1.73988 
        1.60764         4.24591         1.72373 
        1.61376         4.22318         1.70783 
        1.61989         4.18711         1.69211 
        1.62604         4.17358         1.67656 
        1.63218         4.14902         1.66121 
        1.63831         4.12413         1.64609 
        1.64444         4.09098         1.63115 
        1.65059         4.07331         1.61636 
        1.65673         4.05334         1.60177 
        1.66285         4.02735         1.58741 
        1.66898         4.00735         1.57321 
        1.67512         3.98189         1.55916 
        1.68127         3.94719         1.54527 
         1.6874         3.93168         1.53158 
        1.69353         3.90297         1.51806 
        1.69967         3.88667         1.50468 
        1.70581         3.86034         1.49146 
        1.71193         3.83998         1.47845 
        1.71806         3.81741         1.46557 
        1.72421         3.79659         1.45282 
        1.73035           3.779         1.44023 
        1.73649         3.75865          1.4278 
        1.74262         3.73077         1.41552 
        1.74876          3.7212         1.40338 
        1.75489         3.69621          1.3914 
        1.76101         3.66576         1.37957 
        1.76715         3.66337         1.36786 
        1.77329         3.63705         1.35628 
        1.77943         3.60641         1.34482 
        1.78557         3.60292         1.33351 
        1.79171         3.57749         1.32233 
        1.79785         3.56599         1.31127 
        1.80399         3.53472         1.30034 
        1.81012          3.5229         1.28956 
        1.81625         3.49851          1.2789 
        1.82239         3.48692         1.26834 
        1.82853         3.46143         1.25791 
        1.83466         3.43477         1.24761 
        1.84078         3.42156         1.23743 
        1.84692         3.40489         1.22735 
        1.85306         3.38759         1.21737 
         1.8592         3.37547         1.20751 
        1.86533          3.3592         1.19777 
        1.87147         3.34516         1.18813 
        1.87761         3.32584         1.17859 
        1.88375          3.3054         1.16916 
        1.88988         3.28982         1.15985 
        1.89601         3.26839         1.15064 
        1.90215         3.25219         1.14151 
        1.90829         3.24432          1.1325 
        1.91442         3.22422         1.12357 
        1.92056         3.21601         1.11475 
         1.9267         3.19134         1.10602 
        1.93284         3.18158         1.09738 
        1.93897         3.15926         1.08884 
        1.94509         3.13221         1.08041 
        1.95123         3.13342         1.07205 
        1.95737         3.11748         1.06378 
        1.96349         3.09857         1.05561 
        1.96964         3.08134          1.0475 
        1.97578         3.06947         1.03948 
        1.98192         3.05081         1.03156 
        1.98805         3.04058         1.02371 
        1.99419         3.02571         1.01595 
        2.00033          3.0028         1.00827 
        2.00647         2.99857         1.00067 
         2.0126         2.98487        0.993155 
        2.01874         2.96777        0.985709 
        2.02488         2.95979        0.978333 
        2.03101         2.93502        0.971046 
        2.03714         2.92317        0.963841 
        2.04328         2.91408          0.9567 
        2.04941         2.89652        0.949637 
        2.05554         2.88718        0.942651 
        2.06167         2.87732        0.935725 
        2.06781         2.85989        0.928868 
        2.07396          2.8452         0.92207 
        2.08009         2.83617        0.915351 
        2.08622         2.82749        0.908708 
        2.09237         2.81491        0.902117 
        2.09851         2.79455         0.89559 
        2.10464         2.78443        0.889139 
        2.11077         2.77524        0.882759 
        2.11691         2.76079        0.876427 
        2.12305         2.74658        0.870157 
        2.12918         2.73714        0.863964 
        2.13531         2.72602         0.85783 
        2.14145          2.7118        0.851742 
         2.1476         2.69594        0.845706 
        2.15372         2.68334        0.839759 
        2.15985         2.67878        0.833863 
        2.16599         2.66709        0.828006 
        2.17213          2.6612        0.822212 
        2.17827         2.63668        0.816475 
         2.1844         2.63134        0.810798 
        2.19054         2.62219        0.805173 
        2.19666         2.61203        0.799609 
         2.2028         2.59023        0.794092 
        2.20893         2.59382        0.788625 
        2.21508         2.57407        0.783203 
        2.22122         2.55968        0.777831 
        2.22736          2.5499         0.77252 
        2.23349         2.54052        0.767259 
        2.23962         2.53314        0.762045 
        2.24577          2.5173        0.756875 
         2.2519         2.51765        0.751759 
        2.25802         2.49159          0.7467 
        2.26417         2.48819        0.741672 
        2.27031         2.47841        0.736686 
        2.27644         2.46724        0.731761 
        2.28257         2.45844        0.726881 
        2.28872          2.4465        0.722036 
        2.29486         2.43505        0.717237 
        2.30099         2.42846         0.71249 
        2.30712         2.41793        0.707785 
        2.31326         2.41136        0.703114 
         2.3194         2.39598        0.698488 
        2.32553         2.38948        0.693911 
        2.33166          2.3805        0.689378 
         2.3378         2.37373        0.684878 
        2.34394         2.35724        0.680417 
        2.35007         2.35028        0.676003 
        2.35619         2.34592        0.671632 
        2.36233         2.33202        0.667291 
        2.36848         2.32372        0.662978 
        2.37462         2.31698        0.658713 
        2.38075         2.30794        0.654489 
        2.38689          2.2995        0.650298 
        2.39303         2.28888        0.646145 
        2.39916         2.28105        0.642033 
        2.40529         2.26981        0.637957 
        2.41143          2.2652        0.633913 
        2.41757         2.25829        0.629902 
         2.4237         2.24641        0.625933 
        2.42983         2.23888        0.621999 
        2.43598         2.23131        0.618088 
        2.44211         2.21849        0.614218 
        2.44823         2.21373        0.610389 
        2.45437          2.2018        0.606582 
        2.46052         2.19663        0.602805 
        2.46665          2.1874        0.599066 
        2.47279         2.17823         0.59536 
        2.47892         2.17372        0.591684 
        2.48507         2.16394        0.588034 
         2.4912         2.15633        0.584423 
