# k  (h/Mpc)    P(k)  (Mpc/h)^3    P_linear(k)  (Mpc/h)^3
     0.00783031         2902.87         2943.02 
       0.013688         3350.56         3351.86 
       0.019231         3175.43         3173.67 
      0.0249154         2732.11          2752.1 
      0.0312784         2233.89         2234.87 
      0.0375637         1819.72         1811.48 
      0.0433917         1530.67         1532.82 
      0.0492413         1353.04         1350.05 
      0.0555754         1215.71         1224.25 
      0.0619321          1138.2         1130.49 
       0.067871         1037.34         1042.58 
      0.0738098         937.185         941.646 
      0.0800417         818.616         824.719 
      0.0862327         710.552         710.569 
      0.0921407         620.146         616.413 
      0.0982031         543.654         542.303 
       0.104506         497.873         489.891 
       0.110769         463.375          457.12 
       0.116806         438.182           435.6 
       0.122832         420.351         416.047 
       0.129052         392.587         392.062 
       0.135211         363.887         362.594 
       0.141259         334.618         329.955 
       0.147318         304.122         297.363 
       0.153489         273.688          268.08 
       0.159709         251.678         244.883 
       0.165845         237.364         228.483 
       0.171974         223.408         217.183 
       0.178125         215.209         208.701 
       0.184229         207.362         200.836 
        0.19034         195.267         191.879 
       0.196428         187.114          181.29 
       0.202534         177.389         169.428 
       0.208729         164.422         157.197 
       0.214876         152.649         146.017 
       0.220989         144.774         136.619 
       0.227147         136.055         129.116 
        0.23329         130.112         123.319 
       0.239377         126.106         118.655 
       0.245482         119.579          114.39 
       0.251667         116.796         109.947 
       0.257832         112.016         105.133 
       0.263955         106.905         100.006 
       0.270079         101.726         94.7778 
        0.27624         97.9993         89.7487 
       0.282372         93.6211         85.2291 
        0.28843         89.1968         81.3709 
       0.294538         85.5066         78.0593 
       0.300721         83.4724         75.1627 
        0.30691         79.8031         72.5236 
       0.313033         77.3202         69.9953 
       0.319153         73.6859         67.4375 
       0.325316         72.2102         64.8059 
        0.33145         69.1513          62.173 
       0.337538         67.0968         59.6289 
       0.343633         64.3878         57.2274 
       0.349808         62.3218         55.0024 
       0.355968         60.4693         52.9953 
       0.362074         58.4511         51.1957 
       0.368217         56.6436          49.522 
       0.374374          54.885         47.9274 
       0.380519         53.4789         46.3795 
       0.386598         51.9452         44.8646 
       0.392688          50.733         43.3692 
        0.39888         49.0971          41.885 
       0.405048         47.7436         40.4641 
       0.411186          46.495         39.1281 
       0.417313         44.9838         37.8786 
       0.423458         43.7699          36.706 
       0.429607         42.5893         35.6048 
       0.435692         41.1751         34.5691 
       0.441815         40.4653         33.5652 
       0.447964         39.7098         32.5877 
       0.454126         38.0449         31.6344 
       0.460267         37.4079         30.7096 
       0.466387         36.2954         29.8186 
        0.47254         35.6415         28.9591 
       0.478662         35.0217         28.1423 
       0.484765         33.8801         27.3656 
       0.490885         33.1083         26.6235 
       0.497035         32.6803         25.9106 
       0.503198         31.7401         25.2242 
       0.509342         30.9078         24.5626 
       0.515458         30.2563         23.9247 
       0.521598         29.7087         23.3043 
       0.527764         29.0521         22.7011 
       0.533884         28.5614         22.1222 
           0.54         27.8663         21.5641 
       0.546137         27.4342         21.0249 
       0.552299         26.9602         20.5045 
       0.558452         26.1214         20.0044 
       0.564573         25.6944         19.5242 
       0.570708         25.2567         19.0588 
       0.576825         24.6574         18.6094 
       0.582926          24.135         18.1752 
       0.589034          23.537         17.7539 
       0.595184         23.2205         17.3427 
       0.601379         22.7455         16.9416 
       0.607522         22.3044         16.5563 
       0.613639         22.0707         16.1849 
       0.619772          21.487         15.8245 
       0.625918         21.3474          15.475 
       0.632068         20.9958         15.1362 
       0.638161         20.5339         14.8107 
         0.6443         20.1231         14.4924 
       0.650464         19.7511         14.1821 
       0.656582         19.6093         13.8829 
       0.662703         19.2205         13.5921 
       0.668861         18.8489          13.308 
       0.675024         18.5093         13.0319 
       0.681124         18.1829         12.7665 
       0.687237         17.8713         12.5082 
       0.693381         17.7021          12.256 
       0.699536         17.2302         12.0104 
       0.705665         17.1663         11.7726 
       0.711789          16.772         11.5414 
       0.717957         16.5255         11.3149 
        0.72409         16.2799         11.0956 
       0.730186         16.0399         10.8836 
       0.736317          15.859         10.6759 
       0.742472         15.5772         10.4729 
       0.748622          15.408         10.2754 
        0.75476         15.1278         10.0835 
       0.760888         14.8872         9.89682 
       0.767043         14.6966         9.71418 
       0.773185         14.4378         9.53655 
       0.779291         14.3494          9.3644 
       0.785407         14.1718         9.19627 
       0.791564         13.9193         9.03122 
       0.797719          13.592         8.87032 
       0.803834         13.5717         8.71436 
       0.809972         13.4324          8.5616 
       0.816124         13.1355         8.41219 
       0.822261         12.9729         8.26675 
       0.828378         12.8393         8.12521 
       0.834502         12.7197         7.98687 
       0.840667         12.5196         7.85087 
       0.846816         12.2888         7.71843 
       0.852925         12.1675         7.58989 
       0.859047         12.0292         7.46402 
       0.865192          11.911         7.34061 
       0.871341         11.8033         7.21991 
       0.877463         11.5934         7.10248 
       0.883569         11.4402         6.98798 
       0.889708         11.2564         6.87541 
       0.895864         11.1469         6.76505 
       0.902008         11.0656         6.65734 
       0.908149         10.9408         6.55205 
       0.914301         10.8564         6.44888 
       0.920448          10.658         6.34803 
       0.926574         10.5457         6.24969 
       0.932687         10.4209         6.15366 
       0.938823         10.2867          6.0593 
       0.944975          10.168         5.96671 
       0.951105         10.0615          5.8764 
       0.957225         9.97934         5.78811 
       0.963368         9.88519         5.70135 
       0.969511         9.77741         5.61637 
       0.975621         9.67678         5.53358 
       0.981748         9.54184         5.45226 
       0.987916         9.48392         5.37206 
        0.99406         9.33871         5.29378 
        1.00019         9.20627         5.21722 
        1.00632         9.17429         5.14225 
        1.01246         9.08085         5.06865 
        1.01859          8.9269          4.9966 
        1.02471         8.88772         4.92605 
        1.03085          8.7892         4.85663 
        1.03698         8.65381         4.78868 
        1.04314         8.60233         4.72176 
        1.04929         8.49496         4.65627 
        1.05541          8.3956         4.59229 
        1.06154         8.33894         4.52936 
        1.06769         8.29713         4.46751 
        1.07382         8.17209         4.40702 
        1.07993         8.09908         4.34779 
        1.08607         8.02865         4.28941 
        1.09222         7.96254         4.23204 
        1.09836         7.86258         4.17578 
        1.10449         7.80047         4.12062 
        1.11063         7.70845         4.06639 
        1.11677         7.67371         4.01316 
         1.1229         7.61915         3.96097 
        1.12903         7.51432         3.90967 
        1.13518          7.4232         3.85923 
        1.14131         7.38424         3.80972 
        1.14745         7.31032          3.7611 
        1.15359         7.25935         3.71332 
        1.15973         7.18117         3.66635 
        1.16584         7.08328         3.62041 
        1.17197         7.04052         3.57519 
        1.17811         7.00267         3.53061 
        1.18424         6.93318         3.48691 
        1.19038         6.90208         3.44383 
        1.19652         6.81911          3.4015 
        1.20267         6.75457         3.35988 
        1.20881         6.72933         3.31896 
        1.21495         6.66899          3.2788 
        1.22108         6.58575          3.2393 
         1.2272         6.53868         3.20055 
        1.23334         6.47543         3.16234 
        1.23949         6.41355         3.12467 
        1.24562         6.38444         3.08772 
        1.25174         6.33233         3.05142 
        1.25789         6.28065         3.01559 
        1.26402         6.24884         2.98041 
        1.27014          6.1902         2.94587 
        1.27628         6.11576         2.91177 
        1.28244         6.06074         2.87815 
        1.28858         6.05761          2.8451 
        1.29471         5.98261         2.81265 
        1.30084         5.92304         2.78074 
        1.30697         5.91283         2.74927 
        1.31312         5.82458         2.71824 
        1.31925         5.77839         2.68779 
        1.32537         5.74737         2.65783 
        1.33151          5.7212         2.62823 
        1.33765         5.66115         2.59909 
        1.34378         5.62186         2.57046 
        1.34992         5.57648         2.54223 
        1.35606         5.53671         2.51437 
         1.3622         5.50598         2.48697 
        1.36833         5.44692         2.46005 
        1.37445         5.41714         2.43353 
        1.38059         5.39455         2.40733 
        1.38675         5.34385         2.38145 
        1.39288         5.32176         2.35606 
        1.39901         5.25512         2.33104 
        1.40515         5.23222         2.30633 
         1.4113         5.19333         2.28199 
        1.41742          5.1534          2.2581 
        1.42355           5.108          2.2345 
         1.4297         5.08711         2.21117 
        1.43585         5.05821         2.18818 
        1.44198         5.03106          2.1656 
        1.44809         4.98631         2.14339 
        1.45423         4.94763         2.12141 
        1.46036         4.90671         2.09977 
        1.46649         4.88581         2.07843 
        1.47263         4.83868         2.05737 
        1.47877         4.80731         2.03661 
        1.48491         4.78235          2.0161 
        1.49104         4.75032         1.99592 
        1.49718         4.72123           1.976 
        1.50333         4.69332         1.95632 
        1.50947         4.65059         1.93695 
         1.5156          4.6282         1.91787 
        1.52172         4.60423         1.89904 
        1.52787         4.57009         1.88043 
          1.534         4.53273          1.8621 
        1.54013         4.51081         1.84402 
        1.54627         4.47346         1.82616 
        1.55241         4.44708         1.80852 
        1.55855         4.42882         1.79114 
        1.56467         4.39383         1.77404 
         1.5708         4.37585         1.75712 
        1.57695         4.33909         1.74038 
        1.58308         4.30074         1.72391 
        1.58922         4.29304         1.70763 
        1.59535         4.27126         1.69158 
         1.6015         4.22869          1.6757 
        1.60764         4.20011         1.66004 
        1.61376         4.18584         1.64462 
        1.61989         4.15802         1.62938 
        1.62604         4.13261          1.6143 
        1.63218         4.12186         1.59942 
        1.63831         4.08408         1.58477 
        1.64444         4.06637         1.57029 
        1.65059         4.02165         1.55596 
        1.65673         4.02597         1.54182 
        1.66285         3.98253         1.52789 
        1.66898          3.9609         1.51414 
        1.67512         3.94294         1.50053 
        1.68127         3.91691         1.48707 
         1.6874         3.90084          1.4738 
        1.69353          3.8648         1.46071 
        1.69967         3.85639         1.44774 
        1.70581         3.83625         1.43494 
        1.71193         3.80469         1.42234 
        1.71806         3.78984         1.40986 
        1.72421         3.76629         1.39751 
        1.73035         3.75047         1.38533 
        1.73649          3.7279         1.37328 
        1.74262         3.70277          1.3614 
        1.74876         3.69054         1.34964 
        1.75489         3.66731         1.33805 
        1.76101           3.641         1.32659 
        1.76715         3.62926         1.31526 
        1.77329         3.60519         1.30404 
        1.77943         3.57748         1.29295 
        1.78557         3.56778           1.282 
        1.79171         3.54817         1.27118 
        1.79785         3.52692         1.26048 
        1.80399         3.50847         1.24991 
        1.81012         3.48802         1.23947 
        1.81625         3.47337         1.22916 
        1.82239         3.45698         1.21894 
        1.82853         3.43174         1.20885 
        1.83466         3.41695         1.19888 
        1.84078          3.4042         1.18903 
        1.84692         3.39211         1.17928 
        1.85306         3.36518         1.16963 
         1.8592         3.34295         1.16009 
        1.86533           3.329         1.15067 
        1.87147         3.31398         1.14135 
        1.87761         3.29656         1.13212 
        1.88375         3.27569           1.123 
        1.88988         3.26526           1.114 
        1.89601         3.24551         1.10509 
        1.90215         3.22787         1.09627 
        1.90829         3.21057         1.08755 
        1.91442          3.1962         1.07892 
        1.92056          3.1842         1.07039 
         1.9267         3.16197         1.06195 
        1.93284         3.14901          1.0536 
        1.93897         3.13141         1.04535 
        1.94509         3.12299          1.0372 
        1.95123         3.10498         1.02912 
        1.95737         3.08191         1.02112 
        1.96349          3.0758         1.01323 
        1.96964         3.06123          1.0054 
        1.97578         3.03848        0.997642 
        1.98192         3.03183        0.989986 
        1.98805         3.01589        0.982409 
        1.99419         2.99743        0.974911 
        2.00033         2.99108        0.967487 
        2.00647         2.97176        0.960143 
         2.0126         2.96332        0.952887 
        2.01874         2.94235        0.945695 
        2.02488         2.93316         0.93857 
        2.03101         2.91448        0.931533 
        2.03714         2.89779        0.924573 
        2.04328         2.88679        0.917677 
        2.04941         2.86978        0.910857 
        2.05554         2.86136        0.904111 
        2.06167         2.84663        0.897423 
        2.06781         2.83725        0.890803 
        2.07396         2.82785        0.884239 
        2.08009         2.81234        0.877753 
        2.08622         2.79679        0.871339 
        2.09237         2.77951        0.864976 
        2.09851         2.77698        0.858676 
        2.10464         2.76367        0.852448 
        2.11077          2.7441         0.84629 
        2.11691         2.73217        0.840179 
        2.12305          2.7253        0.834127 
        2.12918          2.7164         0.82815 
        2.13531         2.70316         0.82223 
        2.14145         2.68923        0.816355 
         2.1476         2.67509         0.81053 
        2.15372         2.66106        0.804791 
        2.15985         2.66228        0.799102 
        2.16599         2.63852        0.793451 
        2.17213          2.6276        0.787861 
        2.17827         2.62215        0.782326 
         2.1844         2.60988        0.776849 
        2.19054          2.5941        0.771423 
        2.19666         2.58341        0.766056 
         2.2028         2.57258        0.760735 
        2.20893         2.56248        0.755462 
        2.21508         2.55138        0.750233 
        2.22122         2.53836        0.745051 
        2.22736         2.52968        0.739929 
        2.23349         2.52201        0.734856 
        2.23962         2.50899        0.729828 
        2.24577         2.50139        0.724843 
         2.2519          2.4945        0.719911 
        2.25802          2.4799        0.715032 
        2.26417         2.47249        0.710186 
        2.27031         2.45897        0.705379 
        2.27644         2.44581        0.700631 
        2.28257         2.43193        0.695926 
        2.28872         2.43315        0.691256 
        2.29486         2.41879         0.68663 
        2.30099         2.40597        0.682055 
        2.30712         2.39685         0.67752 
        2.31326         2.38507        0.673018 
         2.3194          2.3779         0.66856 
        2.32553         2.37294         0.66415 
        2.33166         2.36242        0.659781 
         2.3378         2.35052        0.655445 
        2.34394          2.3416        0.651147 
        2.35007         2.33117        0.646894 
        2.35619         2.32403        0.642683 
        2.36233         2.31403          0.6385 
        2.36848         2.30253        0.634346 
        2.37462         2.29982        0.630237 
        2.38075         2.28614        0.626168 
        2.38689         2.28276        0.622132 
        2.39303         2.26836        0.618132 
        2.39916          2.2606        0.614171 
        2.40529         2.25257        0.610245 
        2.41143         2.24322         0.60635 
        2.41757         2.23847        0.602488 
         2.4237         2.22919        0.598666 
        2.42983         2.21511        0.594878 
        2.43598         2.20802        0.591112 
        2.44211         2.19838        0.587385 
        2.44823         2.19276        0.583699 
        2.45437         2.18348        0.580033 
        2.46052         2.17814        0.576397 
        2.46665         2.16908        0.572797 
        2.47279         2.15794         0.56923 
        2.47892         2.15108        0.565691 
        2.48507         2.14505        0.562178 
         2.4912         2.13231        0.558702 
