# k  (h/Mpc)    P(k)  (Mpc/h)^3    P_linear(k)  (Mpc/h)^3
     0.00783031         12531.1         12692.2 
       0.013688         16233.4         16098.7 
       0.019231         16820.1           16806 
      0.0249154         15721.9           16056 
      0.0312784         14186.4         14372.2 
      0.0375637         12473.9         12523.2 
      0.0433917           10767           11002 
      0.0492413         9688.68         9795.39 
      0.0555754         8546.72         8845.41 
      0.0619321          8144.4         8168.13 
       0.067871         7422.51         7669.01 
      0.0738098         6959.19            7200 
      0.0800417         6360.68         6673.17 
      0.0862327         5878.45         6096.47 
      0.0921407         5407.72          5520.2 
      0.0982031         4829.44         4947.88 
       0.104506         4467.18         4421.27 
       0.110769         4061.03         3997.84 
       0.116806         3754.19         3689.75 
       0.122832         3548.05         3466.16 
       0.129052          3301.6         3295.78 
       0.135211          3165.1         3155.13 
       0.141259         3064.41         3016.71 
       0.147318         2923.74         2860.75 
       0.153489         2706.71         2679.96 
       0.159709         2564.66         2483.41 
       0.165845         2450.33         2290.26 
       0.171974         2288.15         2113.37 
       0.178125          2158.8         1962.74 
       0.184229         2053.13         1843.89 
        0.19034         1932.13         1752.98 
       0.196428         1899.91         1683.11 
       0.202534         1837.46         1624.29 
       0.208729         1764.73         1566.72 
       0.214876         1696.53         1504.92 
       0.220989         1646.83         1436.06 
       0.227147         1572.96         1360.48 
        0.23329         1508.73         1282.86 
       0.239377         1480.61         1208.75 
       0.245482         1384.37         1141.49 
       0.251667         1374.09         1083.21 
       0.257832         1320.26         1035.34 
       0.263955         1278.28         996.379 
       0.270079         1236.27         963.237 
        0.27624         1225.47          932.59 
       0.282372         1174.63         902.116 
        0.28843         1165.75         870.378 
       0.294538         1108.94         836.375 
       0.300721         1103.82          800.66 
        0.30691         1058.28         765.005 
       0.313033            1038         731.431 
       0.319153         1017.82         700.763 
       0.325316         984.673         673.451 
        0.33145         962.581          649.72 
       0.337538         948.178         629.008 
       0.343633         924.648         610.148 
       0.349808         894.714         591.986 
       0.355968         889.596         574.018 
       0.362074         879.111         555.897 
       0.368217         852.971         537.348 
       0.374374         820.355          518.66 
       0.380519         819.928         500.408 
       0.386598         799.005         483.179 
       0.392688         796.717         467.085 
        0.39888         773.018         452.099 
       0.405048         762.596         438.449 
       0.411186         751.318         425.955 
       0.417313         735.945         414.239 
       0.423458         724.607         402.926 
       0.429607          713.34         391.831 
       0.435692         698.694         380.937 
       0.441815         693.741         370.031 
       0.447964         679.209         359.253 
       0.454126         669.725         348.745 
       0.460267         655.945         338.688 
       0.466387         648.761         329.192 
        0.47254         640.806         320.215 
       0.478662           637.1           311.8 
       0.484765         618.611         303.867 
       0.490885         614.565         296.278 
       0.497035         601.885         288.913 
       0.503198         597.137         281.709 
       0.509342         591.434         274.674 
       0.515458         587.247         267.818 
       0.521598         573.777         261.084 
       0.527764         562.617          254.51 
       0.533884         561.643         248.214 
           0.54         554.711         242.184 
       0.546137         551.928         236.392 
       0.552299         542.725         230.819 
       0.558452         539.641         225.481 
       0.564573         531.906         220.369 
       0.570708         525.695         215.409 
       0.576825         512.103         210.598 
       0.582926         513.202         205.911 
       0.589034          508.66         201.332 
       0.595184         504.032         196.844 
       0.601379         497.431         192.454 
       0.607522         490.364         188.233 
       0.613639          490.16         184.163 
       0.619772         478.273         180.218 
       0.625918         476.691         176.399 
       0.632068         470.152         172.707 
       0.638161         468.559         169.164 
         0.6443          459.88         165.696 
       0.650464         457.588         162.307 
       0.656582         455.402         159.026 
       0.662703         452.775         155.827 
       0.668861         444.787         152.694 
       0.675024          441.49         149.643 
       0.681124          438.63         146.707 
       0.687237         434.682         143.847 
       0.693381         429.007         141.053 
       0.699536         423.379         138.331 
       0.705665         422.108         135.696 
       0.711789         419.131         133.134 
       0.717957         415.727         130.623 
        0.72409         412.553         128.192 
       0.730186         407.858         125.838 
       0.736317         404.386          123.53 
       0.742472         402.795         121.269 
       0.748622         398.351         119.066 
        0.75476         393.791         116.921 
       0.760888         389.623         114.831 
       0.767043         390.376         112.785 
       0.773185         385.242         110.794 
       0.779291         380.636         108.863 
       0.785407         378.891         106.978 
       0.791564         374.421         105.126 
       0.797719         372.063          103.32 
       0.803834         369.025         101.569 
       0.809972         367.593         99.8525 
       0.816124         367.367         98.1718 
       0.822261         361.576          96.534 
       0.828378         359.711         94.9382 
       0.834502         356.661          93.377 
       0.840667          353.12         91.8407 
       0.846816         351.698         90.3434 
       0.852925         348.906          88.889 
       0.859047         347.374         87.4639 
       0.865192         343.546         86.0657 
       0.871341         340.925         84.6974 
       0.877463         339.428         83.3654 
       0.883569          337.27         82.0657 
       0.889708         334.481         80.7873 
       0.895864          331.34         79.5331 
       0.902008           329.6         78.3083 
       0.908149          327.42         77.1102 
       0.914301         323.984         75.9352 
       0.920448         321.934          74.786 
       0.926574         318.539         73.6646 
       0.932687         318.908         72.5687 
       0.938823         315.094         71.4912 
       0.944975         314.486         70.4332 
       0.951105         311.548         69.4006 
       0.957225         309.357         68.3905 
       0.963368         306.006         67.3971 
       0.969511         304.423         66.4236 
       0.975621         302.125         65.4746 
       0.981748         301.963         64.5419 
       0.987916          299.46         63.6215 
        0.99406         294.832         62.7226 
        1.00019         294.894          61.843 
        1.00632         293.023         60.9812 
        1.01246         290.471         60.1345 
        1.01859         290.947         59.3054 
        1.02471          286.56         58.4931 
        1.03085         284.629         57.6932 
        1.03698         283.812         56.9101 
        1.04314         280.926         56.1382 
        1.04929         278.904         55.3825 
        1.05541          279.28         54.6439 
        1.06154         274.977         53.9169 
        1.06769         274.466         53.2022 
        1.07382         272.723         52.5028 
        1.07993          270.73         51.8176 
        1.08607         269.861         51.1419 
        1.09222         267.718         50.4776 
        1.09836          265.73         49.8259 
        1.10449          263.14         49.1866 
        1.11063         260.924         48.5577 
        1.11677         260.746         47.9401 
         1.1229         258.908         47.3344 
        1.12903         257.109         46.7386 
        1.13518         255.363         46.1526 
        1.14131         253.597         45.5771 
        1.14745         253.084         45.0116 
        1.15359         250.766         44.4557 
        1.15973         249.485          43.909 
        1.16584         247.392          43.374 
        1.17197         247.272         42.8471 
        1.17811         244.557         42.3274 
        1.18424         243.161         41.8179 
        1.19038         242.274         41.3153 
        1.19652         240.434         40.8211 
        1.20267          239.82         40.3351 
        1.20881         237.784         39.8571 
        1.21495         236.191         39.3876 
        1.22108          235.01         38.9258 
         1.2272         233.259         38.4725 
        1.23334         232.069         38.0254 
        1.23949         230.779         37.5844 
        1.24562         229.648         37.1516 
        1.25174         227.472         36.7263 
        1.25789         226.031         36.3064 
        1.26402         224.688         35.8939 
        1.27014         223.337         35.4887 
        1.27628         222.212         35.0887 
        1.28244         221.946          34.694 
        1.28858         219.504          34.306 
        1.29471         217.685         33.9247 
        1.30084          217.01         33.5497 
        1.30697         215.465         33.1798 
        1.31312          213.65         32.8149 
        1.31925         213.427         32.4567 
        1.32537          212.19         32.1042 
        1.33151         210.113         31.7556 
        1.33765         208.914         31.4125 
        1.34378          208.17         31.0751 
        1.34992         207.095         30.7425 
        1.35606         206.835          30.414 
         1.3622         204.851         30.0909 
        1.36833         202.881         29.7733 
        1.37445         202.052         29.4604 
        1.38059         200.498         29.1511 
        1.38675         199.731         28.8455 
        1.39288         198.433         28.5454 
        1.39901         198.211         28.2498 
        1.40515         196.266         27.9577 
         1.4113         195.084         27.6699 
        1.41742         193.927         27.3872 
        1.42355         192.625         27.1079 
         1.4297         191.421         26.8317 
        1.43585         190.434         26.5595 
        1.44198         189.377         26.2921 
        1.44809         188.603         26.0289 
        1.45423         187.258         25.7683 
        1.46036         186.403         25.5118 
        1.46649         184.962         25.2586 
        1.47263         183.673         25.0087 
        1.47877          182.91         24.7624 
        1.48491         181.409         24.5189 
        1.49104         180.923         24.2792 
        1.49718         179.031         24.0426 
        1.50333         178.535         23.8087 
        1.50947         177.809         23.5785 
         1.5156         176.211         23.3516 
        1.52172         175.456         23.1277 
        1.52787         174.036         22.9064 
          1.534         173.695         22.6882 
        1.54013         172.219          22.473 
        1.54627         171.503         22.2603 
        1.55241          170.19         22.0503 
        1.55855         169.229         21.8433 
        1.56467         168.201         21.6395 
         1.5708         167.583         21.4377 
        1.57695         166.315         21.2383 
        1.58308         165.724         21.0418 
        1.58922         164.539         20.8477 
        1.59535         163.326         20.6561 
         1.6015         163.013         20.4666 
        1.60764         161.742         20.2796 
        1.61376         160.646         20.0954 
        1.61989          159.84         19.9134 
        1.62604         159.004         19.7333 
        1.63218         158.198         19.5555 
        1.63831         157.086         19.3803 
        1.64444         156.478         19.2071 
        1.65059         155.351         19.0357 
        1.65673          154.19         18.8666 
        1.66285         153.868            18.7 
        1.66898         152.691         18.5353 
        1.67512         152.416         18.3723 
        1.68127         150.753         18.2112 
         1.6874         149.795         18.0523 
        1.69353          149.51         17.8954 
        1.69967         148.427           17.74 
        1.70581         147.589         17.5865 
        1.71193          146.68         17.4354 
        1.71806         146.149         17.2858 
        1.72421         145.107         17.1376 
        1.73035         144.786         16.9913 
        1.73649         143.852         16.8468 
        1.74262          142.73         16.7041 
        1.74876         142.187         16.5629 
        1.75489         140.987         16.4236 
        1.76101         140.315          16.286 
        1.76715          139.68         16.1498 
        1.77329         139.289          16.015 
        1.77943         138.012         15.8817 
        1.78557         137.375           15.75 
        1.79171         136.641         15.6199 
        1.79785         135.759         15.4912 
        1.80399         135.008         15.3639 
        1.81012         134.257         15.2383 
        1.81625         133.611         15.1141 
        1.82239         133.066         14.9911 
        1.82853         132.298         14.8696 
        1.83466         131.412         14.7495 
        1.84078         130.949         14.6309 
        1.84692         129.689         14.5134 
        1.85306         129.543          14.397 
         1.8592         128.514         14.2821 
        1.86533         127.545         14.1685 
        1.87147         126.908          14.056 
        1.87761         126.474         13.9447 
        1.88375         125.279         13.8347 
        1.88988         124.879          13.726 
        1.89601         124.042         13.6184 
        1.90215         123.469         13.5119 
        1.90829         122.869         13.4066 
        1.91442         122.199         13.3024 
        1.92056         121.484         13.1994 
         1.9267             121         13.0974 
        1.93284          120.41         12.9964 
        1.93897         119.417         12.8967 
        1.94509         119.061         12.7982 
        1.95123         118.389         12.7005 
        1.95737         117.806         12.6038 
        1.96349         117.144         12.5083 
        1.96964         116.137         12.4135 
        1.97578         115.539         12.3197 
        1.98192         115.283          12.227 
        1.98805         114.233         12.1353 
        1.99419         113.914         12.0444 
        2.00033         113.142         11.9545 
        2.00647         112.688         11.8656 
         2.0126         111.777         11.7776 
        2.01874         111.297         11.6905 
        2.02488         110.807         11.6041 
        2.03101         109.986         11.5188 
        2.03714          109.42         11.4344 
        2.04328         108.998         11.3508 
        2.04941         108.307          11.268 
        2.05554         107.571         11.1862 
        2.06167         107.292          11.105 
        2.06781          106.66         11.0247 
        2.07396         105.859          10.945 
        2.08009         105.424         10.8663 
        2.08622         104.968         10.7884 
        2.09237         104.097         10.7111 
        2.09851         103.763         10.6346 
        2.10464         103.192         10.5589 
        2.11077         102.731         10.4841 
        2.11691         102.236         10.4098 
        2.12305         101.297         10.3362 
        2.12918         100.859         10.2636 
        2.13531         100.454         10.1916 
        2.14145         99.7104         10.1201 
         2.1476         99.1335         10.0493 
        2.15372         98.7868         9.97947 
        2.15985         98.3995         9.91024 
        2.16599         97.7945         9.84147 
        2.17213          97.072         9.77343 
        2.17827         96.8258         9.70605 
         2.1844         96.0335         9.63936 
        2.19054         95.7595         9.57327 
        2.19666         95.2751          9.5079 
         2.2028         94.7095         9.44308 
        2.20893         94.1463         9.37884 
        2.21508         93.5493         9.31511 
        2.22122         93.1135         9.25196 
        2.22736         92.7395         9.18953 
        2.23349         92.3478         9.12768 
        2.23962         91.6115         9.06637 
        2.24577         91.3231         9.00557 
         2.2519         90.9349         8.94542 
        2.25802         90.1129          8.8859 
        2.26417         89.8139         8.82677 
        2.27031         89.3471         8.76811 
        2.27644         88.8359         8.71016 
        2.28257         88.3615         8.65273 
        2.28872         87.8556         8.59572 
        2.29486         87.3932         8.53923 
        2.30099         86.9738         8.48336 
        2.30712         86.5299         8.42797 
        2.31326         86.0877         8.37297 
         2.3194         85.5511          8.3185 
        2.32553         85.1723         8.26461 
        2.33166         84.7107         8.21121 
         2.3378          84.227         8.15822 
        2.34394         83.8757         8.10567 
        2.35007         83.3145         8.05366 
        2.35619         82.9626         8.00217 
        2.36233         82.5161         7.95101 
        2.36848         82.0222         7.90019 
        2.37462         81.5763         7.84992 
        2.38075         81.2925         7.80014 
        2.38689         80.7433         7.75074 
        2.39303         80.2879         7.70179 
        2.39916         79.8961          7.6533 
        2.40529         79.6799         7.60524 
        2.41143          79.102         7.55755 
        2.41757         78.7577         7.51025 
         2.4237         78.4221         7.46344 
        2.42983         77.9313         7.41704 
        2.43598         77.5474          7.3709 
        2.44211         77.2088         7.32523 
        2.44823         76.8052         7.28006 
        2.45437         76.2647         7.23513 
        2.46052         75.8652         7.19055 
        2.46665         75.5842         7.14643 
        2.47279         75.1806         7.10268 
        2.47892         74.8294         7.05928 
        2.48507         74.2946          7.0162 
         2.4912         74.0191         6.97355 
