# k  (h/Mpc)    P(k)  (Mpc/h)^3    P_linear(k)  (Mpc/h)^3
     0.00783031         6546.55         6636.75 
       0.013688         8278.17         8246.28 
       0.019231         8465.92         8460.82 
      0.0249154         7858.69         7970.27 
      0.0312784          7025.4         7072.22 
      0.0375637         6168.54         6166.86 
      0.0433917         5401.05         5463.98 
      0.0492413         4903.06         4925.66 
      0.0555754         4410.18         4498.52 
      0.0619321         4176.12         4165.09 
       0.067871         3813.73         3879.76 
      0.0738098         3520.06          3583.5 
      0.0800417          3169.7         3251.94 
      0.0862327         2871.19         2917.55 
      0.0921407         2605.28         2618.96 
      0.0982031         2332.62         2355.52 
       0.104506         2166.88         2139.14 
       0.110769         2002.32         1979.23 
       0.116806         1872.14         1863.95 
       0.122832         1787.43         1769.64 
       0.129052         1668.44         1677.24 
       0.135211          1576.4         1579.61 
       0.141259         1494.04         1475.01 
       0.147318         1397.82         1365.62 
       0.153489         1281.05         1257.43 
       0.159709          1200.7          1159.7 
       0.165845         1142.14         1079.25 
       0.171974         1070.29         1015.41 
       0.178125         1019.98         965.012 
       0.184229         980.486          923.59 
        0.19034         919.421          885.42 
       0.196428         899.843          846.65 
       0.202534          868.26         805.137 
       0.208729         821.678         760.721 
       0.214876         775.134         716.388 
       0.220989         748.008         674.579 
       0.227147         705.463         636.838 
        0.23329         675.963         604.539 
       0.239377         659.322         577.603 
       0.245482          617.15         554.521 
       0.251667         610.134         533.538 
       0.257832         588.789           513.5 
       0.263955         568.251         493.446 
       0.270079         547.558         472.866 
        0.27624         538.634         451.938 
       0.282372         515.749         431.517 
        0.28843         499.984          412.45 
       0.294538         476.952         394.858 
       0.300721         472.572          378.92 
        0.30691         450.769         364.714 
       0.313033         440.918         351.978 
       0.319153         425.432         340.097 
       0.325316         414.048         328.547 
        0.33145         401.305         317.208 
       0.337538         395.764         306.019 
       0.343633         382.554         294.983 
       0.349808         370.369          284.15 
       0.355968          365.28         273.879 
       0.362074         356.486         264.372 
       0.368217         346.907         255.501 
       0.374374         334.632         247.267 
       0.380519         329.829         239.573 
       0.386598         321.721         232.336 
       0.392688         318.282         225.348 
        0.39888          309.59         218.418 
       0.405048         302.843          211.68 
       0.411186         296.384         205.154 
       0.417313         290.757         198.858 
       0.423458          285.11         192.818 
       0.429607          278.66         187.077 
       0.435692         270.984         181.692 
       0.441815         269.054         176.558 
       0.447964         264.136         171.649 
       0.454126         253.767          166.93 
       0.460267         250.945         162.392 
       0.466387         247.858         158.012 
        0.47254         242.585         153.735 
       0.478662         240.942         149.608 
       0.484765         234.008         145.634 
       0.490885         230.742         141.797 
       0.497035         227.484         138.093 
       0.503198         221.791         134.534 
       0.509342         219.224         131.131 
       0.515458          216.32         127.875 
       0.521598         213.091         124.722 
       0.527764         209.713         121.658 
       0.533884         206.704         118.713 
           0.54          203.64         115.862 
       0.546137         202.384         113.087 
       0.552299         198.628         110.389 
       0.558452         195.618         107.783 
       0.564573         192.309         105.278 
       0.570708         189.215         102.854 
       0.576825         186.837         100.519 
       0.582926         184.082         98.2657 
       0.589034         181.496         96.0801 
       0.595184         179.659         93.9467 
       0.601379         177.869         91.8632 
       0.607522           173.9         89.8586 
       0.613639         173.323         87.9207 
       0.619772         169.477         86.0341 
       0.625918         167.919          84.199 
       0.632068         166.025         82.4171 
       0.638161         164.743         80.7043 
         0.6443         162.307         79.0299 
       0.650464         160.627         77.3985 
       0.656582         158.908         75.8259 
       0.662703          156.55         74.2967 
       0.668861         154.542         72.8009 
       0.675024         152.812         71.3446 
       0.681124           151.8         69.9426 
       0.687237         149.127         68.5756 
       0.693381         147.262          67.239 
       0.699536         146.074         65.9362 
       0.705665         146.312         64.6741 
       0.711789         142.748         63.4468 
       0.717957         142.235         62.2433 
        0.72409         140.247          61.078 
       0.730186         138.019         59.9498 
       0.736317           137.5         58.8441 
       0.742472         136.428         57.7623 
       0.748622         135.266         56.7089 
        0.75476         133.961         55.6841 
       0.760888         132.102         54.6863 
       0.767043         131.176         53.7093 
       0.773185         129.806         52.7584 
       0.779291         128.251         51.8361 
       0.785407         127.433         50.9347 
       0.791564         126.123         50.0492 
       0.797719         124.425         49.1855 
       0.803834         123.898         48.3477 
       0.809972         122.153         47.5266 
       0.816124         121.859         46.7228 
       0.822261         120.547         45.9399 
       0.828378         119.423         45.1774 
       0.834502           118.8         44.4317 
       0.840667         117.339         43.6981 
       0.846816         116.232         42.9831 
       0.852925         115.252         42.2888 
       0.859047         113.921         41.6085 
       0.865192          113.47          40.941 
       0.871341         112.377         40.2877 
       0.877463         111.181         39.6518 
       0.883569         110.401         39.0313 
       0.889708         109.714         38.4209 
       0.895864         108.737         37.8221 
       0.902008         107.921         37.2375 
       0.908149         107.273         36.6656 
       0.914301         106.104         36.1048 
       0.920448         105.459         35.5564 
       0.926574         104.721         35.0213 
       0.932687         104.237         34.4984 
       0.938823         102.695         33.9844 
       0.944975         102.074         33.4798 
       0.951105         101.361         32.9873 
       0.957225         100.117         32.5055 
       0.963368         99.7428         32.0318 
       0.969511         99.2868         31.5676 
       0.975621         98.7999         31.1152 
       0.981748         97.8699         30.6704 
       0.987916         96.9999         30.2317 
        0.99406         96.4694         29.8032 
        1.00019         95.5097         29.3839 
        1.00632         95.1012          28.973 
        1.01246         94.2413         28.5695 
        1.01859         93.0381         28.1743 
        1.02471         93.3935         27.7872 
        1.03085         92.3478          27.406 
        1.03698         91.6241         27.0328 
        1.04314         90.7634          26.665 
        1.04929         90.3305         26.3049 
        1.05541         89.6324         25.9529 
        1.06154           89.26         25.6065 
        1.06769          88.703          25.266 
        1.07382         88.3332         24.9327 
        1.07993         87.7566         24.6063 
        1.08607          86.968         24.2844 
        1.09222         86.5129          23.968 
        1.09836         85.8861         23.6575 
        1.10449         85.3609          23.353 
        1.11063         84.7778         23.0535 
        1.11677         84.2817         22.7594 
         1.1229         83.5986         22.4709 
        1.12903         82.6986         22.1872 
        1.13518         82.9536         21.9082 
        1.14131         82.3305         21.6341 
        1.14745         81.3623         21.3649 
        1.15359         81.1206         21.1003 
        1.15973         80.6353           20.84 
        1.16584         80.0538         20.5853 
        1.17197         79.5789         20.3346 
        1.17811         79.1503         20.0872 
        1.18424         78.4527         19.8447 
        1.19038         78.0675         19.6055 
        1.19652         77.7567         19.3704 
        1.20267         77.1268         19.1391 
        1.20881         76.7229         18.9117 
        1.21495         76.1216         18.6883 
        1.22108         75.6992         18.4686 
         1.2272         75.1309          18.253 
        1.23334         74.8244         18.0403 
        1.23949         74.4668         17.8305 
        1.24562         74.1175         17.6246 
        1.25174         73.6715         17.4223 
        1.25789         73.2683         17.2226 
        1.26402         72.7968         17.0264 
        1.27014         72.0888         16.8337 
        1.27628         71.9831         16.6434 
        1.28244         71.3109         16.4557 
        1.28858         71.0239         16.2712 
        1.29471          70.778         16.0899 
        1.30084         70.2831         15.9115 
        1.30697         69.7885         15.7356 
        1.31312         69.4079         15.5621 
        1.31925         69.2448         15.3917 
        1.32537         68.8289         15.2241 
        1.33151         68.2109         15.0584 
        1.33765         67.9521         14.8952 
        1.34378         67.5239         14.7348 
        1.34992         67.1286         14.5766 
        1.35606          66.777         14.4205 
         1.3622         66.2611         14.2669 
        1.36833         66.1129         14.1159 
        1.37445         65.7595         13.9672 
        1.38059          65.265         13.8201 
        1.38675          64.943         13.6749 
        1.39288         64.5351         13.5323 
        1.39901         64.3785         13.3918 
        1.40515         64.0139          13.253 
         1.4113         63.6587         13.1162 
        1.41742         63.3528         12.9819 
        1.42355         62.9162         12.8492 
         1.4297         62.5967         12.7179 
        1.43585         62.2486         12.5886 
        1.44198         62.0118         12.4616 
        1.44809         61.6461         12.3365 
        1.45423         61.4205         12.2127 
        1.46036         61.0678         12.0908 
        1.46649         60.6981         11.9706 
        1.47263          60.369         11.8519 
        1.47877         60.2034         11.7349 
        1.48491         59.9104         11.6192 
        1.49104         59.4502         11.5054 
        1.49718         59.0406          11.393 
        1.50333         58.8647         11.2819 
        1.50947         58.5162         11.1725 
         1.5156         58.2415         11.0648 
        1.52172         58.0045         10.9585 
        1.52787         57.8338         10.8533 
          1.534         57.4708         10.7497 
        1.54013         57.1245         10.6475 
        1.54627         56.9258         10.5465 
        1.55241         56.5453         10.4468 
        1.55855         56.1696         10.3485 
        1.56467         55.7834         10.2517 
         1.5708         55.7743         10.1559 
        1.57695         55.4655         10.0612 
        1.58308         55.1931          9.9679 
        1.58922         55.0771         9.87574 
        1.59535         54.7667         9.78477 
         1.6015         54.3065         9.69482 
        1.60764          54.198         9.60605 
        1.61376         53.8813         9.51863 
        1.61989         53.4644         9.43223 
        1.62604         53.3782         9.34671 
        1.63218         53.1768          9.2623 
        1.63831         52.8617         9.17914 
        1.64444          52.627         9.09696 
        1.65059         52.1794         9.01559 
        1.65673         52.0238         8.93531 
        1.66285         51.8026         8.85623 
        1.66898         51.4975         8.77809 
        1.67512           51.23         8.70073 
        1.68127         50.9296         8.62424 
         1.6874         50.8374         8.54884 
        1.69353         50.4866         8.47439 
        1.69967         50.2849         8.40065 
        1.70581         50.1965         8.32781 
        1.71193         49.8542         8.25612 
        1.71806         49.4812         8.18512 
        1.72421         49.3418         8.11481 
        1.73035           49.05         8.04541 
        1.73649         48.7362         7.97684 
        1.74262         48.6496         7.90912 
        1.74876         48.5211         7.84214 
        1.75489         48.1423         7.77607 
        1.76101         47.9865         7.71079 
        1.76715         47.7021         7.64616 
        1.77329         47.4604          7.5822 
        1.77943         47.3259         7.51894 
        1.78557         47.1318          7.4565 
        1.79171          46.799         7.39476 
        1.79785         46.5952          7.3337 
        1.80399         46.4106         7.27335 
        1.81012         46.2659         7.21375 
        1.81625         45.8387         7.15486 
        1.82239         45.7254         7.09653 
        1.82853         45.3797         7.03888 
        1.83466         45.3196         6.98192 
        1.84078          44.935         6.92566 
        1.84692         44.8041         6.86992 
        1.85306          44.605         6.81473 
         1.8592         44.3831         6.76024 
        1.86533         44.1635         6.70637 
        1.87147         44.0137         6.65302 
        1.87761         43.8642         6.60023 
        1.88375           43.62         6.54808 
        1.88988         43.5663         6.49654 
        1.89601         43.2152         6.44553 
        1.90215         43.0492         6.39503 
        1.90829         42.9405          6.3451 
        1.91442         42.6744         6.29569 
        1.92056         42.5083         6.24685 
         1.9267         42.1738         6.19848 
        1.93284          41.985          6.1506 
        1.93897         41.8977         6.10331 
        1.94509         41.6351         6.05662 
        1.95123         41.5114          6.0103 
        1.95737         41.2824         5.96443 
        1.96349         41.0768         5.91916 
        1.96964         40.8809         5.87423 
        1.97578         40.7467         5.82974 
        1.98192         40.5223         5.78581 
        1.98805         40.3806         5.74232 
        1.99419         40.0792         5.69928 
        2.00033          39.935         5.65665 
        2.00647         39.7913         5.61448 
         2.0126         39.5978          5.5728 
        2.01874         39.4459         5.53148 
        2.02488         39.3291         5.49055 
        2.03101         39.0446          5.4501 
        2.03714         38.8744          5.4101 
        2.04328         38.6752         5.37046 
        2.04941         38.5112         5.33125 
        2.05554         38.2969         5.29245 
        2.06167         38.2103         5.25399 
        2.06781         38.0064         5.21591 
        2.07396         37.7979         5.17815 
        2.08009         37.6775         5.14083 
        2.08622           37.48         5.10392 
        2.09237         37.3036         5.06729 
        2.09851         37.0876         5.03103 
        2.10464         37.0103         4.99517 
        2.11077         36.7995         4.95971 
        2.11691         36.6673         4.92452 
        2.12305         36.4496         4.88966 
        2.12918          36.388         4.85523 
        2.13531         36.1741         4.82112 
        2.14145          36.068         4.78726 
         2.1476         35.8172         4.75369 
        2.15372         35.6451         4.72061 
        2.15985         35.5551         4.68781 
        2.16599         35.4581         4.65522 
        2.17213         35.3554         4.62299 
        2.17827         35.0093         4.59106 
         2.1844          34.888         4.55946 
        2.19054          34.723         4.52816 
        2.19666         34.5938         4.49718 
         2.2028         34.4711         4.46648 
        2.20893         34.3461         4.43604 
        2.21508         34.1603         4.40585 
        2.22122         33.9684         4.37593 
        2.22736         33.8524         4.34636 
        2.23349         33.7262         4.31706 
        2.23962         33.5326         4.28802 
        2.24577         33.3541         4.25922 
         2.2519         33.2305         4.23072 
        2.25802         33.1336         4.20253 
        2.26417         32.9681         4.17452 
        2.27031         32.8654         4.14673 
        2.27644         32.6484         4.11928 
        2.28257         32.5412         4.09208 
        2.28872         32.3773         4.06508 
        2.29486           32.28         4.03832 
        2.30099         32.1619         4.01186 
        2.30712         32.0058         3.98562 
        2.31326         31.8894         3.95958 
         2.3194         31.7408         3.93378 
        2.32553         31.5624         3.90825 
        2.33166          31.413         3.88296 
         2.3378         31.3133         3.85786 
        2.34394         31.1244         3.83298 
        2.35007         30.9963         3.80835 
        2.35619         30.9598         3.78396 
        2.36233         30.8157         3.75973 
        2.36848         30.5884         3.73566 
        2.37462         30.5208         3.71186 
        2.38075         30.3564         3.68828 
        2.38689         30.2667         3.66489 
        2.39303         30.1143          3.6417 
        2.39916          29.941         3.61874 
        2.40529         29.7882         3.59598 
        2.41143         29.7075          3.5734 
        2.41757          29.581           3.551 
         2.4237         29.4541         3.52884 
        2.42983         29.3527         3.50687 
        2.43598          29.199         3.48502 
        2.44211         29.0908          3.4634 
        2.44823         28.9272         3.44201 
        2.45437         28.8611         3.42074 
        2.46052         28.7039         3.39963 
        2.46665         28.6062         3.37874 
        2.47279         28.4865         3.35803 
        2.47892         28.3198         3.33748 
        2.48507         28.2107         3.31708 
         2.4912          28.123         3.29689 
