# k  (h/Mpc)    Pcb(k)  (Mpc/h)^3    Pcb_linear(k)  (Mpc/h)^3
     0.00783031         9485.58         9610.57 
       0.013688         11810.7         11739.4 
       0.019231         11671.3         11645.6 
      0.0249154         10299.1         10456.2 
      0.0312784         8664.38         8713.89 
      0.0375637         7187.43         7159.64 
      0.0433917         6035.75         6087.77 
      0.0492413         5371.25         5374.82 
      0.0555754         4813.51         4903.32 
      0.0619321         4616.99         4588.11 
       0.067871         4239.03         4309.68 
      0.0738098         3907.91         3974.24 
      0.0800417         3466.91         3549.44 
      0.0862327         3062.68         3095.78 
      0.0921407         2708.76          2691.5 
      0.0982031         2361.11         2352.19 
       0.104506         2168.28         2100.96 
       0.110769          2003.2         1945.08 
       0.116806          1895.5         1856.13 
       0.122832         1832.43         1793.34 
       0.129052         1725.23         1723.14 
       0.135211         1633.64         1627.84 
       0.141259         1540.66          1506.5 
       0.147318         1422.06         1369.11 
       0.153489         1281.18         1231.66 
       0.159709         1185.47         1112.89 
       0.165845         1119.23         1024.27 
       0.171974         1051.55         964.294 
       0.178125         1007.63         925.977 
       0.184229         974.179         899.179 
        0.19034         919.589         872.872 
       0.196428         902.439         839.484 
       0.202534         869.076         796.023 
       0.208729         817.364         744.027 
       0.214876         766.909         690.142 
       0.220989         732.726         640.346 
       0.227147         691.395         598.436 
        0.23329         661.041         566.539 
       0.239377         645.676          543.67 
       0.245482         604.798         526.571 
       0.251667         600.391         511.553 
       0.257832         579.812         495.616 
       0.263955          559.74         476.915 
       0.270079         537.184         455.194 
        0.27624         527.577         431.523 
       0.282372         504.709         408.113 
        0.28843         488.658         386.961 
       0.294538         464.242         368.758 
       0.300721         460.106         353.838 
        0.30691         439.169         341.797 
       0.313033         430.087         331.687 
       0.319153         415.664         322.124 
       0.325316         404.516         312.126 
        0.33145         391.645         301.296 
       0.337538         385.538         289.799 
       0.343633         372.394          277.97 
       0.349808          359.54          266.34 
       0.355968         354.771         255.649 
       0.362074         346.911         246.264 
       0.368217         337.273         238.088 
       0.374374         324.056         230.886 
       0.380519         320.621         224.346 
       0.386598         312.323         218.103 
       0.392688          309.03         211.787 
        0.39888         300.578         205.206 
       0.405048         293.414         198.496 
       0.411186           287.4         191.854 
       0.417313         281.811         185.469 
       0.423458         275.898         179.457 
       0.429607         270.161         173.936 
       0.435692         262.693         168.968 
       0.441815         260.493         164.348 
       0.447964         255.236         159.977 
       0.454126          246.03         155.751 
       0.460267         242.774         151.588 
       0.466387         239.831         147.438 
        0.47254         234.429         143.305 
       0.478662         233.416         139.277 
       0.484765         225.717         135.393 
       0.490885         222.743          131.68 
       0.497035         219.281         128.173 
       0.503198         214.267         124.875 
       0.509342         211.929         121.757 
       0.515458          208.99         118.784 
       0.521598         205.019         115.897 
       0.527764         202.099         113.069 
       0.533884         199.438         110.313 
           0.54         196.299         107.604 
       0.546137         194.984         104.952 
       0.552299         191.068         102.379 
       0.558452         188.795          99.915 
       0.564573         185.737          97.567 
       0.570708         182.141         95.3082 
       0.576825         179.847         93.1438 
       0.582926         177.063         91.0635 
       0.589034         175.022         89.0481 
       0.595184          172.96         87.0758 
       0.601379         170.915         85.1362 
       0.607522         167.529         83.2564 
       0.613639         166.597         81.4312 
       0.619772         163.006         79.6544 
       0.625918         161.493         77.9329 
       0.632068         159.463         76.2708 
       0.638161          158.29         74.6811 
         0.6443         155.973         73.1304 
       0.650464         154.339         71.6198 
       0.656582         152.436         70.1614 
       0.662703         150.822         68.7402 
       0.668861         148.344         67.3478 
       0.675024         146.572         65.9917 
       0.681124         145.783         64.6864 
       0.687237         143.277         63.4144 
       0.693381         141.211         62.1719 
       0.699536         140.237         60.9616 
       0.705665         139.895         59.7897 
       0.711789         136.963         58.6502 
       0.717957          136.58         57.5331 
        0.72409         134.557         56.4514 
       0.730186         132.537         55.4042 
       0.736317         131.626          54.378 
       0.742472         130.739         53.3742 
       0.748622         129.441         52.3969 
        0.75476         128.274         51.4466 
       0.760888         126.483         50.5216 
       0.767043         125.892         49.6161 
       0.773185         124.504         48.7349 
       0.779291         122.574         47.8805 
       0.785407         122.006         47.0456 
       0.791564         120.915         46.2255 
       0.797719          118.92         45.4255 
       0.803834         118.371         44.6496 
       0.809972         117.036          43.889 
       0.816124         116.644         43.1446 
       0.822261         115.397         42.4196 
       0.828378         114.325         41.7135 
       0.834502         113.861          41.023 
       0.840667         112.197         40.3439 
       0.846816         111.006         39.6822 
       0.852925         110.376         39.0397 
       0.859047         109.002         38.4102 
       0.865192          108.33         37.7928 
       0.871341         107.375         37.1886 
       0.877463         106.257         36.6006 
       0.883569         105.692         36.0269 
       0.889708         104.809         35.4628 
       0.895864         103.819         34.9094 
       0.902008         103.039          34.369 
       0.908149         102.475         33.8406 
       0.914301         101.405         33.3224 
       0.920448         100.641         32.8157 
       0.926574         99.9239         32.3214 
       0.932687         99.7175         31.8384 
       0.938823         98.1392         31.3636 
       0.944975         97.1957         30.8975 
       0.951105         96.7373         30.4427 
       0.957225         95.6514         29.9978 
       0.963368         94.9748         29.5604 
       0.969511          94.749         29.1317 
       0.975621         94.2333         28.7139 
       0.981748         93.4368         28.3033 
       0.987916         92.4746         27.8982 
        0.99406         91.8543         27.5026 
        1.00019         91.3076         27.1156 
        1.00632         90.5897         26.7364 
        1.01246         89.9798         26.3639 
        1.01859         88.9052         25.9992 
        1.02471          88.694         25.6418 
        1.03085         87.8307         25.2901 
        1.03698         87.4408         24.9457 
        1.04314         86.5842         24.6062 
        1.04929         86.0395          24.274 
        1.05541         85.3216         23.9492 
        1.06154         85.0278         23.6297 
        1.06769          84.627         23.3155 
        1.07382         84.1061         23.0081 
        1.07993         83.4666          22.707 
        1.08607         82.8062         22.4101 
        1.09222          82.481         22.1183 
        1.09836         81.7707          21.832 
        1.10449          81.315         21.5511 
        1.11063         80.6726          21.275 
        1.11677         80.3132         21.0038 
         1.1229          79.456         20.7378 
        1.12903         78.7643         20.4762 
        1.13518         78.9918          20.219 
        1.14131         78.3324         19.9664 
        1.14745         77.5686         19.7182 
        1.15359         77.2141         19.4743 
        1.15973         76.7442         19.2344 
        1.16584         76.1749         18.9996 
        1.17197         75.7569         18.7685 
        1.17811         75.3076         18.5405 
        1.18424          74.761          18.317 
        1.19038         74.3344         18.0966 
        1.19652         74.0174         17.8799 
        1.20267          73.268         17.6667 
        1.20881         72.9537         17.4571 
        1.21495         72.4403         17.2513 
        1.22108         72.1389         17.0488 
         1.2272         71.4019           16.85 
        1.23334         71.1589          16.654 
        1.23949         70.7769         16.4607 
        1.24562         70.3309          16.271 
        1.25174          69.961         16.0846 
        1.25789         69.6592         15.9005 
        1.26402         69.2459         15.7197 
        1.27014         68.6212         15.5422 
        1.27628         68.3712         15.3668 
        1.28244         67.8473         15.1939 
        1.28858         67.6117         15.0238 
        1.29471         67.2692         14.8568 
        1.30084         66.8452         14.6924 
        1.30697         66.4015         14.5303 
        1.31312          66.012         14.3705 
        1.31925          65.707         14.2135 
        1.32537         65.4564         14.0591 
        1.33151         64.7547         13.9064 
        1.33765         64.5081         13.7561 
        1.34378          64.128         13.6084 
        1.34992          63.881         13.4627 
        1.35606         63.5172         13.3188 
         1.3622         62.9567         13.1773 
        1.36833         62.8154         13.0382 
        1.37445         62.4548         12.9012 
        1.38059         61.9557         12.7658 
        1.38675         61.6494          12.632 
        1.39288         61.3043         12.5007 
        1.39901         61.1487         12.3712 
        1.40515         60.7207         12.2434 
         1.4113         60.4245         12.1174 
        1.41742          60.294         11.9937 
        1.42355         59.7305         11.8715 
         1.4297         59.5436         11.7506 
        1.43585         59.0859         11.6315 
        1.44198         58.7877         11.5144 
        1.44809         58.5728         11.3992 
        1.45423         58.2375         11.2852 
        1.46036         58.0335          11.173 
        1.46649         57.6812         11.0622 
        1.47263         57.2575         10.9529 
        1.47877         57.0709         10.8451 
        1.48491         56.8901         10.7385 
        1.49104         56.4676         10.6337 
        1.49718          55.998         10.5301 
        1.50333         55.8564         10.4278 
        1.50947         55.5989         10.3271 
         1.5156         55.2628         10.2278 
        1.52172         55.0778         10.1299 
        1.52787         54.9302          10.033 
          1.534         54.4932         9.93755 
        1.54013         54.1834         9.84343 
        1.54627         54.0259         9.75036 
        1.55241         53.5622         9.65849 
        1.55855         53.3569         9.56794 
        1.56467           52.95          9.4788 
         1.5708          52.948         9.39056 
        1.57695         52.6762          9.3033 
        1.58308         52.2675         9.21737 
        1.58922         52.2035         9.13246 
        1.59535         52.0072         9.04866 
         1.6015         51.4715          8.9658 
        1.60764         51.3147         8.88402 
        1.61376         51.0371          8.8035 
        1.61989         50.7562         8.72391 
        1.62604         50.6266         8.64512 
        1.63218         50.4601         8.56737 
        1.63831         50.1264         8.49076 
        1.64444         49.8557         8.41506 
        1.65059         49.5519          8.3401 
        1.65673         49.3739         8.26615 
        1.66285         49.0543          8.1933 
        1.66898         48.8688         8.12131 
        1.67512          48.567         8.05005 
        1.68127         48.3105         7.97958 
         1.6874         48.1834         7.91011 
        1.69353         47.8832         7.84152 
        1.69967         47.6621         7.77358 
        1.70581         47.5746         7.70648 
        1.71193         47.3409         7.64042 
        1.71806         46.8677           7.575 
        1.72421          46.795         7.51022 
        1.73035         46.5633         7.44627 
        1.73649         46.1667         7.38308 
        1.74262         46.1398         7.32068 
        1.74876         45.9134         7.25896 
        1.75489         45.6657         7.19808 
        1.76101         45.4865         7.13792 
        1.76715         45.1965         7.07837 
        1.77329         45.0132         7.01943 
        1.77943         44.7711         6.96113 
        1.78557          44.621         6.90359 
        1.79171         44.3614         6.84669 
        1.79785         44.1719         6.79042 
        1.80399         44.0483          6.7348 
        1.81012          43.786         6.67988 
        1.81625         43.4302         6.62559 
        1.82239         43.3567         6.57183 
        1.82853         43.0336          6.5187 
        1.83466         42.9073         6.46621 
        1.84078         42.6031         6.41435 
        1.84692         42.4437         6.36298 
        1.85306         42.2501         6.31211 
         1.8592         41.9814         6.26188 
        1.86533         41.8886         6.21222 
        1.87147         41.7211         6.16305 
        1.87761         41.5536         6.11439 
        1.88375         41.2969         6.06632 
        1.88988           41.24         6.01881 
        1.89601         40.9422         5.97179 
        1.90215         40.7904         5.92524 
        1.90829         40.6767         5.87921 
        1.91442         40.4155         5.83366 
        1.92056         40.1776         5.78864 
         1.9267         39.9543         5.74406 
        1.93284         39.8209         5.69991 
        1.93897          39.678         5.65632 
        1.94509         39.3862         5.61327 
        1.95123         39.3161         5.57057 
        1.95737         39.0681         5.52828 
        1.96349         38.8715         5.48654 
        1.96964         38.8263         5.44511 
        1.97578          38.533         5.40409 
        1.98192         38.4004         5.36358 
        1.98805         38.2691         5.32348 
        1.99419         38.0132         5.28379 
        2.00033         37.8487         5.24448 
        2.00647         37.6606         5.20559 
         2.0126         37.4618         5.16716 
        2.01874         37.3909         5.12905 
        2.02488         37.2314          5.0913 
        2.03101         36.9987         5.05401 
        2.03714         36.8328         5.01712 
        2.04328         36.6569         4.98056 
        2.04941         36.4741         4.94439 
        2.05554         36.2793         4.90861 
        2.06167          36.217         4.87314 
        2.06781         35.9796         4.83801 
        2.07396         35.8588         4.80318 
        2.08009         35.7247         4.76876 
        2.08622         35.4829         4.73471 
        2.09237         35.3322         4.70093 
        2.09851          35.172         4.66747 
        2.10464         35.0446          4.6344 
        2.11077         34.9371         4.60168 
        2.11691          34.706         4.56921 
        2.12305         34.5326         4.53706 
        2.12918         34.4131         4.50529 
        2.13531         34.2162         4.47382 
        2.14145         34.1393         4.44258 
         2.1476         33.9345         4.41161 
        2.15372         33.7505         4.38108 
        2.15985         33.6221         4.35082 
        2.16599         33.5962         4.32075 
        2.17213         33.4489         4.29101 
        2.17827         33.1641         4.26155 
         2.1844         33.0611         4.23239 
        2.19054         32.9164          4.2035 
        2.19666         32.7766         4.17492 
         2.2028          32.579         4.14658 
        2.20893         32.5151         4.11849 
        2.21508         32.3896         4.09063 
        2.22122          32.165         4.06302 
        2.22736         32.0914         4.03572 
        2.23349         31.9481         4.00868 
        2.23962         31.7354         3.98188 
        2.24577         31.6039         3.95529 
         2.2519         31.4727         3.92899 
        2.25802         31.3524         3.90297 
        2.26417         31.2309         3.87711 
        2.27031         31.1248         3.85147 
        2.27644         30.9057         3.82613 
        2.28257         30.8369         3.80102 
        2.28872         30.6494         3.77609 
        2.29486         30.5999         3.75138 
        2.30099          30.417         3.72695 
        2.30712         30.2904         3.70273 
        2.31326         30.1956         3.67868 
         2.3194         30.0568         3.65486 
        2.32553         29.8978          3.6313 
        2.33166         29.7965         3.60795 
         2.3378          29.596         3.58477 
        2.34394         29.4686         3.56179 
        2.35007         29.3779         3.53904 
        2.35619          29.269         3.51653 
        2.36233         29.1858         3.49415 
        2.36848         28.9936         3.47193 
        2.37462         28.8987         3.44994 
        2.38075         28.7845         3.42817 
        2.38689         28.7104         3.40657 
        2.39303         28.5205         3.38515 
        2.39916         28.3604         3.36395 
        2.40529         28.1991         3.34293 
        2.41143         28.1729         3.32207 
        2.41757          28.067         3.30138 
         2.4237         27.9087         3.28091 
        2.42983         27.7694         3.26061 
        2.43598         27.6451         3.24043 
        2.44211         27.5329         3.22046 
        2.44823         27.4277          3.2007 
        2.45437         27.3215         3.18105 
        2.46052         27.1365         3.16155 
        2.46665          27.115         3.14224 
        2.47279         26.9834         3.12311 
        2.47892         26.8344         3.10412 
        2.48507         26.7245         3.08528 
         2.4912         26.6442         3.06662 
