# k  (h/Mpc)    Pcb(k)  (Mpc/h)^3    Pcb_linear(k)  (Mpc/h)^3
     0.00783031         9873.19         9933.54 
       0.013688         11553.5         11806.3 
       0.019231         11325.5         11455.9 
      0.0249154         10141.4         10099.8 
      0.0312784         8295.55         8326.44 
      0.0375637         6799.28         6862.78 
      0.0433917         5919.12         5915.68 
      0.0492413         5279.49         5310.05 
      0.0555754         4895.83          4892.1 
      0.0619321         4440.87         4549.61 
       0.067871         4145.19         4190.26 
      0.0738098          3750.3         3762.01 
      0.0800417         3289.41         3274.83 
      0.0862327         2832.55         2821.02 
      0.0921407         2497.97         2468.83 
      0.0982031         2266.69         2210.68 
       0.104506         2059.58         2041.38 
       0.110769         1958.73         1938.07 
       0.116806            1900         1859.33 
       0.122832         1786.68         1768.74 
       0.129052         1670.68         1646.72 
       0.135211          1561.1         1501.82 
       0.141259         1405.08         1354.06 
       0.147318         1267.14         1220.48 
       0.153489         1174.04         1112.81 
       0.159709         1118.05         1036.58 
       0.165845            1037         987.077 
       0.171974         1023.73         951.751 
       0.178125         988.735         918.272 
       0.184229         922.055         878.285 
        0.19034         891.382         828.653 
       0.196428           847.5         772.497 
       0.202534         777.598         715.571 
       0.208729          752.43          663.56 
       0.214876         714.131         621.618 
       0.220989         669.045         590.099 
       0.227147         655.151         566.462 
        0.23329         632.464         547.232 
       0.239377         622.829         528.683 
       0.245482         590.858         508.032 
       0.251667         565.255         484.258 
       0.257832         554.554         458.678 
       0.263955         520.921         433.412 
       0.270079         499.041         410.203 
        0.27624         477.081          390.19 
       0.282372         465.519         373.815 
        0.28843         461.247         360.404 
       0.294538         438.325         348.536 
       0.300721         424.783         336.947 
        0.30691         417.041         324.947 
       0.313033         397.655         312.372 
       0.319153         390.221         299.417 
       0.325316         380.875         286.528 
        0.33145          370.36         274.514 
       0.337538         356.357         263.756 
       0.343633         345.403         254.276 
       0.349808         336.049          245.77 
       0.355968         329.209         238.022 
       0.362074         318.772         230.681 
       0.368217         315.185         223.326 
       0.374374         307.946           215.9 
       0.380519         295.234          208.46 
       0.386598         290.808         201.248 
       0.392688          282.93         194.365 
        0.39888         276.207         187.828 
       0.405048         270.213         181.844 
       0.411186         268.189         176.362 
       0.417313           263.1         171.232 
       0.423458          255.94         166.315 
       0.429607          248.96          161.53 
       0.435692         244.923         156.856 
       0.441815         240.065         152.227 
       0.447964          233.47         147.704 
       0.454126         230.105         143.338 
       0.460267         226.985         139.191 
       0.466387         221.824         135.291 
        0.47254          219.07         131.593 
       0.478662         212.866         128.094 
       0.484765          209.95         124.742 
       0.490885         206.907         121.492 
       0.497035         203.875         118.317 
       0.503198         201.787         115.214 
       0.509342          196.53           112.2 
       0.515458         193.572           109.3 
       0.521598         189.232         106.502 
       0.527764         187.302         103.812 
       0.533884         186.189         101.251 
           0.54         182.042         98.7911 
       0.546137         177.874         96.4125 
       0.552299         176.149         94.1053 
       0.558452         173.141          91.874 
       0.564573         172.176         89.7165 
       0.570708         167.987         87.6135 
       0.576825         165.719          85.578 
       0.582926          164.03         83.6128 
       0.589034          161.42         81.7128 
       0.595184         159.973         79.8673 
       0.601379         156.968         78.0727 
       0.607522         153.659         76.3505 
       0.613639         152.713         74.6874 
       0.619772         150.958         73.0678 
       0.625918         149.596         71.4909 
       0.632068         146.205         69.9587 
       0.638161         145.079         68.4849 
         0.6443         143.903         67.0438 
       0.650464         141.055         65.6402 
       0.656582         140.228         64.2881 
       0.662703         138.871         62.9745 
       0.668861         135.969         61.6909 
       0.675024         135.878         60.4423 
       0.681124         133.719         59.2411 
       0.687237         132.171         58.0702 
       0.693381         130.548         56.9256 
       0.699536         129.279         55.8102 
       0.705665         127.832         54.7298 
       0.711789         126.088         53.6793 
       0.717957         124.735         52.6497 
        0.72409         123.394         51.6531 
       0.730186         123.364         50.6887 
       0.736317         121.455         49.7439 
       0.742472         119.527           48.82 
       0.748622         117.772         47.9205 
        0.75476         118.201         47.0457 
       0.760888         116.778         46.1942 
       0.767043         114.619         45.3604 
       0.773185         113.426         44.5491 
       0.779291         112.196         43.7624 
       0.785407         111.425         42.9937 
       0.791564          110.59         42.2388 
       0.797719         108.894         41.5026 
       0.803834         108.904         40.7889 
       0.809972         107.844         40.0895 
       0.816124          106.11         39.4052 
       0.822261         105.266         38.7389 
       0.828378          104.96         38.0901 
       0.834502         103.635         37.4559 
       0.840667         103.047         36.8321 
       0.846816         101.818         36.2244 
       0.852925         100.833         35.6344 
       0.859047         100.126         35.0564 
       0.865192         99.2868         34.4894 
       0.871341         98.3016         33.9347 
       0.877463         97.4236         33.3949 
       0.883569         97.3848         32.8682 
       0.889708         96.4085         32.3503 
       0.895864         95.5521         31.8424 
       0.902008         94.4697         31.3464 
       0.908149         93.3509         30.8615 
       0.914301           93.19          30.386 
       0.920448         93.0228         29.9211 
       0.926574         91.0931         29.4677 
       0.932687         91.0696         29.0246 
       0.938823         90.3868         28.5892 
       0.944975          89.452         28.1617 
       0.951105         88.6265         27.7446 
       0.957225         88.4021         27.3366 
       0.963368         87.4577         26.9356 
       0.969511         86.9391         26.5426 
       0.975621         85.8782         26.1596 
       0.981748         85.4037         25.7833 
       0.987916         84.7951          25.412 
        0.99406         84.5272         25.0495 
        1.00019          83.525         24.6948 
        1.00632         82.8729         24.3473 
        1.01246         82.4744         24.0061 
        1.01859         82.0493         23.6719 
        1.02471         81.4254         23.3446 
        1.03085         80.6438         23.0225 
        1.03698         80.0853         22.7071 
        1.04314         79.5529         22.3963 
        1.04929         79.1986         22.0921 
        1.05541          78.547         21.7948 
        1.06154         78.0181         21.5023 
        1.06769         77.5132         21.2148 
        1.07382         76.8369         20.9335 
        1.07993         76.5637         20.6579 
        1.08607         76.0014         20.3863 
        1.09222         75.6394         20.1193 
        1.09836         74.9737         19.8574 
        1.10449         74.5411         19.6005 
        1.11063         74.0429         19.3479 
        1.11677         73.6403         19.0999 
         1.1229         72.9349         18.8566 
        1.12903         72.6747         18.6175 
        1.13518         72.2494         18.3823 
        1.14131         71.7323         18.1513 
        1.14745         71.4411         17.9244 
        1.15359         70.5389         17.7014 
        1.15973         70.4698         17.4821 
        1.16584          70.008         17.2676 
        1.17197         69.5879         17.0563 
        1.17811         69.0352          16.848 
        1.18424         68.4613         16.6438 
        1.19038         68.3216         16.4423 
        1.19652         67.9273         16.2443 
        1.20267          67.428         16.0496 
        1.20881         67.0075         15.8581 
        1.21495          66.599           15.67 
        1.22108          66.458         15.4851 
         1.2272         65.7715         15.3035 
        1.23334          65.625         15.1245 
        1.23949         65.1411         14.9479 
        1.24562         64.6277         14.7747 
        1.25174         64.4001         14.6045 
        1.25789         64.1417         14.4364 
        1.26402         63.7085         14.2713 
        1.27014         63.3807         14.1092 
        1.27628         62.9189         13.9492 
        1.28244          62.873         13.7913 
        1.28858         62.3142         13.6361 
        1.29471         61.9084         13.4837 
        1.30084         61.3633         13.3337 
        1.30697         61.4179         13.1859 
        1.31312         61.0075           13.04 
        1.31925         60.4809         12.8968 
        1.32537         60.2426          12.756 
        1.33151         59.9887         12.6167 
        1.33765           59.63         12.4796 
        1.34378         59.2408         12.3449 
        1.34992         59.0788          12.212 
        1.35606          58.615         12.0808 
         1.3622         58.4629         11.9518 
        1.36833         58.0584          11.825 
        1.37445         57.6083         11.7001 
        1.38059         57.4797         11.5766 
        1.38675         56.9523         11.4546 
        1.39288         56.8391         11.3349 
        1.39901         56.3822         11.2169 
        1.40515         56.2216         11.1004 
         1.4113         55.9678         10.9855 
        1.41742          55.585         10.8728 
        1.42355         55.4476         10.7614 
         1.4297         55.1368         10.6512 
        1.43585         54.8105         10.5426 
        1.44198          54.467          10.436 
        1.44809         54.0813         10.3311 
        1.45423         53.9856         10.2272 
        1.46036         53.7052         10.1249 
        1.46649         53.3702          10.024 
        1.47263         53.1031         9.92439 
        1.47877         52.9078         9.82619 
        1.48491         52.5401         9.72917 
        1.49104         52.2476         9.63367 
        1.49718         52.0762         9.53938 
        1.50333         51.8316         9.44622 
        1.50947         51.5843         9.35448 
         1.5156         51.4172         9.26411 
        1.52172          50.999         9.17494 
        1.52787         50.7682         9.08677 
          1.534         50.4586         8.99986 
        1.54013         50.4622         8.91419 
        1.54627         49.9649         8.82949 
        1.55241         49.8319         8.74587 
        1.55855         49.5214         8.66346 
        1.56467         49.1348         8.58234 
         1.5708          49.164         8.50204 
        1.57695         48.8334         8.42264 
        1.58308         48.5733         8.34445 
        1.58922         48.3644         8.26719 
        1.59535         48.3036         8.19095 
         1.6015         48.1129         8.11556 
        1.60764          47.766         8.04116 
        1.61376          47.531          7.9679 
        1.61989         47.1509          7.8955 
        1.62604          47.046         7.82384 
        1.63218         46.7411         7.75311 
        1.63831         46.6474         7.68343 
        1.64444         46.4806         7.61457 
        1.65059         46.1309          7.5464 
        1.65673         45.9318         7.47914 
        1.66285         45.7658          7.4129 
        1.66898         45.4518         7.34743 
        1.67512         45.2137         7.28263 
        1.68127         45.1544         7.21856 
         1.6874         44.9221          7.1554 
        1.69353         44.6649         7.09304 
        1.69967         44.5048         7.03127 
        1.70581         44.2428         6.97027 
        1.71193          44.064         6.91023 
        1.71806          43.903         6.85077 
        1.72421         43.6918         6.79189 
        1.73035         43.4931         6.73377 
        1.73649         43.2104         6.67635 
        1.74262         42.9438         6.61964 
        1.74876         43.0218         6.56356 
        1.75489         42.6698         6.50824 
        1.76101         42.5432         6.45358 
        1.76715         42.3275         6.39948 
        1.77329         41.9993         6.34593 
        1.77943         42.0517         6.29297 
        1.78557         41.7649          6.2407 
        1.79171         41.5361         6.18901 
        1.79785         41.4121          6.1379 
        1.80399          41.157         6.08738 
        1.81012         40.9859          6.0375 
        1.81625         40.7728          5.9882 
        1.82239         40.5864         5.93937 
        1.82853         40.4446         5.89112 
        1.83466         40.2611         5.84345 
        1.84078         40.0755         5.79636 
        1.84692         39.9143         5.74972 
        1.85306         39.7179         5.70353 
         1.8592         39.5028         5.65792 
        1.86533         39.3901         5.61283 
        1.87147         39.2034         5.56819 
        1.87761         39.0352         5.52402 
        1.88375         38.8515         5.48037 
        1.88988         38.6806         5.43725 
        1.89601         38.5341         5.39456 
        1.90215         38.2729         5.35231 
        1.90829          38.177         5.31052 
        1.91442         37.9598         5.26918 
        1.92056         37.8617         5.22832 
         1.9267         37.7552         5.18785 
        1.93284         37.5704         5.14779 
        1.93897         37.3475         5.10823 
        1.94509         37.1541         5.06917 
        1.95123         37.0525         5.03042 
        1.95737         36.9061         4.99204 
        1.96349         36.7904         4.95417 
        1.96964         36.5217         4.91658 
        1.97578         36.3852         4.87937 
        1.98192         36.1896         4.84261 
        1.98805         36.0177         4.80624 
        1.99419         35.9338         4.77023 
        2.00033         35.7904         4.73458 
        2.00647         35.6499          4.6993 
         2.0126         35.4477         4.66444 
        2.01874         35.3813         4.62988 
        2.02488          35.113         4.59565 
        2.03101         35.0559         4.56182 
        2.03714         34.8808         4.52837 
        2.04328         34.7743         4.49521 
        2.04941         34.5249         4.46242 
        2.05554         34.4364         4.42997 
        2.06167         34.2878         4.39781 
        2.06781         34.1344         4.36596 
        2.07396         33.9584         4.33438 
        2.08009         33.8294         4.30317 
        2.08622         33.7418         4.27231 
        2.09237         33.5321         4.24168 
        2.09851         33.4287         4.21136 
        2.10464          33.313         4.18137 
        2.11077         33.1902         4.15172 
        2.11691         32.9485         4.12229 
        2.12305         32.8075         4.09315 
        2.12918         32.7236         4.06435 
        2.13531           32.51         4.03583 
        2.14145         32.4387         4.00752 
         2.1476         32.3417         3.97945 
        2.15372         32.2332         3.95179 
        2.15985         31.9994         3.92437 
        2.16599         31.8499         3.89712 
        2.17213          31.787         3.87017 
        2.17827         31.6562         3.84348 
         2.1844         31.4631         3.81706 
        2.19054         31.4106         3.79088 
        2.19666         31.2212         3.76499 
         2.2028         31.0371         3.73931 
        2.20893         31.0068         3.71387 
        2.21508          30.875         3.68863 
        2.22122         30.7569         3.66361 
        2.22736         30.5491         3.63889 
        2.23349         30.5133         3.61439 
        2.23962         30.3478         3.59011 
        2.24577         30.2185         3.56604 
         2.2519         30.0742         3.54221 
        2.25802         29.9405         3.51865 
        2.26417         29.8138         3.49523 
        2.27031         29.6872           3.472 
        2.27644         29.6697         3.44906 
        2.28257         29.4558         3.42632 
        2.28872         29.3763         3.40374 
        2.29486         29.2753         3.38137 
        2.30099         29.1092         3.35925 
        2.30712         29.0188         3.33732 
        2.31326         28.8711         3.31555 
         2.3194         28.7381         3.29398 
        2.32553         28.6662         3.27264 
        2.33166         28.5291          3.2515 
         2.3378         28.3824         3.23052 
        2.34394         28.3121         3.20972 
        2.35007         28.2336         3.18913 
        2.35619          28.087         3.16875 
        2.36233         27.9467         3.14849 
        2.36848         27.8942         3.12838 
        2.37462         27.7483         3.10848 
        2.38075         27.6218         3.08877 
        2.38689         27.5324         3.06922 
        2.39303         27.4349         3.04984 
        2.39916         27.2431         3.03065 
        2.40529         27.1951         3.01162 
        2.41143         27.0828         2.99275 
        2.41757         26.9929         2.97403 
         2.4237         26.8915          2.9555 
        2.42983         26.7006         2.93714 
        2.43598         26.6323         2.91888 
        2.44211         26.5191          2.9008 
        2.44823         26.4155         2.88292 
        2.45437         26.3774         2.86515 
        2.46052         26.2015         2.84751 
        2.46665         26.1418         2.83004 
        2.47279         25.9732         2.81273 
        2.47892         25.9071         2.79556 
        2.48507         25.8161         2.77851 
         2.4912         25.6999         2.76163 
