# k  (h/Mpc)    Pcb(k)  (Mpc/h)^3    Pcb_linear(k)  (Mpc/h)^3
     0.00783031         9296.45         9415.54 
       0.013688         11768.8         11697.4 
       0.019231         11877.9         11858.2 
      0.0249154         10754.5         10927.9 
      0.0312784         9305.04         9373.74 
      0.0375637         7880.57         7867.63 
      0.0433917         6669.72         6746.08 
      0.0492413         5924.07         5939.56 
      0.0555754         5256.05         5367.05 
      0.0619321         5013.71          4987.9 
       0.067871          4609.8         4697.83 
      0.0738098         4303.07         4389.28 
      0.0800417         3893.21         4007.23 
      0.0862327          3517.1         3579.12 
      0.0921407         3157.73         3165.32 
      0.0982031         2767.11         2781.41 
       0.104506         2522.18         2460.55 
       0.110769         2293.14         2231.86 
       0.116806         2133.65         2086.13 
       0.122832          2042.1         1990.75 
       0.129052         1923.53         1915.45 
       0.135211         1845.02         1837.46 
       0.141259         1771.38         1741.48 
       0.147318         1666.73         1623.02 
       0.153489         1522.11          1487.9 
       0.159709         1415.86         1352.01 
       0.165845         1330.32         1232.52 
       0.171974         1234.41         1136.55 
       0.178125         1167.52         1065.82 
       0.184229         1117.77         1017.14 
        0.19034         1052.73         982.282 
       0.196428         1039.08         952.571 
       0.202534         1010.02          920.22 
       0.208729         962.385          880.25 
       0.214876         912.693         832.996 
       0.220989         878.207         781.417 
       0.227147         828.508          729.51 
        0.23329         788.948         682.289 
       0.239377         766.863         642.947 
       0.245482         714.461          611.79 
       0.251667         707.546         587.611 
       0.257832         682.975         568.517 
       0.263955          661.77         551.635 
       0.270079         638.632         534.297 
        0.27624          631.12         514.905 
       0.282372         605.118         493.326 
        0.28843         588.907         470.559 
       0.294538         559.497         447.527 
       0.300721         554.377         425.599 
        0.30691         528.335         406.148 
       0.313033         517.149         389.775 
       0.319153          500.43         376.084 
       0.325316         486.393          364.27 
        0.33145         472.419           353.6 
       0.337538         466.082          343.22 
       0.343633         451.341         332.486 
       0.349808         436.474         321.057 
       0.355968         431.636         309.245 
       0.362074         422.682         297.537 
       0.368217         410.933         286.196 
       0.374374         394.695          275.68 
       0.380519         390.807         266.207 
       0.386598         381.054         257.853 
       0.392688         377.945         250.325 
        0.39888          367.38         243.235 
       0.405048         359.581         236.475 
       0.411186         352.537         229.811 
       0.417313         345.956         223.099 
       0.423458         339.405         216.339 
       0.429607         332.416         209.617 
       0.435692         323.942         203.142 
       0.441815         321.386         196.947 
       0.447964         314.922          191.12 
       0.454126         304.524          185.69 
       0.460267         300.403         180.669 
       0.466387         296.909         175.968 
        0.47254          290.67         171.439 
       0.478662         289.564         167.059 
       0.484765         280.319         162.775 
       0.490885         277.003         158.529 
       0.497035         272.501         154.323 
       0.503198         266.936         150.217 
       0.509342         264.499         146.271 
       0.515458         261.021         142.511 
       0.521598         256.102         138.913 
       0.527764         252.199         135.485 
       0.533884         249.399         132.247 
           0.54         245.764         129.141 
       0.546137         244.497         126.121 
       0.552299          239.54         123.167 
       0.558452         237.085         120.289 
       0.564573         233.355         117.494 
       0.570708         229.007          114.76 
       0.576825          225.97         112.109 
       0.582926         223.095          109.55 
       0.589034         220.716         107.083 
       0.595184         218.398         104.696 
       0.601379         215.978         102.383 
       0.607522         211.861         100.166 
       0.613639         210.807         98.0261 
       0.619772         206.205          95.941 
       0.625918         204.718         93.9086 
       0.632068         202.009         91.9296 
       0.638161         200.901         90.0201 
         0.6443         197.807         88.1461 
       0.650464         195.793         86.3159 
       0.656582         194.003         84.5509 
       0.662703          192.16         82.8377 
       0.668861         188.935          81.168 
       0.675024          186.78         79.5488 
       0.681124         185.981         77.9941 
       0.687237         183.081         76.4796 
       0.693381         180.451         74.9979 
       0.699536         179.188         73.5506 
       0.705665         178.616          72.145 
       0.711789         175.409         70.7755 
       0.717957         174.901         69.4314 
        0.72409         172.573           68.13 
       0.730186         170.172         66.8709 
       0.736317          168.77         65.6387 
       0.742472         167.851         64.4347 
       0.748622         166.407         63.2632 
        0.75476         165.036         62.1242 
       0.760888         162.719         61.0153 
       0.767043         162.168          59.929 
       0.773185         160.382         58.8711 
       0.779291         157.731         57.8444 
       0.785407          157.18         56.8405 
       0.791564         155.792          55.854 
       0.797719         153.515         54.8916 
       0.803834         152.804         53.9583 
       0.809972         151.376         53.0438 
       0.816124         151.123         52.1489 
       0.822261          149.24         51.2776 
       0.828378         147.874         50.4292 
       0.834502         147.582         49.5996 
       0.840667         145.321         48.7836 
       0.846816         144.061         47.9884 
       0.852925          143.33         47.2161 
       0.859047         141.641         46.4592 
       0.865192         140.729         45.7165 
       0.871341         139.422         44.9896 
       0.877463         138.312         44.2819 
       0.883569         137.497         43.5912 
       0.889708         136.413         42.9119 
       0.895864         134.973         42.2453 
       0.902008         134.172         41.5945 
       0.908149         133.588         40.9578 
       0.914301         132.161         40.3336 
       0.920448         131.191         39.7231 
       0.926574         130.428         39.1275 
       0.932687         130.057         38.5455 
       0.938823         128.175         37.9733 
       0.944975          126.96         37.4116 
       0.951105         126.471         36.8633 
       0.957225         125.073         36.3271 
       0.963368         124.045         35.7998 
       0.969511         123.805         35.2831 
       0.975621         123.195         34.7794 
       0.981748         122.372         34.2844 
       0.987916         121.027         33.7959 
        0.99406         120.265         33.3189 
        1.00019         119.779         32.8521 
        1.00632         118.735         32.3948 
        1.01246         118.005         31.9455 
        1.01859         116.817         31.5056 
        1.02471         116.362         31.0746 
        1.03085         115.265         30.6502 
        1.03698          114.75         30.2347 
        1.04314         113.691         29.8252 
        1.04929          112.99         29.4243 
        1.05541         112.284         29.0324 
        1.06154         111.682         28.6467 
        1.06769         111.448         28.2676 
        1.07382          110.66         27.8966 
        1.07993         109.761         27.5331 
        1.08607         108.966         27.1747 
        1.09222         108.572         26.8223 
        1.09836         107.646         26.4766 
        1.10449          106.96         26.1375 
        1.11063         106.275          25.804 
        1.11677         105.848         25.4764 
         1.1229         104.714         25.1551 
        1.12903         104.022         24.8391 
        1.13518         104.175         24.5283 
        1.14131         103.157         24.2231 
        1.14745         102.451         23.9232 
        1.15359         101.837         23.6284 
        1.15973         101.487         23.3385 
        1.16584         100.587         23.0547 
        1.17197         100.084         22.7753 
        1.17811         99.4442         22.4998 
        1.18424         98.8888         22.2296 
        1.19038         98.4393         21.9631 
        1.19652         97.8599          21.701 
        1.20267          97.044         21.4433 
        1.20881         96.4985         21.1899 
        1.21495         95.9168          20.941 
        1.22108         95.4582         20.6961 
         1.2272         94.6231         20.4558 
        1.23334         94.3033         20.2188 
        1.23949         93.5319         19.9849 
        1.24562         93.2272         19.7555 
        1.25174         92.5384           19.53 
        1.25789         92.1767         19.3074 
        1.26402         91.7237         19.0886 
        1.27014         91.0502         18.8738 
        1.27628         90.6961         18.6617 
        1.28244         90.0262         18.4525 
        1.28858          89.728         18.2467 
        1.29471         89.0549         18.0446 
        1.30084         88.6316         17.8458 
        1.30697         88.0963         17.6496 
        1.31312         87.6927         17.4561 
        1.31925         87.1242         17.2662 
        1.32537         86.8215         17.0793 
        1.33151         85.9742         16.8945 
        1.33765         85.5876         16.7126 
        1.34378         85.0941         16.5337 
        1.34992         84.9002         16.3573 
        1.35606         84.3849         16.1831 
         1.3622           83.62         16.0118 
        1.36833         83.5269         15.8434 
        1.37445         82.9345         15.6775 
        1.38059         82.3902         15.5135 
        1.38675         81.8737         15.3514 
        1.39288         81.4881         15.1924 
        1.39901         81.3236         15.0356 
        1.40515          80.781         14.8807 
         1.4113         80.2279         14.7281 
        1.41742         80.1685         14.5782 
        1.42355         79.4231         14.4301 
         1.4297         79.1304         14.2837 
        1.43585         78.5247         14.1393 
        1.44198         78.2481         13.9975 
        1.44809          77.824          13.858 
        1.45423          77.378         13.7198 
        1.46036         77.1916         13.5838 
        1.46649           76.67         13.4495 
        1.47263         76.1972          13.317 
        1.47877         76.0277         13.1864 
        1.48491         75.5293         13.0573 
        1.49104         75.1198         12.9302 
        1.49718         74.6502         12.8047 
        1.50333         74.2908         12.6807 
        1.50947         73.9323         12.5586 
         1.5156         73.6016         12.4383 
        1.52172         73.2214         12.3195 
        1.52787         73.0527         12.2021 
          1.534         72.5173         12.0864 
        1.54013         72.0224         11.9723 
        1.54627         71.8211         11.8595 
        1.55241         71.3404         11.7481 
        1.55855         71.0759         11.6383 
        1.56467         70.5881         11.5302 
         1.5708         70.3864         11.4232 
        1.57695         70.1507         11.3174 
        1.58308          69.497         11.2132 
        1.58922         69.4274         11.1102 
        1.59535          69.188         11.0086 
         1.6015         68.5261         10.9081 
        1.60764         68.3479         10.8089 
        1.61376          67.952         10.7112 
        1.61989         67.6187         10.6146 
        1.62604         67.4253         10.5191 
        1.63218         67.1133         10.4247 
        1.63831         66.6424         10.3318 
        1.64444         66.3511         10.2399 
        1.65059           65.92          10.149 
        1.65673         65.7032         10.0592 
        1.66285         65.3353         9.97083 
        1.66898         65.0502         9.88346 
        1.67512         64.6393         9.79698 
        1.68127          64.367         9.71146 
         1.6874         64.1322         9.62716 
        1.69353           63.82         9.54391 
        1.69967         63.4074         9.46145 
        1.70581         63.3053         9.38001 
        1.71193         63.0623         9.29983 
        1.71806         62.4371         9.22043 
        1.72421         62.3225          9.1418 
        1.73035         62.0038         9.06418 
        1.73649         61.6128         8.98748 
        1.74262         61.4558         8.91174 
        1.74876         61.1225         8.83682 
        1.75489         60.7621         8.76292 
        1.76101         60.5795         8.68989 
        1.76715         60.1682          8.6176 
        1.77329         59.9657         8.54604 
        1.77943         59.5394         8.47527 
        1.78557         59.4214         8.40541 
        1.79171          59.069         8.33632 
        1.79785         58.8592         8.26801 
        1.80399         58.6145         8.20047 
        1.81012         58.3748         8.13378 
        1.81625         57.8687         8.06786 
        1.82239         57.6811         8.00258 
        1.82853         57.3445         7.93805 
        1.83466         57.1654          7.8743 
        1.84078         56.8006         7.81132 
        1.84692         56.5046         7.74893 
        1.85306         56.3197         7.68714 
         1.8592         55.9255         7.62613 
        1.86533         55.8049         7.56581 
        1.87147         55.4861         7.50608 
        1.87761         55.2805         7.44697 
        1.88375         55.0072         7.38857 
        1.88988         54.9067         7.33086 
        1.89601         54.4884         7.27373 
        1.90215         54.2694         7.21717 
        1.90829         54.1084         7.16125 
        1.91442         53.7687         7.10591 
        1.92056         53.4189         7.05121 
         1.9267         53.2211         6.99703 
        1.93284         53.0015         6.94339 
        1.93897         52.7031         6.89041 
        1.94509         52.3834         6.83811 
        1.95123         52.2828         6.78621 
        1.95737         52.0416         6.73482 
        1.96349         51.6966          6.6841 
        1.96964         51.6559         6.63375 
        1.97578         51.2863          6.5839 
        1.98192         51.0724         6.53467 
        1.98805         50.9488         6.48593 
        1.99419         50.5696         6.43769 
        2.00033         50.3395         6.38992 
        2.00647         50.1262         6.34265 
         2.0126         49.8139         6.29594 
        2.01874         49.6902         6.24963 
        2.02488         49.5153         6.20374 
        2.03101         49.2104         6.15841 
        2.03714         48.9782         6.11357 
        2.04328         48.7599         6.06913 
        2.04941         48.4741         6.02516 
        2.05554         48.1851         5.98167 
        2.06167         48.1086         5.93855 
        2.06781         47.8964         5.89584 
        2.07396         47.6304          5.8535 
        2.08009         47.4586         5.81165 
        2.08622         47.1538         5.77026 
        2.09237         46.9661         5.72919 
        2.09851         46.7896         5.68851 
        2.10464         46.5554          5.6483 
        2.11077         46.3799         5.60852 
        2.11691         46.1143         5.56904 
        2.12305         45.8813         5.52994 
        2.12918         45.6563         5.49131 
        2.13531         45.4286         5.45304 
        2.14145         45.2611         5.41506 
         2.1476         45.0846         5.37739 
        2.15372         44.8035         5.34027 
        2.15985         44.6177         5.30346 
        2.16599         44.5282          5.2669 
        2.17213         44.3458         5.23072 
        2.17827          44.073         5.19489 
         2.1844         43.8438         5.15943 
        2.19054          43.604         5.12429 
        2.19666         43.4397         5.08952 
         2.2028         43.2486         5.05505 
        2.20893         43.1197         5.02088 
        2.21508         42.9563           4.987 
        2.22122         42.6743         4.95341 
        2.22736         42.5257          4.9202 
        2.23349         42.3719         4.88731 
        2.23962          42.009          4.8547 
        2.24577         41.8709         4.82236 
         2.2519         41.6547         4.79036 
        2.25802         41.6238          4.7587 
        2.26417         41.3578         4.72725 
        2.27031         41.2184         4.69604 
        2.27644         40.9186         4.66521 
        2.28257         40.8112         4.63466 
        2.28872         40.5266         4.60433 
        2.29486         40.4319         4.57427 
        2.30099         40.2689         4.54455 
        2.30712         40.0713         4.51507 
        2.31326         39.8878         4.48581 
         2.3194         39.6806         4.45683 
        2.32553         39.5339         4.42815 
        2.33166         39.3822         4.39974 
         2.3378         39.0886         4.37153 
        2.34394         38.9052         4.34357 
        2.35007         38.7662         4.31589 
        2.35619         38.6718         4.28849 
        2.36233         38.5418         4.26126 
        2.36848         38.2425         4.23421 
        2.37462         38.1519         4.20745 
        2.38075         37.9843         4.18096 
        2.38689         37.9021         4.15466 
        2.39303         37.6598          4.1286 
        2.39916          37.447         4.10279 
        2.40529         37.2145         4.07721 
        2.41143         37.1811         4.05182 
        2.41757         37.0373         4.02664 
         2.4237         36.8648         4.00172 
        2.42983         36.6827         3.97701 
        2.43598         36.4598         3.95245 
        2.44211         36.3132         3.92814 
        2.44823         36.1799         3.90408 
        2.45437         36.0631         3.88016 
        2.46052         35.7841         3.85642 
        2.46665         35.7184         3.83293 
        2.47279         35.5619         3.80963 
        2.47892         35.3512         3.78652 
        2.48507         35.2221         3.76357 
         2.4912         35.0857         3.74086 
