# k  (h/Mpc)    Pcb(k)  (Mpc/h)^3    Pcb_linear(k)  (Mpc/h)^3
     0.00783031         12445.3         12618.5 
       0.013688         14100.4         14003.9 
       0.019231           12754         12705.1 
      0.0249154         10261.3         10397.8 
      0.0312784         7846.96         7857.48 
      0.0375637         6053.94          5993.2 
      0.0433917         4907.86         4917.29 
      0.0492413         4347.43          4326.4 
      0.0555754         3947.33         4006.77 
      0.0619321            3825         3785.02 
       0.067871         3472.29          3515.4 
      0.0738098         3105.17         3134.88 
      0.0800417         2628.21         2658.51 
      0.0862327         2211.43         2197.95 
      0.0921407            1895         1842.64 
      0.0982031         1632.93         1594.66 
       0.104506         1525.42         1452.71 
       0.110769         1447.06         1391.81 
       0.116806         1399.99         1363.46 
       0.122832         1358.48         1324.36 
       0.129052         1257.58         1247.29 
       0.135211         1154.27         1133.08 
       0.141259         1052.37         1002.53 
       0.147318         943.982         877.895 
       0.153489         838.463         776.378 
       0.159709         778.867         707.755 
       0.165845         745.346         669.858 
       0.171974         714.333         651.204 
       0.178125         693.966         638.631 
       0.184229         670.528         620.821 
        0.19034         626.185         591.455 
       0.196428         601.391         551.117 
       0.202534         568.151         505.037 
       0.208729         525.242         459.925 
       0.214876         489.998         422.638 
       0.220989         466.771         395.491 
       0.227147         445.811         377.456 
        0.23329         429.097         365.748 
       0.239377         420.866         356.449 
       0.245482         393.386          345.98 
       0.251667         388.639         332.144 
       0.257832         372.349         315.031 
       0.263955         355.584         296.242 
       0.270079         337.652         277.721 
        0.27624         329.655         261.251 
       0.282372         316.887         247.962 
        0.28843          305.54          237.86 
       0.294538         291.061         229.961 
       0.300721         288.079         223.098 
        0.30691         275.046         216.254 
       0.313033         268.526         208.759 
       0.319153         257.775         200.426 
       0.325316         250.802         191.469 
        0.33145         241.077         182.613 
       0.337538         236.413         174.433 
       0.343633          227.69         167.223 
       0.349808         219.588         161.004 
       0.355968         216.215         155.692 
       0.362074         211.299         150.998 
       0.368217         205.131         146.468 
       0.374374         196.965         141.883 
       0.380519         194.346         137.143 
       0.386598         189.041         132.333 
       0.392688          185.81          127.56 
        0.39888         180.907         122.906 
       0.405048         175.874          118.61 
       0.411186         172.106         114.739 
       0.417313         168.283         111.227 
       0.423458         164.392         107.982 
       0.429607         160.957         104.911 
       0.435692         155.782         101.942 
       0.441815         154.216         98.9698 
       0.447964         151.001         96.0117 
       0.454126         145.064         93.0908 
       0.460267         143.059         90.2658 
       0.466387         141.042         87.5859 
        0.47254         137.537         85.0574 
       0.478662         136.883         82.6939 
       0.484765         132.033         80.4696 
       0.490885         130.033         78.3479 
       0.497035         128.079         76.2959 
       0.503198         124.765         74.2908 
       0.509342          122.97         72.3298 
       0.515458         120.981         70.4239 
       0.521598         118.479         68.5691 
       0.527764         117.116         66.7744 
       0.533884         115.343         65.0639 
           0.54          113.08          63.427 
       0.546137         112.011         61.8574 
       0.552299         109.831         60.3486 
       0.558452         108.127         58.8977 
       0.564573         106.338         57.4981 
       0.570708         104.146         56.1313 
       0.576825         102.956         54.8049 
       0.582926         100.726         53.5208 
       0.589034         99.4829         52.2759 
       0.595184         98.1416         51.0652 
       0.601379          96.517         49.8877 
       0.607522          94.763         48.7593 
       0.613639         94.0278         47.6728 
       0.619772         92.1266         46.6186 
       0.625918         90.8972         45.5954 
       0.632068         89.8073         44.6031 
       0.638161         88.8961         43.6489 
         0.6443         87.7051          42.715 
       0.650464         86.8268         41.8038 
       0.656582         85.1595         40.9247 
       0.662703         84.1173         40.0704 
       0.668861         82.7358         39.2358 
       0.675024         81.7993         38.4251 
       0.681124         81.0669         37.6466 
       0.687237         79.4983         36.8893 
       0.693381         78.3918           36.15 
       0.699536         77.8189         35.4301 
       0.705665          77.463         34.7333 
       0.711789          75.839         34.0557 
       0.717957         75.4908         33.3914 
        0.72409         74.1042         32.7484 
       0.730186         73.0285          32.126 
       0.736317         72.6528         31.5165 
       0.742472          71.942         30.9207 
       0.748622         71.0022          30.341 
        0.75476          70.309         29.7776 
       0.760888         69.3765         29.2296 
       0.767043         68.8512         28.6935 
       0.773185         68.0653         28.1721 
       0.779291         67.0692         27.6669 
       0.785407         66.6189         27.1734 
       0.791564         66.2027         26.6891 
       0.797719         64.7792         26.2168 
       0.803834         64.4898         25.7591 
       0.809972         63.5644         25.3107 
       0.816124         63.1714         24.8722 
       0.822261         62.6578         24.4453 
       0.828378          62.206         24.0298 
       0.834502         61.5656         23.6236 
       0.840667         60.7881         23.2243 
       0.846816         59.9797         22.8354 
       0.852925         59.5561          22.458 
       0.859047         58.7935         22.0883 
       0.865192         58.4664         21.7259 
       0.871341         57.9569         21.3713 
       0.877463         57.0773         21.0264 
       0.883569         56.8762           20.69 
       0.889708         56.2936         20.3593 
       0.895864         55.8978         20.0351 
       0.902008         55.3646         19.7186 
       0.908149         54.9499         19.4093 
       0.914301         54.3843         19.1061 
       0.920448         53.9895         18.8098 
       0.926574         53.3945         18.5208 
       0.932687         53.3142         18.2386 
       0.938823         52.5316         17.9613 
       0.944975         51.9919         17.6891 
       0.951105         51.5963         17.4236 
       0.957225         51.0756         17.1641 
       0.963368         50.7699          16.909 
       0.969511         50.5054         16.6592 
       0.975621         50.2199         16.4158 
       0.981748          49.625         16.1766 
       0.987916          49.154         15.9407 
        0.99406         48.8995         15.7105 
        1.00019          48.498         15.4853 
        1.00632         48.0912         15.2648 
        1.01246         47.8186         15.0483 
        1.01859         47.2149         14.8363 
        1.02471         46.9959         14.6287 
        1.03085         46.6179         14.4244 
        1.03698         46.2823         14.2244 
        1.04314         45.9271         14.0275 
        1.04929         45.5622         13.8347 
        1.05541         45.0737         13.6463 
        1.06154         45.0978          13.461 
        1.06769         44.6515         13.2789 
        1.07382         44.4213         13.1008 
        1.07993         44.1141         12.9264 
        1.08607         43.7806         12.7545 
        1.09222         43.5216         12.5855 
        1.09836         43.0858         12.4198 
        1.10449         42.9465         12.2573 
        1.11063         42.4715         12.0975 
        1.11677         42.2229         11.9407 
         1.1229         41.8723          11.787 
        1.12903         41.4264         11.6358 
        1.13518         41.5416         11.4872 
        1.14131         41.2189         11.3412 
        1.14745         40.7722         11.1979 
        1.15359         40.6246         11.0571 
        1.15973          40.168         10.9187 
        1.16584         39.9829         10.7832 
        1.17197         39.7349         10.6499 
        1.17811         39.5973         10.5184 
        1.18424         39.2037         10.3896 
        1.19038         38.9371         10.2626 
        1.19652         38.8416         10.1377 
        1.20267         38.4361         10.0149 
        1.20881          38.304         9.89423 
        1.21495         37.9662         9.77573 
        1.22108         37.9162          9.6592 
         1.2272         37.4082         9.54485 
        1.23334         37.2458         9.43211 
        1.23949         37.2223         9.32092 
        1.24562         36.7779         9.21186 
        1.25174         36.6774          9.1047 
        1.25789         36.5406         8.99894 
        1.26402         36.1661         8.89505 
        1.27014          35.948         8.79307 
        1.27628         35.6847         8.69238 
        1.28244         35.5754         8.59308 
        1.28858         35.3925         8.49548 
        1.29471         35.2255         8.39961 
        1.30084         35.0239         8.30531 
        1.30697         34.7878         8.21233 
        1.31312         34.5627         8.12065 
        1.31925          34.357         8.03066 
        1.32537         34.2075         7.94213 
        1.33151         33.9431         7.85463 
        1.33765         33.7967          7.7685 
        1.34378         33.6172         7.68384 
        1.34992         33.3976         7.60039 
        1.35606         33.2243         7.51801 
         1.3622         33.0613           7.437 
        1.36833         32.8368         7.35739 
        1.37445          32.683         7.27898 
        1.38059         32.4743         7.20149 
        1.38675         32.2327         7.12494 
        1.39288         32.1675         7.04982 
        1.39901         32.0018         6.97582 
        1.40515          31.782         6.90272 
         1.4113         31.5996         6.83071 
        1.41742         31.5218            6.76 
        1.42355         31.2701         6.69017 
         1.4297         31.1618         6.62111 
        1.43585         31.0613         6.55307 
        1.44198          30.746         6.48624 
        1.44809         30.6973         6.42048 
        1.45423         30.5014         6.35539 
        1.46036         30.4035         6.29132 
        1.46649         30.2227         6.22812 
        1.47263         30.0286         6.16574 
        1.47877         29.8799         6.10425 
        1.48491         29.8963          6.0435 
        1.49104         29.5773          5.9837 
        1.49718         29.3359         5.92468 
        1.50333         29.3934         5.86636 
        1.50947          29.195         5.80895 
         1.5156         29.0213         5.75239 
        1.52172         28.9474         5.69659 
        1.52787         28.7985         5.64143 
          1.534         28.6455         5.58706 
        1.54013         28.4498         5.53347 
        1.54627         28.3841         5.48049 
        1.55241         28.0974         5.42819 
        1.55855         28.0875         5.37666 
        1.56467         27.7994         5.32594 
         1.5708         27.8761         5.27573 
        1.57695         27.6473          5.2261 
        1.58308         27.4891         5.17722 
        1.58922         27.4125         5.12894 
        1.59535         27.3079         5.08129 
         1.6015          27.106         5.03418 
        1.60764         26.9326          4.9877 
        1.61376         26.8287         4.94193 
        1.61989          26.711          4.8967 
        1.62604         26.5984         4.85194 
        1.63218         26.5488         4.80777 
        1.63831         26.3534         4.76425 
        1.64444         26.2359         4.72126 
        1.65059         26.1549          4.6787 
        1.65673         25.9929         4.63671 
        1.66285         25.8906         4.59536 
        1.66898         25.7519          4.5545 
        1.67512         25.6357         4.51406 
        1.68127         25.5063         4.47407 
         1.6874         25.3569         4.43466 
        1.69353         25.2847         4.39575 
        1.69967         25.1525         4.35722 
        1.70581         25.1014         4.31916 
        1.71193         25.0045         4.28171 
        1.71806         24.7646         4.24462 
        1.72421         24.6991          4.2079 
        1.73035         24.5748         4.17166 
        1.73649         24.4507         4.13585 
        1.74262         24.3691          4.1005 
        1.74876          24.296         4.06553 
        1.75489         24.1694         4.03105 
        1.76101         24.0702         3.99698 
        1.76715         23.9856         3.96325 
        1.77329         23.9251         3.92988 
        1.77943          23.817         3.89688 
        1.78557         23.6197          3.8643 
        1.79171         23.5324          3.8321 
        1.79785         23.4213         3.80026 
        1.80399         23.4086         3.76878 
        1.81012         23.2368         3.73771 
        1.81625         23.1849           3.707 
        1.82239         23.0336         3.67659 
        1.82853         22.9728         3.64654 
        1.83466         22.8575         3.61686 
        1.84078         22.6706         3.58753 
        1.84692         22.6369         3.55849 
        1.85306         22.5274         3.52973 
         1.8592          22.433         3.50134 
        1.86533         22.3497         3.47328 
        1.87147         22.3062         3.44549 
        1.87761         22.1797           3.418 
        1.88375         22.0898         3.39083 
        1.88988         22.0171           3.364 
        1.89601         21.9476         3.33744 
        1.90215          21.827         3.31115 
        1.90829         21.7337         3.28515 
        1.91442         21.6597         3.25943 
        1.92056         21.5475         3.23402 
         1.9267         21.4757         3.20884 
        1.93284         21.3149         3.18393 
        1.93897         21.3099         3.15932 
        1.94509         21.1999         3.13503 
        1.95123         21.1037         3.11093 
        1.95737         21.0101         3.08707 
        1.96349         20.9485         3.06352 
        1.96964         20.8572         3.04015 
        1.97578         20.7104         3.01701 
        1.98192         20.6562         2.99417 
        1.98805          20.617         2.97155 
        1.99419         20.5227         2.94917 
        2.00033         20.4184         2.92701 
        2.00647         20.3348         2.90509 
         2.0126          20.248         2.88342 
        2.01874          20.187         2.86195 
        2.02488         20.1184         2.84067 
        2.03101         20.0512         2.81966 
        2.03714         19.9527         2.79887 
        2.04328         19.8479         2.77827 
        2.04941         19.7785          2.7579 
        2.05554         19.7143         2.73775 
        2.06167         19.6188         2.71777 
        2.06781         19.5465         2.69798 
        2.07396         19.4869         2.67837 
        2.08009         19.4224         2.65899 
        2.08622         19.2835         2.63982 
        2.09237         19.2515          2.6208 
        2.09851          19.177         2.60197 
        2.10464         19.0668         2.58336 
        2.11077         19.0194         2.56495 
        2.11691          18.957         2.54668 
        2.12305         18.8988         2.52858 
        2.12918         18.7801         2.51071 
        2.13531         18.7794         2.49301 
        2.14145         18.6787         2.47544 
         2.1476         18.6096         2.45801 
        2.15372         18.5114         2.44085 
        2.15985         18.4434         2.42383 
        2.16599         18.3836         2.40692 
        2.17213         18.3084          2.3902 
        2.17827         18.2171         2.37364 
         2.1844         18.1429         2.35725 
        2.19054         18.0994         2.34101 
        2.19666         18.0181         2.32494 
         2.2028         17.9397         2.30902 
        2.20893          17.897         2.29323 
        2.21508         17.8328         2.27758 
        2.22122         17.6939         2.26206 
        2.22736         17.6699         2.24673 
        2.23349         17.6147         2.23154 
        2.23962         17.5532         2.21648 
        2.24577         17.4633         2.20155 
         2.2519         17.4299         2.18678 
        2.25802         17.3241         2.17216 
        2.26417         17.2943         2.15765 
        2.27031         17.1849         2.14324 
        2.27644         17.1426         2.12902 
        2.28257          17.073         2.11492 
        2.28872          17.009         2.10093 
        2.29486         16.9635         2.08706 
        2.30099         16.8656         2.07335 
        2.30712         16.8169         2.05976 
        2.31326         16.7967         2.04626 
         2.3194         16.7082          2.0329 
        2.32553         16.6368         2.01967 
        2.33166         16.5662         2.00657 
         2.3378         16.5273         1.99357 
        2.34394         16.4301         1.98068 
        2.35007         16.4027         1.96792 
        2.35619         16.3328         1.95529 
        2.36233         16.2619         1.94275 
        2.36848         16.2178         1.93028 
        2.37462         16.1287         1.91795 
        2.38075         16.0943         1.90575 
        2.38689         16.0243         1.89364 
        2.39303         15.9609         1.88163 
        2.39916         15.9151         1.86974 
        2.40529         15.8878         1.85796 
        2.41143          15.797         1.84627 
        2.41757         15.7328         1.83468 
         2.4237         15.6623          1.8232 
        2.42983         15.5812         1.81183 
        2.43598         15.5629         1.80052 
        2.44211         15.5128         1.78933 
        2.44823         15.4641         1.77826 
        2.45437         15.3796         1.76725 
        2.46052         15.3407         1.75633 
        2.46665          15.301         1.74552 
        2.47279         15.2421          1.7348 
        2.47892         15.1845         1.72417 
        2.48507         15.1089         1.71362 
         2.4912         15.0776         1.70317 
