# k  (h/Mpc)    P(k)  (Mpc/h)^3    P_linear(k)  (Mpc/h)^3
     0.00783031         1300.01         1309.46 
       0.013688         1719.54         1740.07 
       0.019231         1867.58         1878.03 
      0.0249154         1847.47         1848.82 
      0.0312784         1704.19          1709.3 
      0.0375637         1530.52         1538.01 
      0.0433917         1391.35         1391.14 
      0.0492413         1267.18         1271.67 
      0.0555754         1174.99         1174.19 
      0.0619321         1086.94         1099.37 
       0.067871         1033.04         1037.96 
      0.0738098         971.679         975.167 
      0.0800417         901.755         902.949 
      0.0862327         822.434         825.849 
      0.0921407         748.901         752.176 
      0.0982031         682.598         682.481 
       0.104506         617.252         621.262 
       0.110769         570.761          573.71 
       0.116806         541.112         539.261 
       0.122832         510.842          512.86 
       0.129052         489.656           489.8 
       0.135211         469.318          467.33 
       0.141259         442.791         443.283 
       0.147318         413.439         416.712 
       0.153489         387.531         388.192 
       0.159709         362.033         360.013 
       0.165845         332.907         334.795 
       0.171974          317.33         313.491 
       0.178125         300.599         296.346 
       0.184229         284.528         282.954 
        0.19034         276.105         271.991 
       0.196428          266.07         262.139 
       0.202534         252.727         252.167 
       0.208729           244.7         241.263 
       0.214876         234.826         229.573 
       0.220989         219.318          217.51 
       0.227147         211.668         205.607 
        0.23329         201.685         194.651 
       0.239377         193.315         185.144 
       0.245482         184.191         177.085 
       0.251667         176.408         170.242 
       0.257832         172.836         164.349 
       0.263955         165.261         158.955 
       0.270079         159.939         153.611 
        0.27624         153.246         148.049 
       0.282372         148.126         142.281 
        0.28843         145.014         136.468 
       0.294538         138.582         130.711 
       0.300721         132.234         125.211 
        0.30691         129.036         120.207 
       0.313033         124.008         115.802 
       0.319153         121.665          111.91 
       0.325316         116.441         108.376 
        0.33145          113.02         105.097 
       0.337538         110.004         101.935 
       0.343633          107.02         98.7746 
       0.349808          103.62         95.5398 
       0.355968         100.403         92.3108 
       0.362074         98.2614         89.1662 
       0.368217         95.3292         86.1319 
       0.374374         93.3204         83.2819 
       0.380519         89.3654         80.6506 
       0.386598         86.9364         78.2584 
       0.392688         84.5841         76.0344 
        0.39888         83.0031         73.9025 
       0.405048         81.1037          71.862 
       0.411186          79.103         69.8719 
       0.417313         77.0108         67.9102 
       0.423458         74.8671         65.9695 
       0.429607         73.6171         64.0658 
       0.435692         72.2626         62.2437 
       0.441815         69.6223          60.492 
       0.447964         67.6624         58.8238 
       0.454126         66.4893         57.2469 
       0.460267         65.8884         55.7632 
       0.466387         64.0595         54.3541 
        0.47254         63.1639         52.9908 
       0.478662         61.2723         51.6756 
       0.484765         60.0728          50.396 
       0.490885         58.4418         49.1386 
       0.497035         57.5816         47.9053 
       0.503198         56.2282         46.7063 
       0.509342         54.8474         45.5521 
       0.515458         54.1999         44.4469 
       0.521598         52.9532         43.3833 
       0.527764         52.2998         42.3614 
       0.533884         51.1245         41.3871 
           0.54         50.1355         40.4475 
       0.546137         48.7019          39.533 
       0.552299         47.9516         38.6407 
       0.558452         47.0458         37.7739 
       0.564573         46.6266         36.9335 
       0.570708         45.3966         36.1133 
       0.576825          44.804         35.3192 
       0.582926         44.0702         34.5525 
       0.589034         43.2668         33.8109 
       0.595184         42.7179         33.0894 
       0.601379         41.5969         32.3864 
       0.607522         41.0393         31.7109 
       0.613639         40.3587          31.058 
       0.619772         39.7517         30.4219 
       0.625918         38.9667         29.8021 
       0.632068         38.6673         29.1983 
       0.638161         37.8977         28.6155 
         0.6443         37.3423         28.0436 
       0.650464         36.4403          27.485 
       0.656582         36.2532         26.9462 
       0.662703         35.8633         26.4227 
       0.668861         34.9393         25.9113 
       0.675024         34.5612         25.4141 
       0.681124         34.3276         24.9355 
       0.687237         33.6706         24.4684 
       0.693381         32.9839         24.0108 
       0.699536          32.879         23.5638 
       0.705665         32.2857         23.1299 
       0.711789         31.7191         22.7072 
       0.717957         31.1233         22.2923 
        0.72409         30.8781         21.8904 
       0.730186         30.7184         21.5011 
       0.736317         30.1255         21.1194 
       0.742472         29.7576         20.7459 
       0.748622         29.3084         20.3819 
        0.75476         28.6182         20.0276 
       0.760888         28.5158         19.6823 
       0.767043         28.0628         19.3438 
       0.773185         27.8005          19.014 
       0.779291         27.5699         18.6938 
       0.785407         27.0862         18.3806 
       0.791564         26.9091         18.0726 
       0.797719         26.3751          17.772 
       0.803834         26.2457         17.4803 
       0.809972         25.7785         17.1941 
       0.816124         25.5162         16.9139 
       0.822261         25.2498         16.6408 
       0.828378         24.9678         16.3746 
       0.834502          24.748         16.1141 
       0.840667         24.4989         15.8576 
       0.846816         23.9914         15.6075 
       0.852925           23.91         15.3645 
       0.859047           23.63         15.1261 
       0.865192         23.3254         14.8921 
       0.871341         23.0213         14.6629 
       0.877463         22.8231         14.4396 
       0.883569          22.692         14.2216 
       0.889708         22.3343          14.007 
       0.895864         22.0719         13.7964 
       0.902008         21.8169         13.5906 
       0.908149         21.5669         13.3891 
       0.914301         21.4704         13.1915 
       0.920448          21.152         12.9981 
       0.926574         21.0229         12.8093 
       0.932687         20.7471         12.6247 
       0.938823         20.5073         12.4431 
       0.944975         20.3333         12.2647 
       0.951105         20.1176         12.0905 
       0.957225         20.0147           11.92 
       0.963368         19.7365         11.7522 
       0.969511         19.5419         11.5877 
       0.975621         19.3605         11.4273 
       0.981748         19.1164         11.2695 
       0.987916         18.9903         11.1138 
        0.99406         18.8349         10.9616 
        1.00019         18.6724         10.8126 
        1.00632         18.5102         10.6665 
        1.01246         18.3419         10.5229 
        1.01859         18.1322         10.3822 
        1.02471         17.9324         10.2443 
        1.03085         17.8816         10.1085 
        1.03698           17.71         9.97543 
        1.04314         17.5154         9.84421 
        1.04929         17.2977         9.71568 
        1.05541          17.241         9.58999 
        1.06154         17.0944         9.46623 
        1.06769         16.9925          9.3445 
        1.07382          16.718         9.22532 
        1.07993         16.5808         9.10852 
        1.08607         16.5179         8.99327 
        1.09222          16.319         8.87992 
        1.09836         16.2753         8.76868 
        1.10449         16.0288         8.65949 
        1.11063         15.9801         8.55206 
        1.11677         15.8781          8.4465 
         1.1229         15.7328         8.34293 
        1.12903         15.6345         8.24102 
        1.13518         15.4025         8.14074 
        1.14131         15.3353         8.04221 
        1.14745         15.1392         7.94537 
        1.15359         15.0432         7.85013 
        1.15973         14.9139         7.75643 
        1.16584         14.8098         7.66469 
        1.17197         14.6891         7.57431 
        1.17811         14.5666         7.48513 
        1.18424         14.4773         7.39766 
        1.19038         14.3983         7.31134 
        1.19652         14.2841         7.22645 
        1.20267         14.1743         7.14292 
        1.20881         14.0413         7.06073 
        1.21495         13.9253         6.97999 
        1.22108         13.8851         6.90052 
         1.2272         13.7558          6.8225 
        1.23334         13.7061         6.74551 
        1.23949         13.5678         6.66953 
        1.24562         13.4596         6.59495 
        1.25174          13.388         6.52162 
        1.25789         13.2274          6.4492 
        1.26402         13.1978         6.37802 
        1.27014         13.1228         6.30808 
        1.27628         12.9616           6.239 
        1.28244         12.9534         6.17083 
        1.28858         12.8517         6.10377 
        1.29471         12.6812         6.03787 
        1.30084         12.6097         5.97301 
        1.30697         12.5937         5.90901 
        1.31312         12.4608         5.84587 
        1.31925         12.3939         5.78385 
        1.32537         12.3213         5.72281 
        1.33151         12.2275         5.66243 
        1.33765         12.1351         5.60297 
        1.34378         12.1183         5.54448 
        1.34992         12.0009          5.4868 
        1.35606         11.9117         5.42982 
         1.3622         11.8276         5.37375 
        1.36833         11.7659         5.31862 
        1.37445          11.689          5.2643 
        1.38059         11.6351         5.21057 
        1.38675         11.5402         5.15747 
        1.39288         11.4499         5.10533 
        1.39901          11.386         5.05394 
        1.40515         11.3178         5.00314 
         1.4113          11.232         4.95307 
        1.41742         11.1885         4.90388 
        1.42355         11.0903         4.85527 
         1.4297         11.0533         4.80718 
        1.43585         10.9882         4.75976 
        1.44198         10.9185         4.71317 
        1.44809         10.8659          4.6673 
        1.45423         10.7759         4.62187 
        1.46036         10.7263         4.57713 
        1.46649         10.6571         4.53297 
        1.47263          10.608         4.48936 
        1.47877         10.5372         4.44635 
        1.48491         10.4891         4.40384 
        1.49104         10.4017         4.36197 
        1.49718         10.3751         4.32063 
        1.50333         10.3021         4.27976 
        1.50947         10.2147          4.2395 
         1.5156         10.2025         4.19983 
        1.52172         10.1437         4.16066 
        1.52787         10.0815         4.12192 
          1.534         10.0295         4.08373 
        1.54013         9.97437         4.04606 
        1.54627         9.91351          4.0088 
        1.55241         9.83692         3.97201 
        1.55855         9.82757         3.93573 
        1.56467         9.74623         3.90001 
         1.5708         9.70625         3.86464 
        1.57695         9.62843         3.82965 
        1.58308         9.57411         3.79518 
        1.58922         9.53914         3.76111 
        1.59535         9.48366         3.72748 
         1.6015         9.41701         3.69421 
        1.60764         9.39279         3.66137 
        1.61376         9.35709         3.62902 
        1.61989         9.26464         3.59704 
        1.62604         9.24039         3.56537 
        1.63218         9.19398         3.53411 
        1.63831         9.15627          3.5033 
        1.64444         9.07927         3.47284 
        1.65059         9.04309         3.44268 
        1.65673         9.01142         3.41291 
        1.66285         8.96733         3.38358 
        1.66898         8.90679         3.35458 
        1.67512         8.85659         3.32587 
        1.68127         8.80755         3.29748 
         1.6874         8.78676         3.26947 
        1.69353         8.72248         3.24182 
        1.69967         8.68941         3.21442 
        1.70581         8.62676         3.18735 
        1.71193         8.61217         3.16069 
        1.71806         8.57386         3.13429 
        1.72421         8.51102         3.10813 
        1.73035         8.47203         3.08231 
        1.73649         8.43719         3.05679 
        1.74262         8.38313         3.03158 
        1.74876         8.36719         3.00664 
        1.75489         8.32275         2.98203 
        1.76101         8.26467          2.9577 
        1.76715         8.25173         2.93362 
        1.77329          8.2117         2.90978 
        1.77943         8.14975         2.88619 
        1.78557         8.13502          2.8629 
        1.79171         8.10327         2.83986 
        1.79785         8.05147         2.81708 
        1.80399         7.98582         2.79455 
        1.81012         7.97258          2.7723 
        1.81625         7.93205          2.7503 
        1.82239         7.89574         2.72851 
        1.82853         7.85366         2.70697 
        1.83466         7.80678         2.68568 
        1.84078         7.78316         2.66464 
        1.84692         7.75378          2.6438 
        1.85306         7.72034         2.62315 
         1.8592         7.69555         2.60276 
        1.86533         7.65903          2.5826 
        1.87147         7.61137         2.56263 
        1.87761         7.60171         2.54287 
        1.88375         7.55256         2.52333 
        1.88988         7.51517         2.50403 
        1.89601         7.48783         2.48492 
        1.90215         7.43291         2.46599 
        1.90829         7.43039         2.44727 
        1.91442         7.37706         2.42874 
        1.92056         7.36728         2.41043 
         1.9267         7.31865         2.39228 
        1.93284         7.31249         2.37431 
        1.93897         7.25728         2.35656 
        1.94509         7.22266         2.33903 
        1.95123         7.20108         2.32164 
        1.95737         7.17461         2.30441 
        1.96349         7.11899          2.2874 
        1.96964           7.101         2.27051 
        1.97578         7.07706         2.25379 
        1.98192         7.03857         2.23727 
        1.98805         7.01909         2.22092 
        1.99419         6.99832         2.20473 
        2.00033         6.94307         2.18869 
        2.00647         6.93995         2.17282 
         2.0126         6.90235         2.15713 
        2.01874         6.88363         2.14158 
        2.02488         6.84665         2.12617 
        2.03101         6.80324         2.11093 
        2.03714         6.78827         2.09586 
        2.04328         6.76189         2.08093 
        2.04941         6.73191         2.06615 
        2.05554         6.71281         2.05152 
        2.06167         6.67621         2.03702 
        2.06781         6.65467         2.02266 
        2.07396         6.62147         2.00841 
        2.08009         6.60511         1.99433 
        2.08622         6.57733          1.9804 
        2.09237          6.5681         1.96658 
        2.09851         6.51508         1.95288 
        2.10464         6.49989         1.93934 
        2.11077         6.48469         1.92595 
        2.11691         6.46429         1.91265 
        2.12305          6.4275         1.89948 
        2.12918         6.40817         1.88646 
        2.13531         6.37295         1.87357 
        2.14145         6.36119         1.86077 
         2.1476         6.32401         1.84807 
        2.15372         6.30893         1.83555 
        2.15985         6.28741         1.82314 
        2.16599          6.2623         1.81081 
        2.17213         6.24368         1.79861 
        2.17827          6.2034         1.78652 
         2.1844         6.18021         1.77456 
        2.19054         6.16305          1.7627 
        2.19666         6.14471         1.75097 
         2.2028         6.10394         1.73933 
        2.20893          6.1008          1.7278 
        2.21508         6.08647         1.71635 
        2.22122         6.03505         1.70501 
        2.22736         6.03207         1.69379 
        2.23349         6.00298         1.68268 
        2.23962         5.98906         1.67166 
        2.24577         5.94936         1.66074 
         2.2519         5.93988         1.64992 
        2.25802         5.91108         1.63922 
        2.26417         5.89076         1.62858 
        2.27031          5.8678         1.61803 
        2.27644          5.8497          1.6076 
        2.28257         5.83024         1.59727 
        2.28872         5.81234         1.58701 
        2.29486         5.78504         1.57684 
        2.30099         5.76024         1.56678 
        2.30712         5.74696         1.55681 
        2.31326         5.72351          1.5469 
         2.3194         5.70312         1.53709 
        2.32553         5.68124         1.52738 
        2.33166         5.66721         1.51776 
         2.3378         5.64637         1.50821 
        2.34394         5.62468         1.49873 
        2.35007         5.59522         1.48936 
        2.35619         5.58838         1.48007 
        2.36233         5.56235         1.47084 
        2.36848         5.55297         1.46168 
        2.37462         5.52904         1.45261 
        2.38075         5.51606         1.44362 
        2.38689         5.49503         1.43471 
        2.39303         5.47206         1.42587 
        2.39916         5.45212         1.41711 
        2.40529         5.43292         1.40844 
        2.41143         5.42305         1.39982 
        2.41757         5.40864         1.39128 
         2.4237         5.38158         1.38282 
        2.42983         5.37324         1.37444 
        2.43598         5.35491          1.3661 
        2.44211         5.32668         1.35784 
        2.44823         5.30494         1.34967 
        2.45437         5.28969         1.34155 
        2.46052          5.2763         1.33349 
        2.46665         5.26339         1.32551 
        2.47279         5.22173         1.31759 
        2.47892         5.22045         1.30974 
        2.48507         5.20748         1.30194 
         2.4912          5.1906         1.29423 
