# k  (h/Mpc)    P(k)  (Mpc/h)^3    P_linear(k)  (Mpc/h)^3
     0.00783031         3500.68          3523.6 
       0.013688         4605.67         4680.72 
       0.019231         5007.98         5050.97 
      0.0249154         4968.29         4971.87 
      0.0312784         4568.27         4596.33 
      0.0375637         4093.31         4135.53 
      0.0433917          3729.1         3740.52 
      0.0492413         3388.08          3419.2 
      0.0555754         3145.45         3157.04 
      0.0619321         2889.25         2955.83 
       0.067871         2754.37         2790.68 
      0.0738098         2593.99         2621.83 
      0.0800417          2407.7         2427.65 
      0.0862327         2193.29         2220.35 
      0.0921407         1998.38         2022.26 
      0.0982031         1826.69         1834.88 
       0.104506          1647.5         1670.28 
       0.110769         1525.18         1542.43 
       0.116806         1453.28         1449.81 
       0.122832         1367.17         1378.83 
       0.129052          1310.5         1316.83 
       0.135211          1261.7         1256.41 
       0.141259          1186.4         1191.76 
       0.147318         1103.78         1120.33 
       0.153489         1038.79         1043.65 
       0.159709         978.685         967.889 
       0.165845         895.551          900.09 
       0.171974          863.15         842.814 
       0.178125         822.065         796.719 
       0.184229         771.417         760.715 
        0.19034         752.866          731.24 
       0.196428          727.95         704.753 
       0.202534          687.06         677.944 
       0.208729         670.681         648.627 
       0.214876         645.234           617.2 
       0.220989         601.592         584.768 
       0.227147         585.845         552.766 
        0.23329         561.481         523.312 
       0.239377             544         497.753 
       0.245482         516.944         476.086 
       0.251667         496.375         457.689 
       0.257832         490.405         441.846 
       0.263955         465.817         427.345 
       0.270079         451.405         412.976 
        0.27624         432.526         398.023 
       0.282372         421.189         382.516 
        0.28843         416.986         366.888 
       0.294538         397.111         351.411 
       0.300721         381.267         336.624 
        0.30691         374.787          323.17 
       0.313033         359.775         311.329 
       0.319153         353.518         300.863 
       0.325316         342.654         291.362 
        0.33145         334.151         282.549 
       0.337538         323.923         274.046 
       0.343633         314.417         265.551 
       0.349808          305.77         256.854 
       0.355968         298.561         248.173 
       0.362074          292.17         239.719 
       0.368217         286.616         231.561 
       0.374374         280.527         223.899 
       0.380519         269.002         216.825 
       0.386598         264.037         210.394 
       0.392688         257.953         204.415 
        0.39888         252.608         198.683 
       0.405048         247.932         193.197 
       0.411186         244.425         187.847 
       0.417313          238.93         182.573 
       0.423458         232.934         177.356 
       0.429607         228.809         172.237 
       0.435692         224.528         167.339 
       0.441815         219.161         162.629 
       0.447964         213.299         158.145 
       0.454126         209.604         153.905 
       0.460267         207.902         149.916 
       0.466387          203.66         146.128 
        0.47254          201.42         142.463 
       0.478662         195.076         138.927 
       0.484765         192.546         135.487 
       0.490885         189.026         132.107 
       0.497035         187.731         128.791 
       0.503198         183.741         125.567 
       0.509342         179.184         122.464 
       0.515458         177.585         119.493 
       0.521598         173.416         116.634 
       0.527764          171.59         113.886 
       0.533884         170.745         111.267 
           0.54          166.48         108.741 
       0.546137         162.685         106.282 
       0.552299         161.071         103.883 
       0.558452         158.244         101.553 
       0.564573          157.66         99.2937 
       0.570708         153.428         97.0885 
       0.576825         151.742         94.9537 
       0.582926         150.161         92.8924 
       0.589034         148.041         90.8987 
       0.595184         146.521         88.9591 
       0.601379         142.868         87.0691 
       0.607522         141.121          85.253 
       0.613639         139.909         83.4976 
       0.619772         137.928         81.7876 
       0.625918         136.582         80.1211 
       0.632068         134.282         78.4979 
       0.638161         132.165          76.931 
         0.6443         131.551         75.3935 
       0.650464         129.207          73.892 
       0.656582         128.648         72.4433 
       0.662703         127.195         71.0358 
       0.668861          124.59         69.6612 
       0.675024         124.543         68.3243 
       0.681124         122.561         67.0376 
       0.687237         120.212         65.7818 
       0.693381         119.813         64.5517 
       0.699536         118.436         63.3499 
       0.705665         116.572         62.1834 
       0.711789         115.181         61.0471 
       0.717957         113.985         59.9317 
        0.72409         113.279          58.851 
       0.730186         112.392         57.8044 
       0.736317         110.418         56.7784 
       0.742472         109.384         55.7741 
       0.748622         107.827         54.7957 
        0.75476         106.981         53.8431 
       0.760888         106.546         52.9147 
       0.767043         104.755         52.0047 
       0.773185         103.735          51.118 
       0.779291         102.613         50.2572 
       0.785407           101.2         49.4151 
       0.791564         101.274         48.5873 
       0.797719         100.204         47.7791 
       0.803834         99.0887         46.9947 
       0.809972         98.4588         46.2255 
       0.816124         97.4199         45.4721 
       0.822261         96.1936         44.7378 
       0.828378         95.9024         44.0222 
       0.834502         94.4894         43.3218 
       0.840667         94.0369         42.6323 
       0.846816         92.9467           41.96 
       0.852925         92.3389         41.3065 
       0.859047         91.8411         40.6657 
       0.865192         90.4691         40.0365 
       0.871341          89.598         39.4203 
       0.877463         89.1282           38.82 
       0.883569         88.7923         38.2339 
       0.889708         88.0141         37.6571 
       0.895864         87.1433         37.0908 
       0.902008         86.4123         36.5375 
       0.908149         85.6473         35.9959 
       0.914301         85.2192         35.4646 
       0.920448         84.6828         34.9446 
       0.926574          83.204          34.437 
       0.932687         82.9065         33.9407 
       0.938823         82.2059         33.4525 
       0.944975         81.4238         32.9729 
       0.951105         80.7373         32.5045 
       0.957225         80.6753         32.0462 
       0.963368         79.7974         31.5952 
       0.969511         79.1178         31.1529 
       0.975621          78.583         30.7216 
       0.981748         77.8013         30.2975 
       0.987916         77.2828         29.8787 
        0.99406         76.8247         29.4695 
        1.00019         76.1323         29.0689 
        1.00632         75.6666         28.6762 
        1.01246         75.1181         28.2902 
        1.01859         74.7055          27.912 
        1.02471         73.8384         27.5413 
        1.03085         73.5755         27.1761 
        1.03698         73.0222         26.8183 
        1.04314         72.6389         26.4656 
        1.04929          71.991           26.12 
        1.05541         71.5507         25.7821 
        1.06154         71.2613         25.4494 
        1.06769         70.3109         25.1221 
        1.07382         70.1215         24.8017 
        1.07993         69.6284         24.4877 
        1.08607         69.0833         24.1779 
        1.09222         68.8174         23.8731 
        1.09836         68.2577         23.5741 
        1.10449         67.8463         23.2805 
        1.11063         67.3066         22.9917 
        1.11677         67.2951         22.7079 
         1.1229         66.5157         22.4295 
        1.12903         66.3776         22.1555 
        1.13518         66.1284         21.8859 
        1.14131         65.4171          21.621 
        1.14745         64.7458         21.3607 
        1.15359         64.3209         21.1046 
        1.15973         64.1008         20.8527 
        1.16584          63.735          20.606 
        1.17197          63.022         20.3631 
        1.17811         62.8167         20.1233 
        1.18424         62.1272         19.8882 
        1.19038         62.0061         19.6561 
        1.19652         61.7729         19.4279 
        1.20267         61.3606         19.2033 
        1.20881         60.9431         18.9824 
        1.21495         60.6652         18.7653 
        1.22108         60.3852         18.5516 
         1.2272          60.007         18.3419 
        1.23334          59.619         18.1349 
        1.23949          59.291         17.9306 
        1.24562         58.7672         17.7301 
        1.25174         58.4915          17.533 
        1.25789         58.4876         17.3383 
        1.26402         57.9901         17.1469 
        1.27014         57.5781         16.9589 
        1.27628         57.1303         16.7732 
        1.28244         57.0062         16.5899 
        1.28858         56.5684         16.4096 
        1.29471          56.425         16.2324 
        1.30084         55.9273         16.0581 
        1.30697         55.7362          15.886 
        1.31312         55.2789         15.7163 
        1.31925         54.9494         15.5495 
        1.32537         54.7374         15.3854 
        1.33151         54.3874         15.2231 
        1.33765         54.1865         15.0632 
        1.34378         53.9419          14.906 
        1.34992         53.6037         14.7509 
        1.35606         53.3026         14.5977 
         1.3622         52.8898          14.447 
        1.36833         52.6033         14.2988 
        1.37445         52.3448         14.1527 
        1.38059         52.1243         14.0083 
        1.38675         51.6323         13.8655 
        1.39288         51.6063         13.7254 
        1.39901         51.2391         13.5872 
        1.40515         51.0367         13.4506 
         1.4113         50.9821          13.316 
        1.41742         50.6489         13.1838 
        1.42355          50.166         13.0531 
         1.4297          49.908         12.9238 
        1.43585         49.5811         12.7963 
        1.44198         49.4136         12.6711 
        1.44809         49.1932         12.5477 
        1.45423         49.0004         12.4256 
        1.46036         48.7341         12.3053 
        1.46649         48.5081         12.1866 
        1.47263         48.1643         12.0694 
        1.47877         48.0331         11.9537 
        1.48491         47.8707         11.8394 
        1.49104         47.4989         11.7269 
        1.49718         47.2857         11.6157 
        1.50333         47.1678         11.5059 
        1.50947         46.7926         11.3976 
         1.5156         46.6278          11.291 
        1.52172         46.2536         11.1857 
        1.52787         46.0674         11.0815 
          1.534         45.8886         10.9789 
        1.54013         45.6914         10.8776 
        1.54627         45.3337         10.7774 
        1.55241         45.2278         10.6785 
        1.55855         44.9853          10.581 
        1.56467         44.8893         10.4849 
         1.5708         44.6452         10.3898 
        1.57695         44.3793         10.2958 
        1.58308         44.0275         10.2031 
        1.58922         43.8408         10.1115 
        1.59535          43.716         10.0211 
         1.6015         43.5594         9.93166 
        1.60764          43.387         9.84337 
        1.61376         43.1073          9.7564 
        1.61989         42.8384         9.67042 
        1.62604         42.7084         9.58529 
        1.63218         42.4522         9.50124 
        1.63831          42.383          9.4184 
        1.64444          42.112         9.33652 
        1.65059         41.9216         9.25543 
        1.65673         41.6942          9.1754 
        1.66285         41.5662         9.09654 
        1.66898          41.299         9.01859 
        1.67512         41.2003         8.94141 
        1.68127         40.9442         8.86506 
         1.6874         40.7834         8.78978 
        1.69353          40.629         8.71543 
        1.69967         40.4234         8.64176 
        1.70581         40.0794         8.56898 
        1.71193         39.8993         8.49733 
        1.71806         39.8359         8.42634 
        1.72421         39.7167         8.35603 
        1.73035         39.4448          8.2866 
        1.73649         39.2003         8.21799 
        1.74262         39.0156         8.15021 
        1.74876         38.7948         8.08315 
        1.75489         38.7219           8.017 
        1.76101         38.6055          7.9516 
        1.76715         38.3724         7.88686 
        1.77329         38.1861         7.82275 
        1.77943         38.1054         7.75934 
        1.78557         37.8777         7.69673 
        1.79171          37.707          7.6348 
        1.79785         37.5111         7.57354 
        1.80399         37.3985         7.51297 
        1.81012         37.2473         7.45315 
        1.81625          36.971         7.39401 
        1.82239         36.8666         7.33542 
        1.82853         36.7183         7.27751 
        1.83466         36.5433         7.22027 
        1.84078         36.3475         7.16372 
        1.84692         36.2292         7.10769 
        1.85306         36.0213         7.05219 
         1.8592         35.8889         6.99737 
        1.86533         35.7079         6.94317 
        1.87147         35.5647         6.88948 
        1.87761         35.4212         6.83634 
        1.88375         35.3487         6.78383 
        1.88988          35.064         6.73193 
        1.89601         34.9387         6.68054 
        1.90215         34.8059         6.62966 
        1.90829         34.6956         6.57933 
        1.91442         34.4303         6.52952 
        1.92056         34.3708         6.48028 
         1.9267         34.2118         6.43149 
        1.93284         34.1034         6.38318 
        1.93897         33.9187         6.33547 
        1.94509         33.7922         6.28834 
        1.95123         33.6107         6.24158 
        1.95737         33.5249         6.19526 
        1.96349         33.2971         6.14953 
        1.96964         33.2793         6.10413 
        1.97578         33.0787         6.05918 
        1.98192         32.8987         6.01477 
        1.98805         32.6798          5.9708 
        1.99419         32.6841         5.92727 
        2.00033         32.4961         5.88416 
        2.00647         32.3506         5.84149 
         2.0126         32.1943         5.79932 
        2.01874         32.0318          5.7575 
        2.02488         31.9398         5.71606 
        2.03101         31.7726         5.67511 
        2.03714         31.6209          5.6346 
        2.04328         31.5294         5.59444 
        2.04941         31.3681         5.55471 
        2.05554         31.3291         5.51539 
        2.06167          31.157          5.4764 
        2.06781         31.0085         5.43779 
        2.07396         30.9302         5.39949 
        2.08009         30.7614         5.36163 
        2.08622         30.6146         5.32418 
        2.09237         30.5096         5.28702 
        2.09851         30.2816          5.2502 
        2.10464         30.2404          5.2138 
        2.11077         30.1988         5.17779 
        2.11691         29.9911         5.14204 
        2.12305         29.8919         5.10663 
        2.12918         29.7328         5.07164 
        2.13531         29.6477         5.03697 
        2.14145          29.448         5.00255 
         2.1476         29.3118         4.96842 
        2.15372         29.2214         4.93477 
        2.15985         29.1349         4.90141 
        2.16599         29.0093         4.86826 
        2.17213         28.9098         4.83545 
        2.17827         28.7066         4.80296 
         2.1844         28.6342         4.77079 
        2.19054         28.5637         4.73891 
        2.19666         28.4141         4.70737 
         2.2028          28.322         4.67609 
        2.20893         28.1091         4.64507 
        2.21508         28.0302         4.61431 
        2.22122         27.9245         4.58381 
        2.22736         27.8467         4.55366 
        2.23349         27.7293         4.52378 
        2.23962         27.6806         4.49416 
        2.24577         27.4973         4.46478 
         2.2519         27.3907          4.4357 
        2.25802         27.1952         4.40693 
        2.26417         27.1373         4.37834 
        2.27031         27.0542         4.34997 
        2.27644         27.0011         4.32194 
        2.28257         26.8367         4.29416 
        2.28872         26.7651         4.26657 
        2.29486         26.6527         4.23924 
        2.30099         26.4655         4.21219 
        2.30712         26.4106         4.18537 
        2.31326         26.2899         4.15875 
         2.3194           26.21         4.13237 
        2.32553          26.093         4.10626 
        2.33166          25.947         4.08039 
         2.3378         25.9159         4.05471 
        2.34394         25.7907         4.02925 
        2.35007         25.6647         4.00404 
        2.35619          25.559         3.97907 
        2.36233          25.477         3.95427 
        2.36848         25.3758         3.92962 
        2.37462         25.2332         3.90524 
        2.38075         25.1286         3.88108 
        2.38689          25.044         3.85712 
        2.39303         24.9449         3.83336 
        2.39916         24.8528         3.80982 
        2.40529         24.7289         3.78649 
        2.41143         24.6647         3.76333 
        2.41757         24.5341         3.74036 
         2.4237         24.4472         3.71763 
        2.42983         24.3747         3.69508 
        2.43598         24.2757         3.67266 
        2.44211         24.1536         3.65047 
        2.44823          24.105         3.62851 
        2.45437         24.0015         3.60668 
        2.46052         23.8833           3.585 
        2.46665         23.8028         3.56354 
        2.47279          23.663         3.54227 
        2.47892         23.6066         3.52115 
        2.48507         23.5194         3.50019 
         2.4912         23.4177         3.47944 
