# k  (h/Mpc)    P(k)  (Mpc/h)^3    P_linear(k)  (Mpc/h)^3
     0.00783031         15761.8         15907.1 
       0.013688         17403.5         17883.8 
       0.019231         16586.5         16842.1 
      0.0249154         14664.1         14593.8 
      0.0312784         11842.7         11910.2 
      0.0375637         9637.02         9751.25 
      0.0433917         8338.47          8339.8 
      0.0492413         7355.51         7401.28 
      0.0555754         6727.77         6717.17 
      0.0619321         5995.19          6157.5 
       0.067871         5553.64         5614.57 
      0.0738098         5016.17         5013.55 
      0.0800417         4399.21         4359.38 
      0.0862327          3795.5         3760.42 
      0.0921407         3364.97         3293.09 
      0.0982031         3053.85          2940.6 
       0.104506         2750.79         2694.82 
       0.110769         2595.55         2530.99 
       0.116806         2494.57         2402.81 
       0.122832          2333.7         2267.82 
       0.129052         2170.27         2103.21 
       0.135211         2043.91         1918.75 
       0.141259         1843.58         1734.79 
       0.147318         1673.21         1567.93 
       0.153489         1552.61          1429.8 
       0.159709            1483         1326.44 
       0.165845         1366.69          1253.5 
       0.171974         1340.58         1197.76 
       0.178125         1291.04         1146.56 
       0.184229         1193.43         1091.47 
        0.19034         1159.15         1028.79 
       0.196428            1109         961.031 
       0.202534         1022.28         893.181 
       0.208729         995.373         830.306 
       0.214876         942.382         777.613 
       0.220989         886.888         735.532 
       0.227147         863.675         701.691 
        0.23329         830.015         673.146 
       0.239377         820.894         646.595 
       0.245482         776.852         619.238 
       0.251667         745.388         589.901 
       0.257832         730.469         559.642 
       0.263955          689.94         530.037 
       0.270079         663.274         502.451 
        0.27624         634.857         477.785 
       0.282372         621.887         456.541 
        0.28843         613.234         438.345 
       0.294538         581.863          421.88 
       0.300721          566.74         406.187 
        0.30691         554.171         390.686 
       0.313033         528.644         375.285 
       0.319153         520.197         359.897 
       0.325316         510.896         344.796 
        0.33145         497.335         330.549 
       0.337538         478.201         317.492 
       0.343633         465.062         305.566 
       0.349808         453.221         294.559 
       0.355968         444.497         284.396 
       0.362074         427.624         274.851 
       0.368217         424.855         265.573 
       0.374374         417.109         256.463 
       0.380519         399.703         247.576 
       0.386598         395.227         239.051 
       0.392688         384.737         230.871 
        0.39888         375.072         223.013 
       0.405048         366.488         215.666 
       0.411186         365.582         208.804 
       0.417313          360.11         202.344 
       0.423458         350.145         196.168 
       0.429607         339.294         190.219 
       0.435692         334.528         184.528 
       0.441815         328.229         178.975 
       0.447964         320.866         173.581 
       0.454126         317.134         168.383 
       0.460267         311.693         163.429 
       0.466387         304.723         158.716 
        0.47254         300.988         154.196 
       0.478662         294.222         149.903 
       0.484765         289.788           145.8 
       0.490885         286.769         141.838 
       0.497035         280.553          137.99 
       0.503198         279.716         134.266 
       0.509342         273.287         130.679 
       0.515458         268.166         127.232 
       0.521598         263.933         123.895 
       0.527764         260.252         120.671 
       0.533884           257.9         117.595 
           0.54         254.158         114.637 
       0.546137         248.552         111.775 
       0.552299         246.946         108.999 
       0.558452         242.806         106.321 
       0.564573         241.396         103.743 
       0.570708         236.424         101.243 
       0.576825         232.604         98.8314 
       0.582926         231.104         96.5036 
       0.589034         226.839         94.2483 
       0.595184         225.258         92.0519 
       0.601379         221.699         89.9131 
       0.607522         216.542         87.8617 
       0.613639         215.873          85.884 
       0.619772         214.723         83.9628 
       0.625918         210.855          82.096 
       0.632068         208.132         80.2841 
       0.638161         206.911         78.5423 
         0.6443         203.808         76.8396 
       0.650464         201.116         75.1814 
       0.656582         199.034         73.5846 
       0.662703         198.117         72.0344 
       0.668861         193.793         70.5208 
       0.675024         193.274         69.0498 
       0.681124         190.507         67.6358 
       0.687237         189.294         66.2587 
       0.693381          185.95         64.9133 
       0.699536         185.265          63.603 
       0.705665         183.142         62.3345 
       0.711789         180.661         61.1018 
       0.717957         179.409         59.8942 
        0.72409         176.808          58.726 
       0.730186         177.681         57.5963 
       0.736317         174.895         56.4904 
       0.742472          172.72         55.4096 
       0.748622         170.685         54.3581 
        0.75476         170.648         53.3363 
       0.760888         168.326         52.3423 
       0.767043         165.751         51.3698 
       0.773185         164.281          50.424 
       0.779291         162.924         49.5073 
       0.785407         161.856         48.6122 
       0.791564          160.54         47.7337 
       0.797719         157.819         46.8773 
       0.803834         158.494         46.0474 
       0.809972         156.455         45.2346 
       0.816124         153.846         44.4398 
       0.822261          153.08         43.6662 
       0.828378         152.458         42.9134 
       0.834502         150.869         42.1778 
       0.840667         150.599         41.4547 
       0.846816         147.801         40.7506 
       0.852925         147.481         40.0673 
       0.859047         145.926         39.3983 
       0.865192         145.377         38.7423 
       0.871341         143.911         38.1009 
       0.877463         142.508          37.477 
       0.883569         142.379         36.8686 
       0.889708           141.1         36.2706 
       0.895864           139.4         35.6844 
       0.902008         138.173         35.1124 
       0.908149         136.915         34.5533 
       0.914301         135.988         34.0055 
       0.920448         135.909         33.4701 
       0.926574         133.979         32.9481 
       0.932687         133.818         32.4383 
       0.938823         132.658         31.9376 
       0.944975         132.073         31.4462 
       0.951105         130.601          30.967 
       0.957225         129.718         30.4986 
       0.963368         129.161         30.0383 
       0.969511         127.763         29.5875 
       0.975621         126.088         29.1484 
       0.981748         125.953         28.7171 
       0.987916         125.249         28.2917 
        0.99406          124.35         27.8766 
        1.00019         123.691         27.4707 
        1.00632         122.603         27.0732 
        1.01246         121.841         26.6829 
        1.01859         120.895          26.301 
        1.02471         120.076         25.9271 
        1.03085          119.26         25.5591 
        1.03698         118.493          25.199 
        1.04314         118.132         24.8444 
        1.04929         117.422         24.4974 
        1.05541         116.803         24.1584 
        1.06154         115.524          23.825 
        1.06769          114.96         23.4973 
        1.07382         114.294         23.1769 
        1.07993         113.501         22.8632 
        1.08607         113.257          22.554 
        1.09222         112.034         22.2502 
        1.09836         111.458         21.9523 
        1.10449         110.877         21.6603 
        1.11063          109.85         21.3732 
        1.11677         109.504         21.0915 
         1.1229         108.521         20.8153 
        1.12903         107.699         20.5438 
        1.13518         107.072         20.2769 
        1.14131         106.837         20.0149 
        1.14745         105.949         19.7577 
        1.15359         105.263          19.505 
        1.15973         104.821         19.2566 
        1.16584         104.048         19.0136 
        1.17197         103.643         18.7745 
        1.17811         102.824         18.5387 
        1.18424         102.219         18.3077 
        1.19038         101.708         18.0799 
        1.19652         101.091         17.8561 
        1.20267          100.34         17.6361 
        1.20881         99.6838         17.4199 
        1.21495         99.5283         17.2075 
        1.22108         98.7241         16.9988 
         1.2272         98.3907          16.794 
        1.23334         97.7777         16.5921 
        1.23949         97.2197         16.3931 
        1.24562         96.4584         16.1978 
        1.25174         96.4496          16.006 
        1.25789         95.5074         15.8168 
        1.26402         95.1485         15.6309 
        1.27014         94.3239         15.4485 
        1.27628         94.0915         15.2684 
        1.28244         93.6504         15.0908 
        1.28858         93.0147         14.9164 
        1.29471         92.4243          14.745 
        1.30084         91.7681         14.5765 
        1.30697         91.3227         14.4103 
        1.31312          90.945         14.2465 
        1.31925         90.1565         14.0858 
        1.32537         89.7783         13.9277 
        1.33151         89.6864         13.7714 
        1.33765         88.9305         13.6176 
        1.34378         88.6825         13.4665 
        1.34992         88.1088         13.3176 
        1.35606         87.7608         13.1706 
         1.3622         87.4048          13.026 
        1.36833         86.6643          12.884 
        1.37445         86.4393         12.7442 
        1.38059         85.8626          12.606 
        1.38675         85.4038         12.4695 
        1.39288         84.8954         12.3356 
        1.39901         84.5153         12.2037 
        1.40515         84.0514         12.0734 
         1.4113         83.5945         11.9451 
        1.41742         83.3823         11.8191 
        1.42355         82.9347         11.6948 
         1.4297         82.3783         11.5718 
        1.43585         82.1093         11.4506 
        1.44198         81.3894         11.3317 
        1.44809         81.0321         11.2146 
        1.45423         80.9779         11.0988 
        1.46036         80.2358         10.9848 
        1.46649         79.8374         10.8723 
        1.47263         79.2877         10.7614 
        1.47877         79.1492          10.652 
        1.48491         78.6537          10.544 
        1.49104         78.1387         10.4377 
        1.49718         77.7828         10.3328 
        1.50333         77.4518         10.2291 
        1.50947         77.2384         10.1271 
         1.5156         76.7888         10.0266 
        1.52172         76.1364         9.92748 
        1.52787         76.0192         9.82949 
          1.534         75.6138         9.73293 
        1.54013         75.2314         9.63776 
        1.54627         74.7606          9.5437 
        1.55241         74.6944         9.45087 
        1.55855         73.9073          9.3594 
        1.56467         73.5892         9.26939 
         1.5708         73.0968         9.18031 
        1.57695         72.9488         9.09226 
        1.58308         72.6173         9.00556 
        1.58922         72.3474         8.91993 
        1.59535         72.1829         8.83545 
         1.6015         71.5154         8.75194 
        1.60764         71.2235         8.66954 
        1.61376         71.0944         8.58843 
        1.61989         70.5337         8.50829 
        1.62604         70.3165         8.42899 
        1.63218         69.8466         8.35075 
        1.63831         69.6275         8.27368 
        1.64444         69.2094         8.19755 
        1.65059         68.8525         8.12219 
        1.65673         68.7152         8.04786 
        1.66285         68.2678         7.97467 
        1.66898         67.7607         7.90236 
        1.67512         67.4311          7.8308 
        1.68127         67.2886         7.76006 
         1.6874         66.9193         7.69035 
        1.69353         66.5727         7.62154 
        1.69967         66.2229          7.5534 
        1.70581         65.9847         7.48613 
        1.71193         65.6029         7.41992 
        1.71806         65.3852         7.35437 
        1.72421         65.0223         7.28948 
        1.73035         64.6567         7.22544 
        1.73649         64.3997         7.16219 
        1.74262         64.1099         7.09973 
        1.74876         63.7572         7.03798 
        1.75489         63.5432         6.97708 
        1.76101         63.3149         6.91692 
        1.76715         62.8951         6.85739 
        1.77329         62.5824         6.79847 
        1.77943         62.4059         6.74023 
        1.78557         62.1458         6.68275 
        1.79171         61.6631         6.62592 
        1.79785         61.4586         6.56975 
        1.80399         61.2956         6.51423 
        1.81012         60.8309         6.45943 
        1.81625         60.6237         6.40528 
        1.82239          60.174         6.35167 
        1.82853          60.124         6.29869 
        1.83466         59.7196         6.24637 
        1.84078         59.4125          6.1947 
        1.84692         59.3225         6.14352 
        1.85306         59.1455         6.09286 
         1.8592         58.7682         6.04285 
        1.86533         58.4265         5.99343 
        1.87147         58.1293         5.94449 
        1.87761         57.7007         5.89609 
        1.88375         57.6916         5.84827 
        1.88988         57.3729         5.80104 
        1.89601         57.2352          5.7543 
        1.90215         56.8471         5.70803 
        1.90829         56.5275          5.6623 
        1.91442         56.2032         5.61706 
        1.92056         56.0924         5.57235 
         1.9267         55.8097         5.52808 
        1.93284         55.6227         5.48427 
        1.93897         55.2291         5.44101 
        1.94509         55.0684         5.39831 
        1.95123         54.7683         5.35596 
        1.95737         54.6151         5.31403 
        1.96349         54.3857         5.27265 
        1.96964         54.0536          5.2316 
        1.97578         53.7641         5.19096 
        1.98192         53.4249         5.15083 
        1.98805         53.1721         5.11112 
        1.99419         53.2423         5.07183 
        2.00033         52.8137         5.03293 
        2.00647         52.5442         4.99444 
         2.0126         52.4168         4.95643 
        2.01874          52.296         4.91874 
        2.02488         52.0025         4.88141 
        2.03101         51.6659         4.84454 
        2.03714         51.4527         4.80808 
        2.04328         51.2997         4.77196 
        2.04941         50.9434         4.73623 
        2.05554         50.6746         4.70089 
        2.06167         50.4586         4.66587 
        2.06781         50.3549         4.63119 
        2.07396         50.0301         4.59682 
        2.08009          49.912         4.56285 
        2.08622           49.61         4.52926 
        2.09237         49.4186         4.49595 
        2.09851         49.0954         4.46296 
        2.10464         48.8788         4.43036 
        2.11077         48.7648         4.39812 
        2.11691          48.539         4.36613 
        2.12305         48.2756         4.33445 
        2.12918         48.0133         4.30316 
        2.13531         47.8865         4.27218 
        2.14145         47.5862         4.24143 
         2.1476         47.6259         4.21094 
        2.15372         47.2192         4.18091 
        2.15985          47.031         4.15114 
        2.16599         46.8857         4.12157 
        2.17213         46.6564         4.09232 
        2.17827          46.379         4.06336 
         2.1844         46.1166          4.0347 
        2.19054         46.1158         4.00631 
        2.19666         45.8815         3.97824 
         2.2028         45.6078          3.9504 
        2.20893         45.3186         3.92282 
        2.21508         45.1862         3.89547 
        2.22122         44.8903         3.86836 
        2.22736         44.7442         3.84158 
        2.23349         44.6078         3.81505 
        2.23962         44.4753         3.78875 
        2.24577         44.1986         3.76268 
         2.2519         43.9744         3.73689 
        2.25802         43.7892         3.71139 
        2.26417         43.6109         3.68605 
        2.27031         43.4699         3.66092 
        2.27644          43.162         3.63609 
        2.28257         43.0576          3.6115 
        2.28872         42.8473         3.58709 
        2.29486          42.638         3.56291 
        2.30099         42.4312           3.539 
        2.30712         42.2628         3.51529 
        2.31326         42.1262         3.49176 
         2.3194         41.9451         3.46847 
        2.32553         41.7248         3.44542 
        2.33166         41.5982         3.42259 
         2.3378         41.3529         3.39993 
        2.34394         41.2007         3.37747 
        2.35007         41.0666         3.35525 
        2.35619         40.8341         3.33325 
        2.36233         40.6968         3.31139 
        2.36848         40.4489         3.28969 
        2.37462         40.3013         3.26822 
        2.38075         40.1175         3.24697 
        2.38689         39.9211         3.22588 
        2.39303         39.8226         3.20499 
        2.39916         39.6385          3.1843 
        2.40529         39.4965          3.1638 
        2.41143         39.3441         3.14346 
        2.41757         39.1371         3.12329 
         2.4237         38.9594         3.10333 
        2.42983         38.8431         3.08355 
        2.43598         38.6263         3.06389 
        2.44211         38.4156         3.04443 
        2.44823          38.339         3.02518 
        2.45437         38.1054         3.00605 
        2.46052         37.9061         2.98706 
        2.46665         37.7628         2.96827 
        2.47279          37.614         2.94965 
        2.47892         37.4521         2.93117 
        2.48507         37.3086         2.91284 
         2.4912         37.0798         2.89469 
