# k  (h/Mpc)    Pcb(k)  (Mpc/h)^3    Pcb_linear(k)  (Mpc/h)^3
     0.00783031         8710.51         8766.85 
       0.013688         9690.23         9881.92 
       0.019231         9223.57         9315.63 
      0.0249154         8118.05         8076.49 
      0.0312784         6581.68         6593.76 
      0.0375637         5363.18         5399.73 
      0.0433917         4629.07         4618.81 
      0.0492413         4086.93         4099.47 
      0.0555754         3735.52         3720.87 
      0.0619321         3348.34         3411.07 
       0.067871         3093.99         3110.45 
      0.0738098         2781.88         2777.59 
      0.0800417         2435.92         2415.25 
      0.0862327         2097.77         2083.46 
      0.0921407         1848.95         1824.58 
      0.0982031         1670.85          1629.3 
       0.104506         1508.28         1493.15 
       0.110769         1421.63         1402.39 
       0.116806         1365.43         1331.38 
       0.122832         1276.14          1256.6 
       0.129052         1190.04          1165.4 
       0.135211         1107.73          1063.2 
       0.141259         998.347         961.273 
       0.147318         900.627          868.82 
       0.153489         831.681         792.278 
       0.159709         787.066         735.008 
       0.165845         726.936         694.595 
       0.171974          712.93         663.713 
       0.178125         682.995         635.341 
       0.184229          637.52         604.818 
        0.19034         613.611         570.084 
       0.196428         581.922         532.539 
       0.202534         533.433         494.944 
       0.208729         514.687         460.103 
       0.214876         487.828         430.905 
       0.220989         454.882         407.588 
       0.227147          443.66         388.835 
        0.23329         426.602         373.018 
       0.239377         417.458         358.305 
       0.245482          395.34         343.147 
       0.251667         377.096         326.891 
       0.257832         369.369         310.123 
       0.263955         346.153         293.718 
       0.270079         330.453         278.431 
        0.27624         315.584         264.762 
       0.282372         306.319         252.992 
        0.28843         302.823         242.908 
       0.294538          287.58         233.784 
       0.300721         277.105         225.087 
        0.30691         271.799         216.498 
       0.313033         258.801         207.964 
       0.319153         253.469         199.437 
       0.325316         245.953         191.069 
        0.33145         238.207         183.175 
       0.337538         229.026         175.938 
       0.343633         221.646          169.33 
       0.349808         214.892          163.23 
       0.355968         209.924         157.598 
       0.362074         203.766         152.309 
       0.368217         200.236         147.168 
       0.374374         194.917         142.119 
       0.380519         186.619         137.195 
       0.386598         183.155         132.471 
       0.392688         177.514         127.938 
        0.39888         173.762         123.583 
       0.405048         169.515         119.512 
       0.411186         167.258          115.71 
       0.417313          163.41          112.13 
       0.423458         158.986         108.707 
       0.429607         154.743         105.411 
       0.435692         152.238         102.257 
       0.441815         148.376         99.1801 
       0.447964         143.808         96.1907 
       0.454126         141.287         93.3102 
       0.460267         139.648         90.5649 
       0.466387         136.086         87.9533 
        0.47254         134.395         85.4484 
       0.478662          129.97         83.0694 
       0.484765         127.985          80.796 
       0.490885         125.408            78.6 
       0.497035         124.018          76.468 
       0.503198         121.874         74.4042 
       0.509342         118.623         72.4166 
       0.515458         116.698         70.5063 
       0.521598         113.749         68.6574 
       0.527764         112.651         66.8705 
       0.533884         111.751         65.1659 
           0.54         108.744         63.5267 
       0.546137         106.209         61.9407 
       0.552299         104.508         60.4027 
       0.558452         102.698         58.9183 
       0.564573         102.127         57.4899 
       0.570708         99.2426         56.1046 
       0.576825         98.0865         54.7681 
       0.582926         96.9463         53.4782 
       0.589034         95.2044         52.2284 
       0.595184         94.0052         51.0112 
       0.601379         92.0558          49.826 
       0.607522         90.0741         48.6892 
       0.613639         89.4063         47.5932 
       0.619772         87.8279         46.5286 
       0.625918         87.1819         45.4941 
       0.632068         85.1657           44.49 
       0.638161         84.1027         43.5248 
         0.6443         83.5331         42.5812 
       0.650464         81.6222         41.6623 
       0.656582         81.2661         40.7775 
       0.662703         80.1732         39.9184 
       0.668861         78.3969         39.0796 
       0.675024         78.2922         38.2645 
       0.681124         76.9537         37.4809 
       0.687237         75.7286         36.7178 
       0.693381         74.8749         35.9722 
       0.699536         74.0201         35.2461 
       0.705665         73.0661         34.5432 
       0.711789          71.962         33.8601 
       0.717957         71.0514         33.1908 
        0.72409         70.2973         32.5435 
       0.730186         69.9529         31.9175 
       0.736317         68.8148         31.3046 
       0.742472          67.672         30.7057 
       0.748622         66.6967          30.123 
        0.75476         66.5384         29.5567 
       0.760888          65.971         29.0059 
       0.767043          64.584          28.467 
       0.773185          63.736         27.9429 
       0.779291         63.0545         27.4349 
       0.785407         62.4751         26.9389 
       0.791564         62.1565          26.452 
       0.797719          61.085         25.9774 
       0.803834         60.7964         25.5175 
       0.809972           60.19         25.0672 
       0.816124         59.3172         24.6267 
       0.822261         58.5553          24.198 
       0.828378         58.4271         23.7808 
       0.834502         57.6629         23.3732 
       0.840667         57.1808         22.9725 
       0.846816          56.563         22.5823 
       0.852925         55.8618         22.2036 
       0.859047         55.6555         21.8329 
       0.865192         54.8689         21.4694 
       0.871341         54.2875          21.114 
       0.877463         53.7386         20.7682 
       0.883569         53.6853         20.4311 
       0.889708         53.0517         20.0997 
       0.895864         52.6488         19.7748 
       0.902008         52.0275         19.4579 
       0.908149         51.3547          19.148 
       0.914301         51.0935         18.8445 
       0.920448         51.0073         18.5477 
       0.926574         49.9391         18.2585 
       0.932687         49.7081          17.976 
       0.938823         49.2851         17.6985 
       0.944975         48.6828         17.4262 
       0.951105         48.2908         17.1606 
       0.957225         48.0614         16.9011 
       0.963368         47.6066          16.646 
       0.969511         47.2342         16.3962 
       0.975621         46.7653         16.1528 
       0.981748         46.3843         15.9138 
       0.987916         45.9683         15.6781 
        0.99406         45.7563         15.4481 
        1.00019         45.1696         15.2231 
        1.00632         44.8476         15.0028 
        1.01246         44.5612         14.7866 
        1.01859         44.2914          14.575 
        1.02471         43.8438         14.3677 
        1.03085         43.4972         14.1638 
        1.03698         43.2458         13.9643 
        1.04314         42.8683         13.7677 
        1.04929         42.4718         13.5754 
        1.05541         42.2912         13.3876 
        1.06154         41.9294         13.2028 
        1.06769         41.5216         13.0213 
        1.07382         41.1533         12.8437 
        1.07993         41.0114         12.6698 
        1.08607         40.6439         12.4985 
        1.09222         40.4534         12.3301 
        1.09836         40.1383         12.1651 
        1.10449         39.8848         12.0032 
        1.11063          39.523         11.8442 
        1.11677         39.4055          11.688 
         1.1229         38.9761          11.535 
        1.12903         38.7842         11.3845 
        1.13518         38.6205         11.2366 
        1.14131         38.2623         11.0915 
        1.14745         37.9977         10.9489 
        1.15359         37.5443         10.8089 
        1.15973         37.5621         10.6712 
        1.16584         37.2411         10.5366 
        1.17197         36.8727         10.4041 
        1.17811         36.6846         10.2734 
        1.18424          36.187         10.1454 
        1.19038         36.0857         10.0192 
        1.19652         35.9318         9.89515 
        1.20267         35.6496         9.77323 
        1.20881         35.4382         9.65338 
        1.21495         35.3022         9.53573 
        1.22108         35.1961         9.42005 
         1.2272         34.7623         9.30657 
        1.23334         34.6224         9.19468 
        1.23949         34.3908         9.08437 
        1.24562         34.1658         8.97618 
        1.25174          33.958          8.8699 
        1.25789         33.7942         8.76502 
        1.26402         33.5807         8.66202 
        1.27014         33.4635         8.56092 
        1.27628         33.1149         8.46113 
        1.28244         33.1333         8.36274 
        1.28858         32.7695         8.26604 
        1.29471         32.5077         8.17108 
        1.30084         32.2774          8.0777 
        1.30697         32.3034         7.98563 
        1.31312         32.0232         7.89486 
        1.31925         31.7472         7.80578 
        1.32537         31.5678         7.71816 
        1.33151         31.3603         7.63157 
        1.33765         31.3038         7.54635 
        1.34378         31.1276         7.46261 
        1.34992         30.8762         7.38007 
        1.35606         30.6045          7.2986 
         1.3622          30.558          7.2185 
        1.36833         30.4458          7.1398 
        1.37445         30.1208         7.06231 
        1.38059         30.0068         6.98573 
        1.38675         29.8258          6.9101 
        1.39288         29.7125         6.83588 
        1.39901         29.4703         6.76279 
        1.40515         29.3662         6.69061 
         1.4113         29.2952          6.6195 
        1.41742         29.0807          6.5497 
        1.42355         28.8409         6.48076 
         1.4297         28.7994         6.41262 
        1.43585         28.6138         6.34548 
        1.44198         28.4027         6.27955 
        1.44809         28.2147         6.21468 
        1.45423         28.1461         6.15049 
        1.46036          28.064         6.08732 
        1.46649         27.8222         6.02501 
        1.47263         27.6791         5.96352 
        1.47877         27.5399         5.90292 
        1.48491         27.3847         5.84306 
        1.49104         27.2179         5.78415 
        1.49718         27.1842         5.72601 
        1.50333         27.0411         5.66857 
        1.50947         26.8044         5.61203 
         1.5156         26.7586         5.55634 
        1.52172         26.5495         5.50141 
        1.52787         26.5218         5.44711 
          1.534         26.2685          5.3936 
        1.54013         26.3176         5.34086 
        1.54627          26.055         5.28874 
        1.55241         25.9424         5.23729 
        1.55855         25.8138         5.18661 
        1.56467         25.6319         5.13673 
         1.5708         25.6084         5.08736 
        1.57695         25.4832         5.03857 
        1.58308         25.2586         4.99052 
        1.58922         25.1631         4.94307 
        1.59535         25.0854         4.89625 
         1.6015         25.0372         4.84998 
        1.60764          24.799         4.80431 
        1.61376         24.6861         4.75937 
        1.61989          24.528         4.71496 
        1.62604         24.4278         4.67101 
        1.63218         24.2599         4.62765 
        1.63831          24.226         4.58494 
        1.64444         24.1221         4.54275 
        1.65059         23.9655           4.501 
        1.65673         23.8969          4.4598 
        1.66285         23.8105         4.41924 
        1.66898         23.6638         4.37917 
        1.67512         23.5768         4.33952 
        1.68127         23.4485         4.30032 
         1.6874         23.3671         4.26169 
        1.69353         23.2421         4.22356 
        1.69967         23.1463          4.1858 
        1.70581         23.0281         4.14851 
        1.71193         22.9196         4.11183 
        1.71806         22.8509          4.0755 
        1.72421         22.7311         4.03954 
        1.73035         22.6149         4.00405 
        1.73649         22.4709           3.969 
        1.74262         22.3616         3.93439 
        1.74876         22.3868         3.90017 
        1.75489         22.1894         3.86642 
        1.76101          22.133         3.83308 
        1.76715         21.9778         3.80009 
        1.77329         21.8515         3.76745 
        1.77943         21.8291         3.73517 
        1.78557         21.7697         3.70331 
        1.79171         21.6422         3.67182 
        1.79785         21.5492         3.64069 
        1.80399         21.4112         3.60993 
        1.81012         21.3786         3.57956 
        1.81625         21.1885         3.54955 
        1.82239         21.1318         3.51984 
        1.82853         21.0539         3.49049 
        1.83466         20.9544         3.46149 
        1.84078         20.8417         3.43286 
        1.84692         20.7621          3.4045 
        1.85306         20.6708         3.37642 
         1.8592         20.6509         3.34871 
        1.86533         20.5249         3.32132 
        1.87147         20.4179          3.2942 
        1.87761         20.3105         3.26738 
        1.88375         20.2451         3.24088 
        1.88988         20.1663         3.21471 
        1.89601         20.0604          3.1888 
        1.90215         19.9852         3.16317 
        1.90829         19.9263         3.13782 
        1.91442         19.7949         3.11275 
        1.92056         19.7559         3.08798 
         1.9267         19.6877         3.06344 
        1.93284         19.6152         3.03916 
        1.93897          19.517         3.01519 
        1.94509         19.4384         2.99153 
        1.95123         19.3493         2.96806 
        1.95737         19.2568         2.94482 
        1.96349         19.2123          2.9219 
        1.96964         19.1179         2.89914 
        1.97578         19.0287         2.87662 
        1.98192         18.9424         2.85439 
        1.98805         18.8507         2.83238 
        1.99419         18.7809         2.81061 
        2.00033         18.7047         2.78905 
        2.00647         18.6559         2.76772 
         2.0126         18.5239         2.74666 
        2.01874         18.4827         2.72577 
        2.02488          18.384         2.70509 
        2.03101         18.3053         2.68465 
        2.03714         18.2605         2.66445 
        2.04328         18.1663         2.64443 
        2.04941         18.0852         2.62463 
        2.05554         18.0442         2.60505 
        2.06167         17.9856         2.58564 
        2.06781         17.9001         2.56642 
        2.07396         17.8359         2.54738 
        2.08009         17.7232         2.52855 
        2.08622         17.6914         2.50994 
        2.09237         17.6156         2.49148 
        2.09851         17.5698          2.4732 
        2.10464         17.4373         2.45513 
        2.11077         17.4041         2.43726 
        2.11691         17.3194         2.41954 
        2.12305          17.283         2.40198 
        2.12918         17.1962         2.38464 
        2.13531         17.1376         2.36747 
        2.14145         17.0657         2.35043 
         2.1476         16.9723         2.33354 
        2.15372         16.9564          2.3169 
        2.15985         16.8661          2.3004 
        2.16599         16.7762         2.28401 
        2.17213         16.7251          2.2678 
        2.17827         16.6541         2.25176 
         2.1844         16.5803         2.23588 
        2.19054         16.5872         2.22014 
        2.19666         16.4666         2.20458 
         2.2028         16.4593         2.18916 
        2.20893         16.3411         2.17387 
        2.21508         16.2874         2.15871 
        2.22122         16.2119          2.1437 
        2.22736         16.1926         2.12885 
        2.23349         16.0967         2.11415 
        2.23962           16.06         2.09958 
        2.24577         15.9742         2.08513 
         2.2519         15.9071         2.07084 
        2.25802         15.8254         2.05671 
        2.26417         15.7987         2.04266 
        2.27031         15.7339         2.02874 
        2.27644         15.6815         2.01498 
        2.28257         15.6167         2.00135 
        2.28872          15.599         1.98782 
        2.29486         15.5327         1.97442 
        2.30099         15.4333         1.96117 
        2.30712         15.4114         1.94804 
        2.31326         15.3213           1.935 
         2.3194         15.2805         1.92209 
        2.32553         15.2254         1.90932 
        2.33166         15.1508         1.89666 
         2.3378         15.1003         1.88411 
        2.34394         15.0517         1.87166 
        2.35007         14.9958         1.85935 
        2.35619          14.973         1.84715 
        2.36233         14.8436         1.83504 
        2.36848         14.8289         1.82302 
        2.37462         14.7905         1.81112 
        2.38075         14.7275         1.79934 
        2.38689         14.6433         1.78766 
        2.39303         14.5958         1.77608 
        2.39916         14.5399         1.76462 
        2.40529         14.5089         1.75325 
        2.41143         14.4215         1.74198 
        2.41757         14.3606          1.7308 
         2.4237         14.3293         1.71974 
        2.42983         14.2914         1.70878 
        2.43598         14.2216         1.69789 
        2.44211          14.184          1.6871 
        2.44823         14.1002         1.67644 
        2.45437          14.092         1.66583 
        2.46052         14.0272         1.65531 
        2.46665         14.0045          1.6449 
        2.47279         13.9207         1.63458 
        2.47892         13.8657         1.62434 
        2.48507         13.8329         1.61418 
         2.4912         13.7657         1.60413 
