# k  (h/Mpc)    P(k)  (Mpc/h)^3    P_linear(k)  (Mpc/h)^3
     0.00783031         55.3066         55.7483 
       0.013688         70.7966         71.0453 
       0.019231         74.0034         74.0175 
      0.0249154         70.2586          70.383 
      0.0312784         62.6502         62.6044 
      0.0375637         54.3839         54.2479 
      0.0433917          47.605         47.5048 
      0.0492413         42.3795         42.2621 
      0.0555754         38.2899         38.2204 
      0.0619321         35.4911         35.3808 
       0.067871         33.3045         33.2722 
      0.0738098         31.2455         31.2343 
      0.0800417         28.8742         28.8851 
      0.0862327         26.3017         26.2889 
      0.0921407         23.7371         23.7071 
      0.0982031          21.198         21.1776 
       0.104506         18.9538         18.8961 
       0.110769         17.1572          17.106 
       0.116806         15.8572         15.8368 
       0.122832          14.968         14.9341 
       0.129052         14.2549         14.2453 
       0.135211         13.6518         13.6542 
       0.141259         13.0494         13.0415 
       0.147318         12.3513         12.3314 
       0.153489         11.5171         11.5068 
       0.159709         10.6356         10.6236 
       0.165845         9.81043         9.77563 
       0.171974         9.03249         9.01993 
       0.178125         8.41166          8.3946 
       0.184229         7.93691         7.91408 
        0.19034         7.55596         7.55229 
       0.196428         7.28222         7.27164 
       0.202534         7.04926         7.02498 
       0.208729         6.78095         6.76993 
       0.214876          6.4868         6.48714 
       0.220989         6.19075         6.17125 
       0.227147         5.83132         5.83005 
        0.23329         5.49138         5.48845 
       0.239377         5.17677         5.17131 
       0.245482         4.89457         4.89133 
       0.251667         4.66691         4.65422 
       0.257832         4.46856         4.46178 
       0.263955         4.31297         4.30397 
       0.270079         4.17461         4.16556 
        0.27624         4.04711           4.032 
       0.282372         3.90839         3.89473 
        0.28843         3.75643         3.75024 
       0.294538         3.60406         3.59665 
       0.300721         3.45182         3.43851 
        0.30691         3.29257         3.28449 
       0.313033         3.15164         3.14293 
       0.319153         3.01478         3.01611 
       0.325316         2.91809         2.90441 
        0.33145         2.81832         2.80714 
       0.337538         2.73044         2.72083 
       0.343633         2.64683         2.64012 
       0.349808         2.56884         2.56031 
       0.355968         2.49013         2.48004 
       0.362074         2.40684         2.39895 
       0.368217         2.32497         2.31671 
       0.374374         2.23846         2.23522 
       0.380519         2.16542         2.15707 
       0.386598         2.09422         2.08447 
       0.392688         2.02946         2.01739 
        0.39888         1.96465         1.95507 
       0.405048         1.90792         1.89795 
       0.411186         1.85559         1.84492 
       0.417313         1.80227         1.79436 
       0.423458          1.7555         1.74482 
       0.429607         1.70353          1.6959 
       0.435692         1.65541         1.64788 
       0.441815         1.60796         1.60018 
       0.447964         1.56499         1.55352 
       0.454126         1.51631         1.50857 
       0.460267         1.47271         1.46592 
       0.466387         1.43203         1.42586 
        0.47254         1.39488         1.38795 
       0.478662         1.36028         1.35224 
       0.484765         1.32473         1.31826 
       0.490885         1.29271         1.28546 
       0.497035         1.26391          1.2534 
       0.503198         1.23011         1.22194 
       0.509342          1.2013         1.19125 
       0.515458         1.16917         1.16146 
       0.521598         1.14057          1.1324 
       0.527764         1.11046         1.10419 
       0.533884         1.08672         1.07729 
           0.54         1.06029         1.05159 
       0.546137         1.03646         1.02687 
       0.552299         1.01165         1.00302 
       0.558452        0.987126        0.980062 
       0.564573        0.966126        0.957963 
       0.570708        0.944757        0.936454 
       0.576825        0.923138         0.91556 
       0.582926        0.904342        0.895224 
       0.589034        0.881109        0.875397 
       0.595184        0.862378        0.856011 
       0.601379        0.844049        0.837105 
       0.607522        0.827186        0.818971 
       0.613639        0.810927        0.801502 
       0.619772        0.791568        0.784556 
       0.625918        0.775624        0.768123 
       0.632068        0.760714        0.752194 
       0.638161        0.744521        0.736875 
         0.6443        0.729473        0.721864 
       0.650464        0.713589        0.707183 
       0.656582        0.700217        0.692977 
       0.662703        0.686734        0.679134 
       0.668861        0.674283        0.665584 
       0.675024        0.660032        0.652403 
       0.681124        0.645899        0.639732 
       0.687237        0.635055        0.627394 
       0.693381        0.623323        0.615339 
       0.699536        0.609495        0.603591 
       0.705665        0.598413        0.592206 
       0.711789        0.588617        0.581127 
       0.717957        0.576627        0.570257 
        0.72409        0.566815        0.559725 
       0.730186        0.555885        0.549524 
       0.736317        0.547208        0.539522 
       0.742472        0.537004        0.529732 
       0.748622        0.527192        0.520194 
        0.75476        0.516919        0.510914 
       0.760888        0.507779        0.501875 
       0.767043        0.501067        0.493023 
       0.773185        0.491146        0.484406 
       0.779291        0.482566        0.476049 
       0.785407        0.474763         0.46788 
       0.791564         0.46676        0.459856 
       0.797719        0.459217        0.452027 
       0.803834        0.451717        0.444433 
       0.809972        0.443886        0.436988 
       0.816124        0.436409        0.429699 
       0.822261        0.428778        0.422596 
       0.828378        0.422502        0.415677 
       0.834502        0.415994        0.408908 
       0.840667        0.408488        0.402247 
       0.846816        0.402193        0.395754 
       0.852925        0.396742        0.389447 
       0.859047        0.390509        0.383265 
       0.865192        0.383679        0.377199 
       0.871341        0.377508        0.371261 
       0.877463        0.372789        0.365479 
       0.883569        0.366494        0.359836 
       0.889708        0.360959        0.354285 
       0.895864        0.355324        0.348837 
       0.902008        0.349943        0.343517 
       0.908149        0.344531        0.338311 
       0.914301        0.338617        0.333206 
       0.920448        0.334154        0.328212 
       0.926574        0.329055        0.323339 
       0.932687        0.324072        0.318576 
       0.938823        0.320408        0.313892 
       0.944975        0.315494        0.309293 
       0.951105        0.311078        0.304803 
       0.957225        0.307196        0.300411 
       0.963368        0.302437        0.296091 
       0.969511        0.297702        0.291857 
       0.975621        0.293553        0.287729 
       0.981748        0.290315        0.283671 
       0.987916        0.286026        0.279666 
        0.99406        0.281828        0.275754 
        1.00019        0.278379        0.271926 
        1.00632        0.273945        0.268174 
        1.01246         0.27006        0.264489 
        1.01859        0.266904        0.260879 
        1.02471        0.263323        0.257341 
        1.03085         0.26037        0.253858 
        1.03698        0.256408        0.250447 
        1.04314        0.253115        0.247084 
        1.04929        0.249598        0.243792 
        1.05541        0.246801        0.240574 
        1.06154        0.243202        0.237406 
        1.06769        0.239832        0.234291 
        1.07382        0.237002        0.231243 
        1.07993        0.233739        0.228256 
        1.08607        0.231506         0.22531 
        1.09222        0.228104        0.222414 
        1.09836        0.225754        0.219572 
        1.10449        0.222861        0.216784 
        1.11063        0.219591        0.214041 
        1.11677        0.216777        0.211347 
         1.1229        0.214426        0.208704 
        1.12903        0.211641        0.206105 
        1.13518        0.209314        0.203548 
        1.14131        0.206561        0.201036 
        1.14745        0.203558        0.198568 
        1.15359          0.2015        0.196141 
        1.15973        0.198745        0.193754 
        1.16584         0.19689        0.191418 
        1.17197        0.194505        0.189117 
        1.17811        0.192421        0.186847 
        1.18424        0.190468        0.184622 
        1.19038        0.187886        0.182426 
        1.19652        0.185242        0.180267 
        1.20267        0.183707        0.178143 
        1.20881        0.181561        0.176054 
        1.21495        0.179666        0.174002 
        1.22108        0.177318        0.171984 
         1.2272        0.175583        0.170002 
        1.23334        0.173441        0.168047 
        1.23949        0.171513        0.166119 
        1.24562        0.169618        0.164226 
        1.25174        0.167825        0.162366 
        1.25789         0.16627        0.160529 
        1.26402        0.163878        0.158724 
        1.27014        0.162351        0.156952 
        1.27628        0.160662        0.155201 
        1.28244        0.158574        0.153474 
        1.28858        0.157064        0.151776 
        1.29471        0.155712        0.150108 
        1.30084        0.153665        0.148466 
        1.30697        0.152113        0.146846 
        1.31312        0.150134        0.145249 
        1.31925        0.148714         0.14368 
        1.32537        0.147319        0.142137 
        1.33151        0.145838         0.14061 
        1.33765        0.144361        0.139107 
        1.34378         0.14272        0.137629 
        1.34992        0.141208        0.136172 
        1.35606        0.139791        0.134733 
         1.3622        0.138412        0.133317 
        1.36833        0.136962        0.131925 
        1.37445         0.13527        0.130554 
        1.38059        0.134072        0.129198 
        1.38675        0.133139        0.127858 
        1.39288        0.131647        0.126543 
        1.39901        0.130268        0.125246 
        1.40515        0.129202        0.123965 
         1.4113        0.127564        0.122703 
        1.41742        0.126364        0.121463 
        1.42355        0.125323        0.120238 
         1.4297        0.123963        0.119027 
        1.43585        0.122802        0.117832 
        1.44198        0.121709        0.116659 
        1.44809        0.120413        0.115504 
        1.45423        0.119342         0.11436 
        1.46036        0.118192        0.113234 
        1.46649        0.117297        0.112123 
        1.47263        0.116026        0.111026 
        1.47877        0.114658        0.109944 
        1.48491        0.113799        0.108875 
        1.49104        0.112538        0.107822 
        1.49718        0.111423        0.106783 
        1.50333        0.110698        0.105756 
        1.50947        0.109468        0.104744 
         1.5156        0.108491        0.103747 
        1.52172        0.107509        0.102764 
        1.52787        0.106528        0.101791 
          1.534        0.105412        0.100832 
        1.54013        0.104517       0.0998861 
        1.54627        0.103789        0.098951 
        1.55241        0.102635       0.0980278 
        1.55855        0.101618       0.0971177 
        1.56467        0.101043       0.0962217 
         1.5708        0.100043       0.0953346 
        1.57695       0.0990678       0.0944574 
        1.58308       0.0981586       0.0935932 
        1.58922       0.0973839       0.0927394 
        1.59535       0.0964984       0.0918965 
         1.6015       0.0955585        0.091063 
        1.60764        0.094853       0.0902403 
        1.61376       0.0939094         0.08943 
        1.61989       0.0931791       0.0886291 
        1.62604       0.0924548       0.0878363 
        1.63218       0.0916283       0.0870537 
        1.63831       0.0908047       0.0862825 
        1.64444       0.0900819       0.0855204 
        1.65059       0.0893423       0.0847657 
        1.65673       0.0885898        0.084021 
        1.66285       0.0879638       0.0832873 
        1.66898       0.0871618       0.0825622 
        1.67512       0.0863015       0.0818444 
        1.68127       0.0855443       0.0811345 
         1.6874       0.0849511       0.0804346 
        1.69353        0.084076       0.0797434 
        1.69967       0.0836969       0.0790587 
        1.70581       0.0826789       0.0783824 
        1.71193       0.0821036       0.0777166 
        1.71806       0.0813546       0.0770571 
        1.72421       0.0809585        0.076404 
        1.73035       0.0801101       0.0757592 
        1.73649       0.0796036       0.0751221 
        1.74262       0.0788849       0.0744928 
        1.74876       0.0782267       0.0738703 
        1.75489       0.0777465       0.0732563 
        1.76101       0.0769844       0.0726494 
        1.76715         0.07635       0.0720486 
        1.77329       0.0756781        0.071454 
        1.77943       0.0751869       0.0708657 
        1.78557       0.0746547       0.0702851 
        1.79171       0.0740559       0.0697108 
        1.79785        0.073477       0.0691429 
        1.80399       0.0728722       0.0685814 
        1.81012       0.0723528        0.068027 
        1.81625        0.071746       0.0674789 
        1.82239        0.071159       0.0669361 
        1.82853       0.0706351       0.0663996 
        1.83466       0.0701173       0.0658694 
        1.84078       0.0695837       0.0653457 
        1.84692       0.0689857       0.0648268 
        1.85306       0.0685547       0.0643129 
         1.8592       0.0679225       0.0638055 
        1.86533       0.0675191       0.0633038 
        1.87147       0.0669602       0.0628069 
        1.87761        0.066608       0.0623152 
        1.88375       0.0660808       0.0618294 
        1.88988       0.0654802       0.0613493 
        1.89601       0.0650242        0.060874 
        1.90215       0.0645353       0.0604034 
        1.90829       0.0640148        0.059938 
        1.91442       0.0636978       0.0594775 
        1.92056       0.0631189       0.0590223 
         1.9267       0.0626259       0.0585714 
        1.93284       0.0622129        0.058125 
        1.93897       0.0617555       0.0576841 
        1.94509       0.0613826       0.0572487 
        1.95123       0.0608723       0.0568167 
        1.95737       0.0604737       0.0563888 
        1.96349       0.0600023       0.0559665 
        1.96964       0.0595985       0.0555473 
        1.97578       0.0591533       0.0551322 
        1.98192       0.0588047       0.0547223 
        1.98805       0.0583448       0.0543164 
        1.99419        0.057876       0.0539147 
        2.00033       0.0574833       0.0535168 
        2.00647       0.0572379       0.0531231 
         2.0126       0.0566797        0.052734 
        2.01874       0.0564163       0.0523482 
        2.02488       0.0559967        0.051966 
        2.03101       0.0556227       0.0515883 
        2.03714       0.0551024       0.0512147 
        2.04328        0.054912       0.0508444 
        2.04941       0.0543728       0.0504781 
        2.05554       0.0541328       0.0501157 
        2.06167       0.0537909       0.0497563 
        2.06781       0.0533427       0.0494005 
        2.07396       0.0530195       0.0490476 
        2.08009       0.0526551       0.0486988 
        2.08622       0.0523327       0.0483538 
        2.09237       0.0519655       0.0480114 
        2.09851       0.0516031       0.0476724 
        2.10464       0.0513418       0.0473371 
        2.11077       0.0509235       0.0470056 
        2.11691        0.050573       0.0466764 
        2.12305       0.0502559       0.0463504 
        2.12918       0.0499865       0.0460283 
        2.13531       0.0495801       0.0457093 
        2.14145        0.049237       0.0453925 
         2.1476        0.048935       0.0450784 
        2.15372       0.0487072       0.0447689 
        2.15985       0.0483009        0.044462 
        2.16599       0.0479859        0.044157 
        2.17213        0.047699       0.0438553 
        2.17827       0.0473794       0.0435565 
         2.1844       0.0471527       0.0432607 
        2.19054       0.0468196       0.0429676 
        2.19666       0.0464875       0.0426776 
         2.2028       0.0461681         0.04239 
        2.20893       0.0459565        0.042105 
        2.21508       0.0456544       0.0418223 
        2.22122       0.0453232       0.0415421 
        2.22736       0.0450888        0.041265 
        2.23349       0.0447996       0.0409906 
        2.23962       0.0445996       0.0407185 
        2.24577       0.0442573       0.0404486 
         2.2519       0.0439931       0.0401816 
        2.25802       0.0437121       0.0399174 
        2.26417       0.0434486       0.0396549 
        2.27031       0.0431324       0.0393944 
        2.27644       0.0428673       0.0391371 
        2.28257       0.0426708       0.0388821 
        2.28872       0.0424189       0.0386289 
        2.29486       0.0421963        0.038378 
        2.30099       0.0419077       0.0381299 
        2.30712        0.041557       0.0378838 
        2.31326       0.0413539       0.0376396 
         2.3194       0.0411811       0.0373976 
        2.32553       0.0408934       0.0371581 
        2.33166       0.0407177       0.0369209 
         2.3378        0.040456       0.0366854 
        2.34394        0.040178       0.0364519 
        2.35007       0.0399139       0.0362208 
        2.35619       0.0396169       0.0359919 
        2.36233       0.0395015       0.0357645 
        2.36848       0.0393172       0.0355386 
        2.37462        0.039015       0.0353151 
        2.38075       0.0387925       0.0350938 
        2.38689       0.0385824       0.0348742 
        2.39303       0.0383821       0.0346565 
        2.39916       0.0381379       0.0344409 
        2.40529        0.037952       0.0342272 
        2.41143        0.037681       0.0340151 
        2.41757       0.0374745       0.0338047 
         2.4237       0.0373283       0.0335965 
        2.42983       0.0371294       0.0333901 
        2.43598       0.0369381       0.0331849 
        2.44211        0.036656       0.0329817 
        2.44823        0.036471       0.0327807 
        2.45437       0.0362563       0.0325808 
        2.46052       0.0360702       0.0323824 
        2.46665        0.035819       0.0321861 
        2.47279       0.0356192       0.0319914 
        2.47892       0.0354025       0.0317982 
        2.48507       0.0352112       0.0316064 
         2.4912       0.0350529       0.0314166 
