# k  (h/Mpc)    Pcb(k)  (Mpc/h)^3    Pcb_linear(k)  (Mpc/h)^3
     0.00783031         10982.6         11130.9 
       0.013688         13992.1         13892.7 
       0.019231         14195.3         14174.4 
      0.0249154         12958.1         13195.4 
      0.0312784         11388.2           11496 
      0.0375637         9822.07         9823.64 
      0.0433917         8428.36         8558.88 
      0.0492413         7581.12         7627.47 
      0.0555754         6753.75         6935.61 
      0.0619321         6451.38         6440.98 
       0.067871         5892.41         6038.27 
      0.0738098         5472.31         5611.79 
      0.0800417         4930.33         5107.36 
      0.0862327         4465.98         4569.22 
      0.0921407         4043.29         4068.21 
      0.0982031          3581.5         3614.86 
       0.104506         3311.19         3240.47 
       0.110769         3038.38         2971.17 
       0.116806         2841.88         2791.21 
       0.122832         2715.81         2660.32 
       0.129052          2541.1         2543.21 
       0.135211         2421.82         2418.65 
       0.141259         2316.73         2275.31 
       0.147318         2177.57         2112.61 
       0.153489         1991.63         1939.74 
       0.159709         1867.59         1774.88 
       0.165845         1774.86         1634.84 
       0.171974         1662.12         1523.76 
       0.178125         1578.34         1440.13 
       0.184229          1513.7         1378.06 
        0.19034         1425.65         1327.35 
       0.196428         1402.94         1278.99 
       0.202534         1356.88          1226.1 
       0.208729            1292         1165.43 
       0.214876         1228.76         1099.81 
       0.220989         1185.66         1033.39 
       0.227147         1125.23         970.192 
        0.23329          1077.4          914.65 
       0.239377         1054.25         868.689 
       0.245482         985.358         831.177 
       0.251667         978.222         799.842 
       0.257832         942.088         772.359 
       0.263955         912.275         745.984 
       0.270079         880.312         718.651 
        0.27624         870.541         689.502 
       0.282372         833.762           659.3 
        0.28843         818.524         629.503 
       0.294538         777.465         600.839 
       0.300721         773.297         574.395 
        0.30691         739.012             551 
       0.313033         724.684         530.814 
       0.319153          705.94         512.945 
       0.325316         684.584         496.455 
        0.33145         666.649         480.688 
       0.337538         657.393         465.127 
       0.343633         638.147         449.359 
       0.349808         616.715         433.322 
       0.355968         612.212         417.535 
       0.362074         602.335         402.506 
       0.368217          585.31         388.325 
       0.374374         561.281         375.208 
       0.380519         558.803         363.228 
       0.386598          544.77         352.279 
       0.392688         542.264         341.993 
        0.39888         526.433          331.98 
       0.405048         516.679         322.243 
       0.411186         508.023         312.715 
       0.417313         498.426         303.345 
       0.423458         489.608         294.158 
       0.429607         480.857         285.288 
       0.435692         469.739         276.909 
       0.441815         466.205         268.918 
       0.447964         456.538          261.36 
       0.454126          445.49         254.204 
       0.460267         438.396         247.411 
       0.466387         433.534         240.915 
        0.47254         425.364         234.595 
       0.478662         424.244         228.468 
       0.484765         410.675         222.511 
       0.490885         406.869         216.705 
       0.497035         399.509         211.055 
       0.503198         393.651         205.596 
       0.509342         390.654         200.373 
       0.515458         386.579         195.396 
       0.521598          378.14         190.609 
       0.527764         371.575         185.987 
       0.533884         369.297         181.562 
           0.54         364.249         177.285 
       0.546137         362.825         173.122 
       0.552299         355.446         169.058 
       0.558452         353.291         165.115 
       0.564573         347.924         161.308 
       0.570708         342.105         157.615 
       0.576825         335.847         154.056 
       0.582926         333.787         150.626 
       0.589034         330.693         147.305 
       0.595184         327.559         144.071 
       0.601379           323.7         140.919 
       0.607522         318.489          137.89 
       0.613639         317.149         134.962 
       0.619772         309.763         132.108 
       0.625918         308.768         129.326 
       0.632068         304.127          126.62 
       0.638161         302.965         124.016 
         0.6443         297.832         121.468 
       0.650464         295.192         118.986 
       0.656582         293.583         116.595 
       0.662703         291.773         114.271 
       0.668861         286.566         111.999 
       0.675024         283.574         109.788 
       0.681124         282.267         107.659 
       0.687237          279.04         105.582 
       0.693381         274.969         103.551 
       0.699536         272.639         101.571 
       0.705665         270.802         99.6508 
       0.711789         268.156         97.7828 
       0.717957         266.558         95.9503 
        0.72409         263.768         94.1757 
       0.730186         260.881         92.4573 
       0.736317         258.179         90.7732 
       0.742472         256.983         89.1256 
       0.748622         254.787         87.5211 
        0.75476         252.644         85.9604 
       0.760888         249.416         84.4406 
       0.767043         249.474         82.9521 
       0.773185         246.297         81.5031 
       0.779291         242.099         80.0974 
       0.785407         241.628         78.7232 
       0.791564         239.137         77.3729 
       0.797719         236.581         76.0554 
       0.803834         235.228         74.7773 
       0.809972         233.756         73.5243 
       0.816124         233.669         72.2977 
       0.822261         230.249         71.1027 
       0.828378         228.462         69.9387 
       0.834502         227.938            68.8 
       0.840667         224.617         67.6797 
       0.846816         223.257         66.5878 
       0.852925         222.231         65.5272 
       0.859047         220.231         64.4877 
       0.865192         218.168         63.4676 
       0.871341         216.332         62.4692 
       0.877463          214.93          61.497 
       0.883569         214.029         60.5481 
       0.889708         211.946         59.6147 
       0.895864         209.398         58.6988 
       0.902008         208.786         57.8042 
       0.908149         207.974          56.929 
       0.914301         205.385         56.0707 
       0.920448         203.968         55.2311 
       0.926574         202.846         54.4117 
       0.932687         202.607         53.6109 
       0.938823         200.112         52.8235 
       0.944975         198.549         52.0503 
       0.951105         197.753         51.2955 
       0.957225         195.855         50.5571 
       0.963368         193.606         49.8309 
       0.969511         192.941         49.1191 
       0.975621         191.477         48.4252 
       0.981748          191.38         47.7431 
       0.987916          189.21           47.07 
        0.99406         187.607         46.4125 
        1.00019         187.588          45.769 
        1.00632          185.78         45.1384 
        1.01246         184.566          44.519 
        1.01859         183.892         43.9123 
        1.02471         182.033         43.3177 
        1.03085         180.185         42.7323 
        1.03698          179.49          42.159 
        1.04314         178.067          41.594 
        1.04929         176.853         41.0407 
        1.05541         176.599         40.4998 
        1.06154         175.033         39.9674 
        1.06769         174.888         39.4439 
        1.07382         173.386         38.9316 
        1.07993         171.888         38.4296 
        1.08607          171.11         37.9345 
        1.09222         170.323         37.4477 
        1.09836         168.842         36.9701 
        1.10449           167.3         36.5015 
        1.11063         166.035         36.0406 
        1.11677         165.849         35.5878 
         1.1229         164.332         35.1437 
        1.12903         163.576         34.7068 
        1.13518         163.059          34.277 
        1.14131         161.406         33.8548 
        1.14745         161.037           33.44 
        1.15359         159.837         33.0321 
        1.15973         159.271          32.631 
        1.16584         157.589         32.2383 
        1.17197         157.045         31.8516 
        1.17811         156.142         31.4702 
        1.18424         155.336         31.0961 
        1.19038          154.92         30.7271 
        1.19652         153.697         30.3642 
        1.20267         152.916         30.0073 
        1.20881         151.575         29.6563 
        1.21495         151.055         29.3114 
        1.22108         150.283         28.9722 
         1.2272         148.934         28.6391 
        1.23334         148.373         28.3106 
        1.23949         147.173         27.9865 
        1.24562          146.56         27.6684 
        1.25174           145.1         27.3558 
        1.25789         144.556         27.0471 
        1.26402         143.776         26.7438 
        1.27014         142.882         26.4459 
        1.27628         142.268         26.1517 
        1.28244          141.76         25.8615 
        1.28858         141.013         25.5761 
        1.29471         139.465         25.2956 
        1.30084         139.129         25.0197 
        1.30697         138.207         24.7475 
        1.31312          137.77         24.4789 
        1.31925         136.656         24.2153 
        1.32537         136.058         23.9558 
        1.33151         134.755         23.6992 
        1.33765         134.486         23.4466 
        1.34378         133.632         23.1982 
        1.34992         133.322         22.9532 
        1.35606         132.542         22.7113 
         1.3622         131.473         22.4733 
        1.36833         130.743         22.2393 
        1.37445         129.948         22.0088 
        1.38059         129.502         21.7809 
        1.38675         128.589         21.5557 
        1.39288         128.195         21.3345 
        1.39901         127.736         21.1166 
        1.40515         126.707         20.9013 
         1.4113         125.675         20.6891 
        1.41742         125.393         20.4806 
        1.42355         124.516         20.2747 
         1.4297         123.896          20.071 
        1.43585         122.855         19.8701 
        1.44198           122.7         19.6729 
        1.44809         121.816         19.4787 
        1.45423         121.044         19.2864 
        1.46036         120.712          19.097 
        1.46649         119.875         18.9102 
        1.47263         119.289         18.7257 
        1.47877         118.862         18.5438 
        1.48491         117.686         18.3641 
        1.49104         117.486         18.1871 
        1.49718         116.465         18.0124 
        1.50333         116.079         17.8397 
        1.50947         115.585         17.6696 
         1.5156         114.827          17.502 
        1.52172         114.154         17.3366 
        1.52787          113.68          17.173 
          1.534         112.987         17.0117 
        1.54013         112.292         16.8527 
        1.54627         111.896         16.6955 
        1.55241         111.092         16.5402 
        1.55855         110.633         16.3872 
        1.56467         110.264         16.2365 
         1.5708         109.403         16.0874 
        1.57695         109.202         15.9398 
        1.58308         108.228         15.7945 
        1.58922         108.095         15.6509 
        1.59535         107.361         15.5092 
         1.6015         106.805          15.369 
        1.60764         106.207         15.2306 
        1.61376         106.021         15.0943 
        1.61989         105.145         14.9596 
        1.62604         104.814         14.8263 
        1.63218         104.246         14.6946 
        1.63831         103.395         14.5649 
        1.64444         103.126         14.4367 
        1.65059         102.532         14.3097 
        1.65673         101.634         14.1844 
        1.66285         101.532          14.061 
        1.66898         100.883          13.939 
        1.67512         100.397         13.8183 
        1.68127          99.836         13.6988 
         1.6874         99.2281         13.5811 
        1.69353         98.7214         13.4648 
        1.69967         98.2886         13.3496 
        1.70581          97.873         13.2358 
        1.71193         97.5483         13.1238 
        1.71806         96.8021         13.0128 
        1.72421         96.2618          12.903 
        1.73035         95.8391         12.7945 
        1.73649         95.2799         12.6873 
        1.74262         94.8051         12.5814 
        1.74876         94.4604         12.4767 
        1.75489          93.652         12.3733 
        1.76101         93.3987         12.2712 
        1.76715         92.7608         12.1701 
        1.77329         92.5053         12.0701 
        1.77943         91.7829         11.9711 
        1.78557         91.6135         11.8734 
        1.79171         90.8934         11.7767 
        1.79785         90.5376         11.6812 
        1.80399         90.1355         11.5867 
        1.81012         89.7614         11.4934 
        1.81625          89.172         11.4012 
        1.82239          88.863         11.3098 
        1.82853         88.5338         11.2195 
        1.83466         87.8583         11.1303 
        1.84078         87.7326         11.0421 
        1.84692         86.9645         10.9548 
        1.85306         86.4873         10.8683 
         1.8592         86.1206         10.7829 
        1.86533         85.7178         10.6985 
        1.87147         85.1014         10.6148 
        1.87761         84.8657          10.532 
        1.88375         84.4111         10.4503 
        1.88988         83.9703         10.3694 
        1.89601         83.5107         10.2894 
        1.90215         83.1804         10.2102 
        1.90829          82.767         10.1318 
        1.91442         82.3854         10.0543 
        1.92056         81.7115         9.97766 
         1.9267         81.5489         9.90174 
        1.93284         80.9928         9.82657 
        1.93897         80.5798         9.75233 
        1.94509         80.3008         9.67901 
        1.95123         79.8365         9.60627 
        1.95737         79.5552         9.53423 
        1.96349         78.9277         9.46312 
        1.96964          78.613         9.39253 
        1.97578         78.3564         9.32264 
        1.98192         77.9024          9.2536 
        1.98805         77.4801         9.18526 
        1.99419         77.0238         9.11761 
        2.00033         76.7762         9.05061 
        2.00647         76.3863          8.9843 
         2.0126         75.8702         8.91878 
        2.01874         75.4522         8.85381 
        2.02488          75.163         8.78943 
        2.03101         74.8932         8.72582 
        2.03714         74.3413          8.6629 
        2.04328         74.1301         8.60054 
        2.04941         73.6969         8.53884 
        2.05554         73.4613          8.4778 
        2.06167         72.9827         8.41727 
        2.06781          72.575         8.35733 
        2.07396         72.2428         8.29789 
        2.08009         71.9474         8.23913 
        2.08622         71.6525         8.18102 
        2.09237          71.189         8.12335 
        2.09851         71.0244         8.06623 
        2.10464         70.5291         8.00976 
        2.11077         70.1286          7.9539 
        2.11691         69.8456         7.89846 
        2.12305         69.5011         7.84354 
        2.12918         69.1864         7.78928 
        2.13531         68.7737         7.73553 
        2.14145         68.4354         7.68216 
         2.1476         68.1648         7.62924 
        2.15372         67.8184         7.57708 
        2.15985         67.4382         7.52537 
        2.16599         67.1514         7.47398 
        2.17213         66.8551         7.42314 
        2.17827         66.4978         7.37278 
         2.1844         66.1164         7.32294 
        2.19054         65.8524         7.27354 
        2.19666         65.4943         7.22467 
         2.2028         65.4201         7.17621 
        2.20893         64.9771         7.12818 
        2.21508         64.5608         7.08053 
        2.22122          64.358          7.0333 
        2.22736         64.0334          6.9866 
        2.23349         63.6892         6.94034 
        2.23962         63.2857         6.89448 
        2.24577         62.9731         6.84899 
         2.2519         62.7118         6.80398 
        2.25802         62.4936         6.75945 
        2.26417         62.0344          6.7152 
        2.27031         61.8207          6.6713 
        2.27644         61.5812         6.62792 
        2.28257         61.1999         6.58494 
        2.28872         60.9249         6.54225 
        2.29486         60.6589         6.49996 
        2.30099         60.3142         6.45813 
        2.30712          60.136         6.41664 
        2.31326         59.7374         6.37546 
         2.3194         59.4957         6.33466 
        2.32553         59.1365         6.29429 
        2.33166         58.8328         6.25429 
         2.3378         58.5912         6.21458 
        2.34394           58.22         6.17521 
        2.35007          57.928         6.13623 
        2.35619          57.746         6.09765 
        2.36233         57.5646          6.0593 
        2.36848         57.1905         6.02121 
        2.37462         56.8939         5.98352 
        2.38075         56.6864          5.9462 
        2.38689         56.3974         5.90916 
        2.39303         56.1366         5.87245 
        2.39916         55.9591         5.83609 
        2.40529         55.6503         5.80004 
        2.41143         55.3832         5.76428 
        2.41757         55.0399         5.72879 
         2.4237         54.8816         5.69368 
        2.42983         54.5035         5.65886 
        2.43598          54.255         5.62425 
        2.44211          54.069         5.58998 
        2.44823         53.7785         5.55608 
        2.45437         53.5025         5.52236 
        2.46052         53.1874          5.4889 
        2.46665         52.9852         5.45578 
        2.47279         52.7445         5.42294 
        2.47892         52.5683         5.39035 
        2.48507         52.2512           5.358 
         2.4912           52.11         5.32598 
