# k  (h/Mpc)    P(k)  (Mpc/h)^3    P_linear(k)  (Mpc/h)^3
     0.00783031         6018.29         6057.05 
       0.013688         7988.26         8153.17 
       0.019231         8793.23          8898.6 
      0.0249154         8839.94         8860.06 
      0.0312784         8204.22         8294.15 
      0.0375637         7418.22         7547.96 
      0.0433917         6826.25         6887.15 
      0.0492413         6226.76         6336.58 
      0.0555754          5805.2         5876.87 
      0.0619321            5314         5516.47 
       0.067871         5082.42         5217.51 
      0.0738098         4801.54          4912.3 
      0.0800417         4466.85         4563.27 
      0.0862327         4083.25         4191.77 
      0.0921407         3739.15         3836.27 
      0.0982031         3440.95         3498.05 
       0.104506         3112.23         3197.96 
       0.110769         2889.95         2961.45 
       0.116806          2765.8         2786.98 
       0.122832         2597.99         2650.93 
       0.129052          2485.9         2531.19 
       0.135211         2403.98         2415.46 
       0.141259         2256.04         2293.48 
       0.147318         2098.74         2160.32 
       0.153489            1987          2018.2 
       0.159709         1891.88         1877.72 
       0.165845         1731.37         1751.27 
       0.171974         1682.28         1643.33 
       0.178125         1615.22         1555.21 
       0.184229         1504.08         1485.25 
        0.19034          1475.6         1427.26 
       0.196428         1431.76         1375.08 
       0.202534         1349.17         1322.84 
       0.208729         1323.16         1266.54 
       0.214876         1274.59         1206.85 
       0.220989         1196.02         1145.56 
       0.227147         1169.76         1085.06 
        0.23329          1125.7         1029.08 
       0.239377         1103.92         980.078 
       0.245482          1050.5         938.053 
       0.251667         1011.46         901.944 
       0.257832         1001.83         870.602 
       0.263955          952.45          841.91 
       0.270079         926.038          813.69 
        0.27624         887.987         784.622 
       0.282372         871.814         754.722 
        0.28843         865.137         724.724 
       0.294538         822.913         695.016 
       0.300721         798.364         666.536 
        0.30691          786.11         640.453 
       0.313033         755.165         617.314 
       0.319153          743.52         596.704 
       0.325316         729.927         577.898 
        0.33145         716.022         560.442 
       0.337538         692.012         543.665 
       0.343633         672.615         526.995 
       0.349808         657.014          510.03 
       0.355968         645.224         493.148 
       0.362074         627.839         476.722 
       0.368217         622.697          460.84 
       0.374374         611.537         445.865 
       0.380519         588.877         431.972 
       0.386598         582.067         419.277 
       0.392688         571.582         407.439 
        0.39888         556.522         396.077 
       0.405048         548.587         385.215 
       0.411186         545.182         374.655 
       0.417313         538.005         364.275 
       0.423458         522.541          354.03 
       0.429607         511.062          343.99 
       0.435692         502.365         334.371 
       0.441815          495.21         325.106 
       0.447964         484.662          316.26 
       0.454126         478.434         307.872 
       0.460267         471.787         299.961 
       0.466387         464.999         292.442 
        0.47254         458.673         285.168 
       0.478662         447.661         278.157 
       0.484765         443.609         271.346 
       0.490885         439.247         264.663 
       0.497035         432.268          258.11 
       0.503198         430.146         251.738 
       0.509342         419.066           245.6 
       0.515458         414.227         239.715 
       0.521598         406.731         234.041 
       0.527764         401.359         228.581 
       0.533884         400.883         223.372 
           0.54             394         218.347 
       0.546137         385.726         213.457 
       0.552299         385.162         208.688 
       0.558452         379.287         204.057 
       0.564573         375.351         199.569 
       0.570708         370.522         195.189 
       0.576825         364.356         190.947 
       0.582926          360.88         186.848 
       0.589034         356.794         182.879 
       0.595184         354.731         179.016 
       0.601379         347.966         175.249 
       0.607522         343.066         171.628 
       0.613639          340.72         168.128 
       0.619772         338.723         164.718 
       0.625918         334.766         161.394 
       0.632068         328.932         158.157 
       0.638161         325.725         155.033 
         0.6443         324.364         151.967 
       0.650464         319.418         148.971 
       0.656582         316.718          146.08 
       0.662703         314.644          143.27 
       0.668861         309.665         140.523 
       0.675024          308.47         137.851 
       0.681124         304.841         135.279 
       0.687237         301.656         132.768 
       0.693381         299.577         130.309 
       0.699536         295.697         127.906 
       0.705665          292.55         125.573 
       0.711789         290.557         123.301 
       0.717957         287.157         121.069 
        0.72409          285.38         118.906 
       0.730186         285.382         116.811 
       0.736317         280.565         114.757 
       0.742472         276.961         112.746 
       0.748622         273.703         110.785 
        0.75476         274.265         108.877 
       0.760888         271.159         107.017 
       0.767043         268.161         105.193 
       0.773185         266.142         103.415 
       0.779291         262.632         101.689 
       0.785407         261.311         100.001 
       0.791564         258.883         98.3403 
       0.797719          255.67          96.719 
       0.803834         256.395         95.1452 
       0.809972         254.534         93.6014 
       0.816124         251.428         92.0892 
       0.822261         248.412          90.615 
       0.828378          248.85          89.178 
       0.834502         244.395         87.7715 
       0.840667         243.976         86.3865 
       0.846816         241.412         85.0358 
       0.852925         239.602         83.7227 
       0.859047         237.164         82.4349 
       0.865192         236.703         81.1703 
       0.871341         233.538         79.9317 
       0.877463          231.81         78.7248 
       0.883569          231.45         77.5463 
       0.889708         229.846         76.3861 
       0.895864         227.605          75.247 
       0.902008         225.814         74.1338 
       0.908149         223.444         73.0441 
       0.914301         223.247         71.9749 
       0.920448         221.475         70.9283 
       0.926574         219.282         69.9065 
       0.932687         218.221         68.9073 
       0.938823         216.523         67.9242 
       0.944975         214.357         66.9583 
       0.951105         213.072         66.0149 
       0.957225         212.441         65.0915 
       0.963368         210.487         64.1829 
       0.969511         208.122         63.2917 
       0.975621         207.101         62.4225 
       0.981748         205.435         61.5675 
       0.987916         204.409         60.7234 
        0.99406           203.1         59.8984 
        1.00019         201.758         59.0906 
        1.00632         201.105         58.2986 
        1.01246         199.356         57.5201 
        1.01859         197.576         56.7572 
        1.02471         196.141         56.0093 
        1.03085         195.193         55.2723 
        1.03698         193.661         54.5504 
        1.04314         192.944         53.8384 
        1.04929         191.986         53.1409 
        1.05541         190.581         52.4588 
        1.06154         189.623          51.787 
        1.06769         187.444         51.1262 
        1.07382          186.71         50.4791 
        1.07993         185.731         49.8449 
        1.08607         183.927          49.219 
        1.09222         183.375         48.6034 
        1.09836          181.72         47.9992 
        1.10449         180.372          47.406 
        1.11063         179.338         46.8223 
        1.11677          178.61         46.2488 
         1.1229         177.124         45.6859 
        1.12903         176.695         45.1321 
        1.13518         175.431          44.587 
        1.14131         174.415         44.0514 
        1.14745         172.781         43.5249 
        1.15359         171.319         43.0071 
        1.15973         170.721         42.4975 
        1.16584         169.883         41.9986 
        1.17197         168.999         41.5071 
        1.17811         167.537         41.0219 
        1.18424         166.484         40.5461 
        1.19038         165.955         40.0765 
        1.19652         164.461         39.6145 
        1.20267         163.594           39.16 
        1.20881         162.563         38.7127 
        1.21495         162.274         38.2732 
        1.22108         160.669         37.8406 
         1.2272         159.637         37.4159 
        1.23334         159.147         36.9967 
        1.23949         158.549          36.583 
        1.24562         156.954         36.1768 
        1.25174         155.606         35.7775 
        1.25789         155.617          35.383 
        1.26402          154.52         34.9953 
        1.27014         153.575         34.6143 
        1.27628         151.918         34.2379 
        1.28244         151.634         33.8665 
        1.28858         150.496         33.5011 
        1.29471         149.605         33.1419 
        1.30084         148.848         32.7884 
        1.30697         148.519         32.4396 
        1.31312         147.325         32.0954 
        1.31925         146.168         31.7573 
        1.32537         145.571         31.4244 
        1.33151         145.017         31.0952 
        1.33765           143.5          30.771 
        1.34378         143.665          30.452 
        1.34992         142.748         30.1374 
        1.35606         141.616         29.8266 
         1.3622         141.134         29.5207 
        1.36833         139.718           29.22 
        1.37445         139.196         28.9236 
        1.38059         138.451         28.6304 
        1.38675         137.536         28.3407 
        1.39288         136.938         28.0561 
        1.39901         135.593         27.7756 
        1.40515          135.58         27.4984 
         1.4113           134.7         27.2251 
        1.41742         133.738         26.9565 
        1.42355         133.052         26.6912 
         1.4297         132.271         26.4286 
        1.43585          131.29         26.1697 
        1.44198         130.498         25.9152 
        1.44809         129.742         25.6647 
        1.45423         129.226         25.4166 
        1.46036         128.226         25.1722 
        1.46649         127.602          24.931 
        1.47263         127.181         24.6927 
        1.47877         126.272         24.4577 
        1.48491         125.339         24.2255 
        1.49104         124.346         23.9967 
        1.49718         124.385         23.7708 
        1.50333         123.533         23.5474 
        1.50947         123.018         23.3274 
         1.5156         122.179         23.1105 
        1.52172         121.433         22.8965 
        1.52787         120.588         22.6847 
          1.534         120.446         22.4759 
        1.54013         119.654         22.2699 
        1.54627         118.664         22.0662 
        1.55241         118.033          21.865 
        1.55855         117.601         21.6666 
        1.56467         116.487         21.4713 
         1.5708         116.299         21.2778 
        1.57695         115.683         21.0864 
        1.58308          115.02         20.8978 
        1.58922         114.586         20.7115 
        1.59535         113.914         20.5275 
         1.6015         113.363         20.3455 
        1.60764         112.576         20.1658 
        1.61376         111.909         19.9887 
        1.61989         111.108         19.8137 
        1.62604         110.629         19.6404 
        1.63218         110.227         19.4693 
        1.63831         109.375         19.3007 
        1.64444         108.876          19.134 
        1.65059         108.271         18.9688 
        1.65673         107.483         18.8059 
        1.66285          107.06         18.6453 
        1.66898         106.236         18.4865 
        1.67512         106.113         18.3293 
        1.68127         105.324         18.1738 
         1.6874         104.777         18.0205 
        1.69353         104.159          17.869 
        1.69967         103.907         17.7189 
        1.70581         103.259         17.5706 
        1.71193         102.646         17.4246 
        1.71806         101.811           17.28 
        1.72421         101.444         17.1367 
        1.73035         101.189         16.9952 
        1.73649         100.411         16.8554 
        1.74262         99.6351         16.7172 
        1.74876         99.3648         16.5806 
        1.75489         98.5643         16.4457 
        1.76101         98.1309         16.3124 
        1.76715         97.7653         16.1804 
        1.77329         96.9916         16.0497 
        1.77943         96.6776         15.9204 
        1.78557         96.2995         15.7928 
        1.79171         95.5229         15.6665 
        1.79785         95.0679         15.5416 
        1.80399         94.5738          15.418 
        1.81012         94.0271          15.296 
        1.81625         93.7798         15.1754 
        1.82239         93.4612         15.0559 
        1.82853         92.6599         14.9378 
        1.83466         92.1071          14.821 
        1.84078         91.7098         14.7057 
        1.84692         91.3136         14.5913 
        1.85306          90.855         14.4781 
         1.8592         90.3856         14.3662 
        1.86533         89.6752         14.2556 
        1.87147         89.3151         14.1461 
        1.87761          88.735         14.0376 
        1.88375          88.215         13.9305 
        1.88988         87.8549         13.8246 
        1.89601         87.2937         13.7197 
        1.90215         86.8653         13.6158 
        1.90829         86.5253         13.5131 
        1.91442         86.0947         13.4114 
        1.92056         85.4468         13.3109 
         1.9267         85.1968         13.2113 
        1.93284         84.8973         13.1126 
        1.93897         84.3705         13.0152 
        1.94509         83.8507          12.919 
        1.95123         83.5257         12.8235 
        1.95737          82.738         12.7289 
        1.96349         82.4864         12.6355 
        1.96964         82.0599         12.5428 
        1.97578         81.5902          12.451 
        1.98192         81.2386         12.3602 
        1.98805         80.7313         12.2704 
        1.99419          80.249         12.1815 
        2.00033         79.7189         12.0934 
        2.00647         79.6224         12.0063 
         2.0126         79.0952         11.9201 
        2.01874         78.6488         11.8347 
        2.02488         78.4049           11.75 
        2.03101          77.927         11.6663 
        2.03714          77.651         11.5835 
        2.04328         77.1936         11.5015 
        2.04941         76.6126         11.4203 
        2.05554         76.4011         11.3399 
        2.06167         76.1091         11.2602 
        2.06781         75.4018         11.1813 
        2.07396         75.1209          11.103 
        2.08009         74.8788         11.0256 
        2.08622         74.3938          10.949 
        2.09237         73.8832         10.8731 
        2.09851         73.5004         10.7978 
        2.10464         73.2562         10.7234 
        2.11077         72.8142         10.6497 
        2.11691         72.4817         10.5766 
        2.12305         72.0553         10.5042 
        2.12918          71.698         10.4327 
        2.13531         71.3281         10.3618 
        2.14145         70.8809         10.2914 
         2.1476           70.56         10.2216 
        2.15372         70.2648         10.1528 
        2.15985         69.8855         10.0845 
        2.16599         69.4955         10.0167 
        2.17213         69.2633         9.94959 
        2.17827         68.7959         9.88312 
         2.1844         68.4692         9.81731 
        2.19054         68.0808         9.75209 
        2.19666         67.6326         9.68755 
         2.2028         67.5251         9.62354 
        2.20893         66.9829         9.56009 
        2.21508         66.7002         9.49713 
        2.22122         66.2734         9.43473 
        2.22736         65.9895         9.37302 
        2.23349         65.8125         9.31188 
        2.23962          65.241         9.25126 
        2.24577         65.1678         9.19112 
         2.2519         64.6937         9.13161 
        2.25802         64.4003         9.07272 
        2.26417         64.0181         9.01419 
        2.27031         63.7503         8.95612 
        2.27644          63.376         8.89874 
        2.28257         63.1162         8.84186 
        2.28872         62.8625         8.78538 
        2.29486         62.6026         8.72941 
        2.30099         62.0907         8.67404 
        2.30712         61.9134         8.61913 
        2.31326         61.4594          8.5646 
         2.3194         61.2406         8.51058 
        2.32553         61.0086         8.45712 
        2.33166         60.4809         8.40414 
         2.3378         60.1671         8.35155 
        2.34394         60.0012          8.2994 
        2.35007         59.5736         8.24776 
        2.35619         59.4302         8.19663 
        2.36233         58.9989         8.14582 
        2.36848         58.7461         8.09533 
        2.37462         58.4983         8.04538 
        2.38075         58.2328          7.9959 
        2.38689         57.9078          7.9468 
        2.39303         57.7541         7.89812 
        2.39916         57.3869          7.8499 
        2.40529         57.0376         7.80209 
        2.41143         56.7857         7.75465 
        2.41757         56.4087         7.70758 
         2.4237         56.2905         7.66099 
        2.42983          55.854         7.61479 
        2.43598         55.5492         7.56885 
        2.44211         55.3901         7.52337 
        2.44823         55.1396         7.47837 
        2.45437         54.8792         7.43361 
        2.46052         54.4639         7.38919 
        2.46665         54.2425          7.3452 
        2.47279         54.0053          7.3016 
        2.47892         53.7299         7.25831 
        2.48507         53.4356         7.21535 
         2.4912          53.148         7.17281 
