# k  (h/Mpc)    Pcb(k)  (Mpc/h)^3    Pcb_linear(k)  (Mpc/h)^3
     0.00783031         2610.61         2637.12 
       0.013688         3419.06          3415.3 
       0.019231         3591.89         3590.44 
      0.0249154         3402.27         3433.28 
      0.0312784         3053.56          3064.1 
      0.0375637         2663.24         2659.16 
      0.0433917         2317.94         2330.65 
      0.0492413         2074.87         2075.96 
      0.0555754         1863.27         1881.76 
      0.0619321         1756.38         1747.83 
       0.067871         1635.83         1649.67 
      0.0738098         1539.09         1554.08 
      0.0800417          1419.5         1441.45 
      0.0862327         1301.62         1314.28 
      0.0921407          1180.7         1185.96 
      0.0982031         1050.84         1059.17 
       0.104506         951.399         944.456 
       0.110769         861.811          854.68 
       0.116806         793.178         791.661 
       0.122832           753.8         747.704 
       0.129052         713.178         715.025 
       0.135211         684.934         687.368 
       0.141259         660.187         658.317 
       0.147318         628.461         623.773 
       0.153489         583.866         582.752 
       0.159709         543.362         538.127 
       0.165845         507.836         494.903 
       0.171974         466.072         456.265 
       0.178125         436.784          424.39 
       0.184229         414.648          400.15 
        0.19034         389.709         382.251 
       0.196428         381.305         368.707 
       0.202534         372.356         356.991 
       0.208729         356.965         344.792 
       0.214876         339.968         330.968 
       0.220989         329.119         315.178 
       0.227147         308.344         297.826 
        0.23329         292.504         280.267 
       0.239377         279.955         263.901 
       0.245482         261.615         249.472 
       0.251667         254.722         237.342 
       0.257832         245.292         227.648 
       0.263955         236.921          219.85 
       0.270079         229.637         213.109 
        0.27624         225.684         206.627 
       0.282372         217.767         199.878 
        0.28843         209.576          192.66 
       0.294538         201.306         184.859 
       0.300721          196.58         176.728 
        0.30691         186.976         168.759 
       0.313033         180.888         161.423 
       0.319153         172.295         154.883 
       0.325316         168.898          149.17 
        0.33145         163.068         144.264 
       0.337538          159.98         139.958 
       0.343633         155.046         135.959 
       0.349808         150.885             132 
       0.355968         147.326         127.975 
       0.362074         142.906         123.871 
       0.368217         138.949         119.654 
       0.374374         134.749         115.452 
       0.380519          131.29         111.403 
       0.386598         127.696         107.643 
       0.392688         125.204          104.19 
        0.39888         121.802         100.995 
       0.405048         119.167         98.1004 
       0.411186          116.62          95.426 
       0.417313         113.288         92.8781 
       0.423458         110.842         90.3832 
       0.429607         108.041         87.9006 
       0.435692         104.647         85.4441 
       0.441815         103.516         82.9943 
       0.447964           101.8         80.5847 
       0.454126         97.5343         78.2548 
       0.460267         96.1237         76.0526 
       0.466387         93.9303         73.9897 
        0.47254         92.5271         72.0415 
       0.478662         91.0996         70.2172 
       0.484765         88.6579         68.4896 
       0.490885          86.916         66.8193 
       0.497035          85.836         65.1818 
       0.503198         83.6319         63.5739 
       0.509342         81.6322         62.0001 
       0.515458         80.3297         60.4625 
       0.521598         79.2007         58.9587 
       0.527764         77.8013         57.5008 
       0.533884         76.4729          56.113 
           0.54          75.047         54.7855 
       0.546137         74.1139         53.5106 
       0.552299         73.0571         52.2851 
       0.558452          71.007         51.1089 
       0.564573         69.8736         49.9762 
       0.570708         69.0745         48.8699 
       0.576825         67.6532         47.7928 
       0.582926         66.4282         46.7445 
       0.589034         64.9042         45.7219 
       0.595184         64.1858         44.7201 
       0.601379         63.3319          43.741 
       0.607522         61.9092         42.8009 
       0.613639         61.6568         41.8966 
       0.619772         60.1216          41.022 
       0.625918         59.8396         40.1752 
       0.632068         58.9378          39.354 
       0.638161         57.9791         38.5631 
         0.6443         57.0159         37.7866 
       0.650464         56.1561         37.0268 
       0.656582         55.7522          36.292 
       0.662703         54.6512         35.5761 
       0.668861         53.9209         34.8751 
       0.675024         53.1377         34.1925 
       0.681124         52.2654         33.5354 
       0.687237         51.4334         32.8949 
       0.693381         51.0696         32.2692 
       0.699536         49.9956           31.66 
       0.705665         50.1296         31.0701 
       0.711789         48.9065         30.4967 
       0.717957           48.42          29.934 
        0.72409         47.7616         29.3886 
       0.730186         47.0663         28.8597 
       0.736317         46.7726         28.3404 
       0.742472         45.9622         27.8315 
       0.748622          45.621         27.3356 
        0.75476         44.9767         26.8528 
       0.760888          44.343         26.3828 
       0.767043         43.9026         25.9228 
       0.773185         43.2315         25.4752 
       0.779291           43.07         25.0411 
       0.785407         42.6101         24.6169 
       0.791564          41.875         24.2001 
       0.797719         41.1405         23.7932 
       0.803834         41.0942         23.3983 
       0.809972         40.6078         23.0108 
       0.816124         39.8009         22.6313 
       0.822261         39.6274         22.2613 
       0.828378         39.2691         21.9008 
       0.834502         38.8288          21.548 
       0.840667         38.4565         21.2008 
       0.846816          37.879         20.8624 
       0.852925          37.565         20.5337 
       0.859047           37.12         20.2115 
       0.865192         36.8501         19.8953 
       0.871341         36.6527         19.5858 
       0.877463         35.9361         19.2844 
       0.883569         35.6368         18.9901 
       0.889708         35.3134         18.7006 
       0.895864         35.0334         18.4164 
       0.902008         34.7586         18.1388 
       0.908149         34.4302         17.8671 
       0.914301         34.2881         17.6006 
       0.920448         33.6226         17.3399 
       0.926574         33.4628         17.0853 
       0.932687          33.119         16.8365 
       0.938823         32.6992         16.5918 
       0.944975         32.4841         16.3514 
       0.951105         32.2269         16.1168 
       0.957225         31.8561         15.8872 
       0.963368         31.6827         15.6613 
       0.969511         31.4365         15.4399 
       0.975621         31.2026          15.224 
       0.981748         30.7811         15.0117 
       0.987916         30.6413         14.8022 
        0.99406         30.3216         14.5975 
        1.00019         29.9579         14.3971 
        1.00632         29.8611         14.2007 
        1.01246         29.6081         14.0078 
        1.01859         29.2264         13.8188 
        1.02471         29.1844         13.6335 
        1.03085         28.9039         13.4511 
        1.03698         28.4823         13.2724 
        1.04314         28.3143         13.0962 
        1.04929          28.063         12.9237 
        1.05541         27.7943          12.755 
        1.06154         27.6656          12.589 
        1.06769          27.491         12.4257 
        1.07382         27.2148         12.2658 
        1.07993         27.1127         12.1092 
        1.08607         26.7735         11.9547 
        1.09222         26.6407         11.8027 
        1.09836         26.3329         11.6536 
        1.10449         26.2361         11.5073 
        1.11063         25.9293         11.3633 
        1.11677         25.8518         11.2219 
         1.1229         25.7366         11.0831 
        1.12903         25.3982         10.9466 
        1.13518         25.1734         10.8124 
        1.14131         25.1195         10.6804 
        1.14745         24.9351         10.5508 
        1.15359         24.7902         10.4233 
        1.15973         24.5463         10.2979 
        1.16584         24.2687         10.1751 
        1.17197         24.2849         10.0541 
        1.17811         23.9929         9.93482 
        1.18424         23.8017          9.8178 
        1.19038         23.7429         9.70234 
        1.19652         23.5527          9.5888 
        1.20267          23.371          9.4771 
        1.20881         23.2757         9.36721 
        1.21495         23.1089         9.25926 
        1.22108         22.9104         9.15304 
         1.2272         22.7015         9.04876 
        1.23334         22.5829         8.94588 
        1.23949         22.3949         8.84436 
        1.24562         22.3561         8.74472 
        1.25174         22.2104         8.64679 
        1.25789         22.0732         8.55006 
        1.26402         21.9605         8.45501 
        1.27014         21.7563         8.36164 
        1.27628         21.5456         8.26942 
        1.28244         21.5041         8.17843 
        1.28858         21.4224         8.08895 
        1.29471          21.212         8.00101 
        1.30084         21.0581         7.91448 
        1.30697         20.9545          7.8291 
        1.31312         20.7638         7.74488 
        1.31925         20.6438         7.66217 
        1.32537         20.6019         7.58076 
        1.33151         20.4118         7.50025 
        1.33765         20.3237         7.42097 
        1.34378         20.2271           7.343 
        1.34992         19.9935          7.2661 
        1.35606         19.9647         7.19015 
         1.3622         19.8515         7.11543 
        1.36833         19.7061         7.04196 
        1.37445         19.6367         6.96957 
        1.38059         19.5297         6.89798 
        1.38675         19.3277         6.82724 
        1.39288         19.2777         6.75778 
        1.39901          19.115         6.68932 
        1.40515          19.049         6.62167 
         1.4113         18.9288         6.55499 
        1.41742          18.798         6.48948 
        1.42355         18.7232         6.42476 
         1.4297          18.617         6.36073 
        1.43585         18.5702          6.2976 
        1.44198         18.3918         6.23558 
        1.44809         18.3297         6.17452 
        1.45423         18.2206         6.11405 
        1.46036         18.1477         6.05451 
        1.46649         18.0529         5.99575 
        1.47263          17.903         5.93773 
        1.47877         17.8287         5.88051 
        1.48491         17.7394         5.82395 
        1.49104         17.6766         5.76827 
        1.49718         17.5454         5.71328 
        1.50333          17.479         5.65893 
        1.50947          17.398         5.60539 
         1.5156         17.2611         5.55264 
        1.52172         17.1681         5.50057 
        1.52787          17.091         5.44907 
          1.534         16.9999          5.3983 
        1.54013         16.8937         5.34823 
        1.54627         16.8037         5.29871 
        1.55241         16.7274         5.24982 
        1.55855          16.665         5.20161 
        1.56467         16.5671         5.15415 
         1.5708          16.533         5.10715 
        1.57695         16.3814         5.06067 
        1.58308         16.3349         5.01488 
        1.58922         16.2588         4.96963 
        1.59535         16.1786         4.92496 
         1.6015         16.0691         4.88078 
        1.60764         16.0037         4.83717 
        1.61376         15.9707         4.79422 
        1.61989         15.8183         4.75175 
        1.62604         15.8128         4.70971 
        1.63218         15.7058         4.66821 
        1.63831         15.6564         4.62731 
        1.64444          15.538         4.58688 
        1.65059         15.4699         4.54685 
        1.65673         15.4299         4.50733 
        1.66285          15.293         4.46841 
        1.66898         15.2708         4.42993 
        1.67512         15.1953         4.39183 
        1.68127         15.1005         4.35415 
         1.6874          15.044         4.31699 
        1.69353         14.9813          4.2803 
        1.69967         14.8911         4.24395 
        1.70581         14.8119         4.20804 
        1.71193         14.7513         4.17268 
        1.71806         14.7245         4.13766 
        1.72421         14.6063         4.10297 
        1.73035         14.5828         4.06872 
        1.73649         14.5104         4.03488 
        1.74262         14.4542         4.00145 
        1.74876         14.3851         3.96837 
        1.75489         14.3243         3.93575 
        1.76101         14.2219          3.9035 
        1.76715          14.225         3.87157 
        1.77329         14.1247         3.83996 
        1.77943          14.045         3.80869 
        1.78557         14.0042         3.77782 
        1.79171         13.9611         3.74729 
        1.79785         13.8699          3.7171 
        1.80399         13.8202         3.68724 
        1.81012         13.7629         3.65775 
        1.81625         13.6848         3.62861 
        1.82239         13.6416         3.59974 
        1.82853         13.5397         3.57119 
        1.83466         13.5146         3.54299 
        1.84078         13.4117         3.51513 
        1.84692         13.4092         3.48752 
        1.85306          13.338         3.46017 
         1.8592         13.2769         3.43317 
        1.86533         13.2357         3.40647 
        1.87147          13.171         3.38002 
        1.87761         13.1242         3.35385 
        1.88375         13.0486         3.32798 
        1.88988         13.0267         3.30242 
        1.89601         12.9614         3.27712 
        1.90215         12.8915         3.25206 
        1.90829         12.8461         3.22727 
        1.91442         12.7907         3.20275 
        1.92056         12.7544          3.1785 
         1.9267         12.6925         3.15448 
        1.93284         12.6328         3.13069 
        1.93897         12.5617          3.1072 
        1.94509         12.5297           3.084 
        1.95123         12.4814         3.06098 
        1.95737         12.4278         3.03818 
        1.96349         12.3731         3.01567 
        1.96964         12.3242         2.99332 
        1.97578         12.2752         2.97119 
        1.98192          12.213         2.94934 
        1.98805         12.1803          2.9277 
        1.99419         12.1266         2.90628 
        2.00033         12.0945         2.88506 
        2.00647         12.0444         2.86407 
         2.0126         11.9628         2.84332 
        2.01874         11.9327         2.82274 
        2.02488         11.8703         2.80235 
        2.03101         11.8469          2.7822 
        2.03714         11.7935         2.76227 
        2.04328         11.7493         2.74252 
        2.04941         11.6996         2.72297 
        2.05554          11.661         2.70363 
        2.06167         11.6014         2.68445 
        2.06781         11.5815         2.66546 
        2.07396         11.5335         2.64662 
        2.08009         11.4734           2.628 
        2.08622         11.4175         2.60959 
        2.09237         11.4079         2.59131 
        2.09851         11.3772         2.57321 
        2.10464         11.3119         2.55531 
        2.11077         11.2531          2.5376 
        2.11691         11.2041         2.52002 
        2.12305         11.1828         2.50261 
        2.12918         11.1526         2.48541 
        2.13531         11.0961         2.46837 
        2.14145         11.0629         2.45145 
         2.1476         11.0058         2.43467 
        2.15372         10.9748         2.41813 
        2.15985         10.9536         2.40173 
        2.16599         10.8944         2.38543 
        2.17213          10.871         2.36931 
        2.17827         10.8246         2.35334 
         2.1844         10.7777         2.33753 
        2.19054         10.7164         2.32186 
        2.19666         10.6989         2.30636 
         2.2028         10.6505         2.29099 
        2.20893         10.6371         2.27575 
        2.21508         10.5774         2.26063 
        2.22122         10.5237         2.24565 
        2.22736         10.5054         2.23083 
        2.23349         10.4538         2.21615 
        2.23962         10.4383          2.2016 
        2.24577          10.383         2.18716 
         2.2519         10.3526         2.17288 
        2.25802         10.3121         2.15874 
        2.26417         10.2721          2.1447 
        2.27031         10.2409         2.13076 
        2.27644         10.2058           2.117 
        2.28257         10.1785         2.10335 
        2.28872         10.1198          2.0898 
        2.29486         10.0956         2.07637 
        2.30099         10.0847         2.06309 
        2.30712         10.0469         2.04992 
        2.31326         9.98152         2.03684 
         2.3194         9.94092         2.02389 
        2.32553         9.93491         2.01107 
        2.33166           9.887         1.99837 
         2.3378         9.85997         1.98576 
        2.34394         9.81844         1.97325 
        2.35007         9.76883         1.96087 
        2.35619         9.73935         1.94862 
        2.36233         9.70377         1.93644 
        2.36848         9.68743         1.92434 
        2.37462         9.64519         1.91236 
        2.38075         9.60295         1.90051 
        2.38689         9.57609         1.88874 
        2.39303         9.53907         1.87708 
        2.39916           9.514         1.86552 
        2.40529         9.48832         1.85407 
        2.41143         9.44289          1.8427 
        2.41757         9.43668         1.83143 
         2.4237         9.38573         1.82027 
        2.42983         9.36284          1.8092 
        2.43598         9.33953          1.7982 
        2.44211         9.29597         1.78731 
        2.44823         9.27643         1.77653 
        2.45437         9.23855         1.76581 
        2.46052         9.19017         1.75518 
        2.46665         9.16825         1.74465 
        2.47279         9.13593         1.73421 
        2.47892         9.09674         1.72385 
        2.48507         9.07091         1.71356 
         2.4912         9.04332         1.70338 
