# k  (h/Mpc)    Pcb(k)  (Mpc/h)^3    Pcb_linear(k)  (Mpc/h)^3
     0.00783031         9707.36         9744.51 
       0.013688         12580.9         12873.4 
       0.019231         13680.1         13873.2 
      0.0249154         13632.5           13661 
      0.0312784         12469.1         12643.1 
      0.0375637         11133.7         11383.1 
      0.0433917         10163.6         10291.3 
      0.0492413         9185.46         9392.82 
      0.0555754         8506.74         8652.59 
      0.0619321         7714.08         8084.86 
       0.067871         7369.67         7626.93 
      0.0738098         6964.12         7169.15 
      0.0800417         6463.06         6649.54 
      0.0862327         5894.14         6094.93 
      0.0921407         5391.13         5560.27 
      0.0982031          4955.2         5047.36 
       0.104506         4457.18         4588.88 
       0.110769         4126.39         4226.19 
       0.116806         3942.85         3959.97 
       0.122832         3699.25         3756.33 
       0.129052         3526.91         3583.01 
       0.135211         3424.61         3420.52 
       0.141259          3207.6         3250.91 
       0.147318         2987.55          3064.2 
       0.153489         2833.08         2861.47 
       0.159709         2713.44         2657.11 
       0.165845         2478.03         2469.85 
       0.171974         2409.53         2307.83 
       0.178125         2321.59          2174.8 
       0.184229         2147.52         2070.04 
        0.19034         2114.21         1985.45 
       0.196428         2056.45         1912.24 
       0.202534         1939.79         1841.15 
       0.208729          1905.6         1765.22 
       0.214876         1833.15         1683.87 
       0.220989         1734.67          1598.6 
       0.227147         1693.33         1512.45 
        0.23329         1629.31         1431.09 
       0.239377         1610.94         1358.78 
       0.245482         1535.06         1296.35 
       0.251667         1478.57         1243.12 
       0.257832         1461.03         1198.01 
       0.263955         1394.75         1157.99 
       0.270079         1360.33         1119.73 
        0.27624         1305.08         1080.75 
       0.282372         1288.19         1040.42 
        0.28843         1272.71         999.371 
       0.294538         1213.09          957.86 
       0.300721         1186.12         917.331 
        0.30691         1163.44         879.622 
       0.313033          1118.8         846.005 
       0.319153          1105.2         816.147 
       0.325316         1090.97         789.358 
        0.33145         1070.86         765.002 
       0.337538         1035.58         742.114 
       0.343633         1010.44         719.605 
       0.349808         990.571         696.767 
       0.355968         972.955         673.805 
       0.362074          944.74         651.188 
       0.368217         941.184         628.998 
       0.374374         927.024         607.805 
       0.380519         894.726         588.059 
       0.386598         888.645         569.988 
       0.392688         870.448         553.304 
        0.39888         849.236         537.494 
       0.405048         836.207          522.57 
       0.411186         832.901         508.238 
       0.417313         829.192         494.188 
       0.423458         803.162         480.278 
       0.429607         782.008         466.574 
       0.435692         774.585         453.316 
       0.441815         761.673         440.424 
       0.447964         750.964         428.078 
       0.454126         741.414         416.348 
       0.460267         731.291         405.306 
       0.466387          721.55         394.898 
        0.47254         708.787         384.915 
       0.478662         698.212         375.344 
       0.484765         692.459         366.083 
       0.490885         684.718         357.023 
       0.497035         672.897         348.111 
       0.503198         672.161         339.393 
       0.509342          658.73          330.96 
       0.515458         646.963         322.857 
       0.521598         641.299         315.031 
       0.527764         629.097         307.489 
       0.533884         625.864         300.318 
           0.54         619.004         293.439 
       0.546137         609.252         286.776 
       0.552299         607.368         280.288 
       0.558452         599.869         273.991 
       0.564573         592.924         267.894 
       0.570708         588.729         261.943 
       0.576825         577.362         256.167 
       0.582926         574.532         250.569 
       0.589034         567.144         245.136 
       0.595184         562.248         239.847 
       0.601379         553.594         234.703 
       0.607522         545.694         229.771 
       0.613639         543.986         225.011 
       0.619772         541.213         220.377 
       0.625918         532.391         215.863 
       0.632068          527.99          211.47 
       0.638161         522.433         207.234 
         0.6443         518.028         203.078 
       0.650464         512.798         199.016 
       0.656582         508.457         195.092 
       0.662703         503.687         191.273 
       0.668861          498.04         187.538 
       0.675024         494.117         183.908 
       0.681124         488.557         180.417 
       0.687237          485.92         177.016 
       0.693381         479.991         173.689 
       0.699536         476.541         170.442 
       0.705665          472.07          167.29 
       0.711789         471.099         164.218 
       0.717957         463.699           161.2 
        0.72409         459.911         158.274 
       0.730186          461.42         155.439 
       0.736317         453.511          152.66 
       0.742472         448.545         149.941 
       0.748622         445.108         147.293 
        0.75476         442.755         144.717 
       0.760888         439.357         142.207 
       0.767043         436.336         139.748 
       0.773185         434.061         137.352 
       0.779291         427.557         135.026 
       0.785407         425.945          132.75 
       0.791564         421.921         130.513 
       0.797719         416.127         128.328 
       0.803834         418.877         126.208 
       0.809972          412.66         124.129 
       0.816124         408.638         122.092 
       0.822261         405.029         120.108 
       0.828378         404.075         118.174 
       0.834502         398.041         116.282 
       0.840667         397.954          114.42 
       0.846816         392.057         112.604 
       0.852925         391.926          110.84 
       0.859047         388.122          109.11 
       0.865192         387.089         107.412 
       0.871341         381.678         105.749 
       0.877463         378.423         104.129 
       0.883569         376.325         102.547 
       0.889708         373.343          100.99 
       0.895864         370.786         99.4617 
       0.902008         368.806         97.9687 
       0.908149         365.906         96.5074 
       0.914301         363.984         95.0739 
       0.920448         361.218         93.6711 
       0.926574         359.206         92.3018 
       0.932687         356.474         90.9631 
       0.938823         353.017         89.6464 
       0.944975         351.552          88.353 
       0.951105         348.817           87.09 
       0.957225         344.652         85.8541 
       0.963368           344.9         84.6382 
       0.969511         338.849          83.446 
       0.975621          339.28         82.2834 
       0.981748         336.632         81.1402 
       0.987916         334.736         80.0116 
        0.99406         331.826          78.909 
        1.00019         328.871         77.8295 
        1.00632         328.876         76.7714 
        1.01246          326.29         75.7315 
        1.01859         322.149         74.7127 
        1.02471         320.063         73.7141 
        1.03085         319.729         72.7304 
        1.03698         316.999         71.7669 
        1.04314         316.463          70.817 
        1.04929         313.725         69.8865 
        1.05541         310.339         68.9766 
        1.06154         309.033         68.0809 
        1.06769         305.847         67.1998 
        1.07382         305.822         66.3373 
        1.07993         302.486          65.492 
        1.08607         300.195         64.6581 
        1.09222         299.016          63.838 
        1.09836         297.547         63.0332 
        1.10449         295.208         62.2433 
        1.11063         292.497         61.4662 
        1.11677         290.912         60.7027 
         1.1229         289.287         59.9536 
        1.12903         288.065         59.2165 
        1.13518         285.703         58.4914 
        1.14131         285.046         57.7789 
        1.14745         281.073         57.0787 
        1.15359         279.213         56.3901 
        1.15973         278.432         55.7127 
        1.16584         277.355         55.0495 
        1.17197         274.977         54.3962 
        1.17811         272.657         53.7517 
        1.18424         271.092         53.1195 
        1.19038         269.672         52.4957 
        1.19652          266.82         51.8823 
        1.20267         266.577         51.2787 
        1.20881         264.339         50.6849 
        1.21495         263.559         50.1015 
        1.22108         261.574         49.5275 
         1.2272         258.876         48.9638 
        1.23334          257.92         48.4077 
        1.23949         257.105          47.859 
        1.24562         255.153         47.3204 
        1.25174         253.356         46.7909 
        1.25789         251.267         46.2679 
        1.26402         251.064          45.754 
        1.27014         249.534         45.2491 
        1.27628         246.647         44.7504 
        1.28244         246.047         44.2583 
        1.28858         244.293         43.7743 
        1.29471         243.167         43.2986 
        1.30084         241.626         42.8305 
        1.30697         239.425         42.3686 
        1.31312         238.111         41.9129 
        1.31925         236.768         41.4654 
        1.32537         236.034          41.025 
        1.33151          234.02         40.5893 
        1.33765         232.407         40.1603 
        1.34378         231.103         39.7384 
        1.34992         229.699         39.3223 
        1.35606         228.632         38.9113 
         1.3622         227.226         38.5069 
        1.36833         225.111         38.1093 
        1.37445         224.712         37.7175 
        1.38059         222.923         37.3301 
        1.38675         221.463         36.9472 
        1.39288         220.349         36.5712 
        1.39901         218.927         36.2007 
        1.40515         217.823         35.8345 
         1.4113         216.197         35.4735 
        1.41742         214.397          35.119 
        1.42355         214.912         34.7686 
         1.4297         212.576          34.422 
        1.43585         211.257         34.0802 
        1.44198         209.411         33.7445 
        1.44809         208.497         33.4139 
        1.45423         207.764         33.0866 
        1.46036         206.269         32.7642 
        1.46649         205.151         32.4461 
        1.47263         204.148         32.1319 
        1.47877         202.871         31.8221 
        1.48491         200.908         31.5158 
        1.49104         199.251         31.2143 
        1.49718         198.592         30.9165 
        1.50333          197.42         30.6222 
        1.50947         196.539         30.3322 
         1.5156         195.406         30.0465 
        1.52172         194.095         29.7645 
        1.52787         193.127         29.4856 
          1.534         191.999         29.2106 
        1.54013         190.979         28.9394 
        1.54627         189.923         28.6711 
        1.55241         188.731         28.4063 
        1.55855         187.913         28.1451 
        1.56467         186.206          27.888 
         1.5708         184.985         27.6334 
        1.57695          184.34         27.3816 
        1.58308         183.062         27.1336 
        1.58922         182.213         26.8884 
        1.59535         180.686         26.6464 
         1.6015         179.547         26.4071 
        1.60764         178.826         26.1708 
        1.61376         177.473          25.938 
        1.61989         176.539         25.7079 
        1.62604         175.269         25.4801 
        1.63218          174.65         25.2553 
        1.63831         173.611         25.0336 
        1.64444         172.388         24.8146 
        1.65059         171.563         24.5977 
        1.65673         170.337         24.3836 
        1.66285         169.737         24.1726 
        1.66898         168.449         23.9641 
        1.67512         167.632         23.7577 
        1.68127         166.469         23.5535 
         1.6874         165.623         23.3522 
        1.69353         164.875         23.1534 
        1.69967         163.566         22.9564 
        1.70581         163.069         22.7618 
        1.71193         161.591         22.5702 
        1.71806         160.741         22.3804 
        1.72421         160.086         22.1925 
        1.73035             159         22.0069 
        1.73649         157.784         21.8235 
        1.74262          157.19         21.6423 
        1.74876         156.286          21.463 
        1.75489         155.348         21.2862 
        1.76101         154.323         21.1115 
        1.76715         153.369         20.9384 
        1.77329          152.79         20.7671 
        1.77943         151.398         20.5976 
        1.78557         151.035         20.4303 
        1.79171         150.071         20.2649 
        1.79785         149.008         20.1012 
        1.80399          148.22         19.9394 
        1.81012         146.937         19.7796 
        1.81625         146.762         19.6216 
        1.82239         145.532         19.4651 
        1.82853          145.13         19.3104 
        1.83466         143.924         19.1576 
        1.84078         143.254         19.0065 
        1.84692         142.864         18.8569 
        1.85306         141.526         18.7087 
         1.8592         140.903         18.5623 
        1.86533         139.738         18.4176 
        1.87147          139.34         18.2742 
        1.87761         138.171         18.1323 
        1.88375         137.384         17.9921 
        1.88988          136.57         17.8536 
        1.89601         136.225         17.7164 
        1.90215         135.515         17.5806 
        1.90829         134.364         17.4462 
        1.91442         133.389         17.3133 
        1.92056         132.798         17.1819 
         1.9267         131.935         17.0517 
        1.93284         131.386         16.9228 
        1.93897         130.505         16.7954 
        1.94509         129.831         16.6697 
        1.95123         129.113         16.5449 
        1.95737         128.548         16.4213 
        1.96349         127.709         16.2993 
        1.96964          126.89         16.1782 
        1.97578         126.395         16.0583 
        1.98192         125.615         15.9398 
        1.98805         124.894         15.8225 
        1.99419           124.1         15.7064 
        2.00033         123.451         15.5914 
        2.00647         122.736         15.4776 
         2.0126         122.093         15.3651 
        2.01874         121.665         15.2536 
        2.02488         120.561         15.1431 
        2.03101         120.167         15.0339 
        2.03714         119.282         14.9258 
        2.04328         118.695         14.8187 
        2.04941         118.139         14.7128 
        2.05554         117.726          14.608 
        2.06167         116.573          14.504 
        2.06781         115.902         14.4011 
        2.07396         115.585          14.299 
        2.08009         114.749         14.1981 
        2.08622         114.099         14.0982 
        2.09237         113.443         13.9992 
        2.09851         112.961         13.9011 
        2.10464         112.301          13.804 
        2.11077         111.596         13.7081 
        2.11691         111.099         13.6128 
        2.12305         110.361         13.5184 
        2.12918         109.858         13.4252 
        2.13531         109.399         13.3328 
        2.14145         108.453         13.2411 
         2.1476         107.865         13.1502 
        2.15372         107.389         13.0605 
        2.15985         106.768         12.9716 
        2.16599         106.043         12.8833 
        2.17213         105.656         12.7959 
        2.17827         104.892         12.7094 
         2.1844         104.554         12.6237 
        2.19054          103.88         12.5388 
        2.19666         103.146         12.4547 
         2.2028         102.777         12.3714 
        2.20893         102.204         12.2888 
        2.21508          101.45         12.2069 
        2.22122         101.131         12.1257 
        2.22736         100.625         12.0454 
        2.23349         99.9709         11.9658 
        2.23962         99.4555          11.887 
        2.24577         98.9204         11.8088 
         2.2519         98.2075         11.7313 
        2.25802         97.7481         11.6548 
        2.26417         97.2804         11.5786 
        2.27031         96.5904         11.5031 
        2.27644         96.2621         11.4285 
        2.28257         95.7251         11.3546 
        2.28872         95.2378         11.2811 
        2.29486         94.8919         11.2084 
        2.30099         94.0164         11.1364 
        2.30712         93.8143          11.065 
        2.31326         93.2735         10.9942 
         2.3194         92.5515          10.924 
        2.32553         92.0833         10.8545 
        2.33166          91.613         10.7857 
         2.3378         91.3758         10.7173 
        2.34394         90.7516         10.6496 
        2.35007         90.0039         10.5825 
        2.35619         89.5764         10.5161 
        2.36233         89.2511         10.4501 
        2.36848         88.6603         10.3845 
        2.37462         88.1545         10.3196 
        2.38075         87.8116         10.2554 
        2.38689         87.4347         10.1916 
        2.39303          86.974         10.1284 
        2.39916         86.5521         10.0658 
        2.40529         85.9351         10.0038 
        2.41143         85.5652         9.94221 
        2.41757         85.0964         9.88112 
         2.4237         84.5901         9.82066 
        2.42983         84.1424         9.76071 
        2.43598         83.8996         9.70111 
        2.44211          83.154          9.6421 
        2.44823         82.8354         9.58371 
        2.45437         82.5246         9.52565 
        2.46052         81.9984         9.46803 
        2.46665          81.505         9.41098 
        2.47279          81.114         9.35442 
        2.47892         80.5784         9.29829 
        2.48507         80.2719         9.24257 
         2.4912          79.811         9.18742 
