# k  (h/Mpc)    P(k)  (Mpc/h)^3    P_linear(k)  (Mpc/h)^3
     0.00783031         13674.7         13891.6 
       0.013688         15642.2         15530.1 
       0.019231         14265.2         14211.8 
      0.0249154           11564         11736.1 
      0.0312784          8943.6         8964.35 
      0.0375637         6979.98         6910.45 
      0.0433917          5697.6         5713.37 
      0.0492413          5063.2         5042.13 
      0.0555754         4583.51         4656.51 
      0.0619321         4413.01         4366.27 
       0.067871         3972.31         4021.78 
      0.0738098         3528.73         3561.84 
      0.0800417         2978.82         3010.99 
      0.0862327         2515.03          2496.2 
      0.0921407         2176.14         2109.82 
      0.0982031         1894.58         1846.71 
       0.104506         1786.49         1698.98 
       0.110769         1697.16         1633.03 
       0.116806         1636.46         1593.03 
       0.122832         1574.39         1532.58 
       0.129052         1442.51         1426.18 
       0.135211         1313.97          1282.5 
       0.141259         1197.09         1129.17 
       0.147318         1077.38         990.976 
       0.153489         964.376         884.496 
       0.159709         904.355          816.72 
       0.165845         872.008         781.338 
       0.171974         838.369         763.014 
       0.178125         810.999         745.967 
       0.184229         778.466         718.573 
        0.19034         721.511          676.46 
       0.196428         689.944         623.516 
       0.202534         650.155         567.738 
       0.208729         602.352          517.16 
       0.214876         565.188          478.43 
       0.220989         541.495         452.306 
       0.227147          519.55         435.892 
        0.23329         501.089         424.675 
       0.239377         491.071          413.64 
       0.245482         457.547         399.098 
       0.251667          450.56         379.676 
       0.257832         429.782         356.854 
       0.263955         410.219         333.495 
       0.270079         389.723         312.208 
        0.27624         381.463         294.657 
       0.282372         367.144          281.51 
        0.28843         355.659         271.889 
       0.294538          338.39         264.097 
       0.300721         335.288         256.453 
        0.30691         319.807         247.844 
       0.313033         311.865          237.93 
       0.319153         299.737         227.007 
       0.325316         291.007         215.806 
        0.33145         280.056         205.393 
       0.337538         274.589         196.362 
       0.343633         264.879         188.872 
       0.349808          255.26         182.577 
       0.355968           251.8         177.144 
       0.362074         246.509          172.01 
       0.368217         239.204         166.671 
       0.374374         228.979          160.99 
       0.380519         226.353         155.017 
       0.386598          219.95         149.098 
       0.392688         216.451          143.43 
        0.39888         210.662         138.141 
       0.405048         204.871         133.485 
       0.411186         200.677         129.374 
       0.417313         196.326         125.638 
       0.423458         191.647         122.101 
       0.429607         187.939         118.602 
       0.435692         182.126          115.08 
       0.441815         180.103         111.513 
       0.447964         176.145         107.963 
       0.454126         169.709         104.512 
       0.460267         167.123         101.264 
       0.466387         164.872         98.2779 
        0.47254         160.757         95.5018 
       0.478662          160.19         92.9133 
       0.484765         154.293         90.4581 
       0.490885         152.052         88.0768 
       0.497035         149.567         85.7231 
       0.503198         145.958         83.3794 
       0.509342         144.142         81.0817 
       0.515458          141.79         78.8659 
       0.521598         138.605         76.7397 
       0.527764         137.014          74.708 
       0.533884         134.959         72.7892 
           0.54          132.48         70.9648 
       0.546137         131.233         69.2163 
       0.552299         128.532         67.5253 
       0.558452         127.038         65.8841 
       0.564573          124.91         64.2832 
       0.570708         122.115         62.7114 
       0.576825          120.61         61.1871 
       0.582926         118.229         59.7183 
       0.589034         116.847         58.3065 
       0.595184         115.355         56.9428 
       0.601379         113.444         55.6211 
       0.607522          111.49         54.3553 
       0.613639          110.47         53.1333 
       0.619772         108.238         51.9429 
       0.625918         106.964         50.7841 
       0.632068         105.533         49.6585 
       0.638161         104.559         48.5761 
         0.6443         103.076         47.5183 
       0.650464         102.058         46.4884 
       0.656582         100.125         45.4967 
       0.662703         99.2656         44.5341 
       0.668861         97.5217         43.5943 
       0.675024         96.2167         42.6813 
       0.681124         95.4786         41.8041 
       0.687237         93.7656         40.9502 
       0.693381         92.3301         40.1164 
       0.699536         91.7123         39.3047 
       0.705665         91.1309         38.5191 
       0.711789         89.3775         37.7558 
       0.717957         89.1361          37.008 
        0.72409         87.4826         36.2847 
       0.730186         86.2104         35.5851 
       0.736317         85.5802         34.9001 
       0.742472          84.812         34.2306 
       0.748622         83.8247         33.5793 
        0.75476         82.9467         32.9462 
       0.760888         81.9124         32.3303 
       0.767043         81.3895         31.7278 
       0.773185         80.5145         31.1418 
       0.779291         79.1034          30.574 
       0.785407         78.6888         30.0196 
       0.791564         78.1743         29.4756 
       0.797719         76.4633         28.9454 
       0.803834         76.1163         28.4317 
       0.809972         75.2349         27.9288 
       0.816124         74.7505         27.4371 
       0.822261         74.0816         26.9586 
       0.828378         73.5145         26.4931 
       0.834502         72.9248         26.0382 
       0.840667         71.8533         25.5911 
       0.846816         70.9618         25.1558 
       0.852925         70.4869         24.7335 
       0.859047         69.6164         24.3199 
       0.865192         69.1389         23.9145 
       0.871341         68.5087          23.518 
       0.877463         67.5699         23.1324 
       0.883569         67.4265         22.7564 
       0.889708         66.6675         22.3869 
       0.895864         66.1356         22.0247 
       0.902008         65.5484         21.6712 
       0.908149         65.1088         21.3258 
       0.914301         64.4061         20.9873 
       0.920448         63.9276         20.6565 
       0.926574         63.2873          20.334 
       0.932687         63.2405         20.0191 
       0.938823          62.235         19.7097 
       0.944975         61.5706         19.4062 
       0.951105          61.142         19.1102 
       0.957225         60.6004         18.8208 
       0.963368         60.0432         18.5365 
       0.969511         59.8734          18.258 
       0.975621         59.4793         17.9868 
       0.981748         58.9025         17.7203 
       0.987916         58.3025         17.4576 
        0.99406         57.9484         17.2013 
        1.00019         57.5703         16.9505 
        1.00632         57.0106         16.7051 
        1.01246         56.7251         16.4641 
        1.01859         56.0158         16.2283 
        1.02471         55.6663         15.9973 
        1.03085         55.1992         15.7701 
        1.03698         54.9386         15.5478 
        1.04314         54.4414         15.3289 
        1.04929         54.0623         15.1147 
        1.05541         53.4692         14.9054 
        1.06154          53.446         14.6996 
        1.06769         52.9968         14.4974 
        1.07382         52.6494         14.2997 
        1.07993         52.3278         14.1061 
        1.08607         51.8796         13.9153 
        1.09222         51.6754         13.7279 
        1.09836         51.1292         13.5441 
        1.10449         50.9573         13.3639 
        1.11063         50.4285         13.1868 
        1.11677         50.1409          13.013 
         1.1229          49.692         12.8426 
        1.12903         49.2353         12.6751 
        1.13518         49.2573         12.5105 
        1.14131         48.9285         12.3489 
        1.14745         48.4694         12.1902 
        1.15359         48.2212         12.0343 
        1.15973         47.7769          11.881 
        1.16584         47.4633         11.7311 
        1.17197         47.1781         11.5836 
        1.17811         47.0115         11.4382 
        1.18424         46.5316         11.2957 
        1.19038         46.2979         11.1552 
        1.19652         46.0748         11.0171 
        1.20267         45.5485         10.8814 
        1.20881         45.4462          10.748 
        1.21495         45.0425          10.617 
        1.22108         45.0238         10.4883 
         1.2272          44.377         10.3619 
        1.23334         44.1901         10.2374 
        1.23949         44.0899         10.1146 
        1.24562         43.6494         9.99418 
        1.25174         43.4948         9.87589 
        1.25789         43.3359         9.75915 
        1.26402         42.9113         9.64452 
        1.27014          42.665           9.532 
        1.27628         42.3771         9.42094 
        1.28244         42.1626         9.31145 
        1.28858         42.0185         9.20384 
        1.29471         41.7973         9.09817 
        1.30084         41.5324         8.99425 
        1.30697         41.2275         8.89181 
        1.31312         40.9698         8.79081 
        1.31925         40.7273         8.69171 
        1.32537         40.5577         8.59422 
        1.33151          40.218         8.49789 
        1.33765         40.0711         8.40309 
        1.34378         39.8413         8.30992 
        1.34992          39.581         8.21811 
        1.35606         39.3863         8.12748 
         1.3622         39.1362         8.03837 
        1.36833         38.9315         7.95082 
        1.37445          38.688         7.86461 
        1.38059         38.4395         7.77941 
        1.38675         38.2334         7.69527 
        1.39288         38.0495         7.61271 
        1.39901         37.8963         7.53139 
        1.40515         37.6155         7.45108 
         1.4113         37.4351         7.37197 
        1.41742         37.3518          7.2943 
        1.42355         37.0343         7.21761 
         1.4297         36.9157         7.14179 
        1.43585          36.762         7.06708 
        1.44198         36.4124         6.99373 
        1.44809         36.3231         6.92156 
        1.45423         36.1185         6.85014 
        1.46036         35.9574         6.77985 
        1.46649         35.7837         6.71053 
        1.47263         35.5395         6.64212 
        1.47877         35.3008         6.57469 
        1.48491         35.3214         6.50809 
        1.49104         35.0039         6.44255 
        1.49718         34.7047         6.37787 
        1.50333         34.7431         6.31397 
        1.50947          34.499         6.25107 
         1.5156         34.3014         6.18913 
        1.52172         34.1977         6.12802 
        1.52787         34.0665         6.06762 
          1.534         33.7987          6.0081 
        1.54013         33.6183         5.94944 
        1.54627          33.552         5.89146 
        1.55241         33.1949         5.83424 
        1.55855         33.1464         5.77786 
        1.56467         32.8477         5.72238 
         1.5708         32.9065         5.66747 
        1.57695         32.6792          5.6132 
        1.58308         32.4901         5.55976 
        1.58922         32.3366         5.50698 
        1.59535         32.2305          5.4549 
         1.6015         32.0004         5.40342 
        1.60764         31.7948         5.35263 
        1.61376         31.7008         5.30263 
        1.61989         31.5264         5.25323 
        1.62604         31.3479         5.20434 
        1.63218           31.36         5.15611 
        1.63831          31.092          5.1086 
        1.64444         30.9638         5.06166 
        1.65059         30.9062         5.01521 
        1.65673         30.6531         4.96939 
        1.66285         30.4794         4.92426 
        1.66898          30.392         4.87968 
        1.67512          30.187         4.83557 
        1.68127         30.0655         4.79196 
         1.6874         29.8944         4.74899 
        1.69353         29.7699         4.70656 
        1.69967         29.6487         4.66456 
        1.70581         29.5996         4.62308 
        1.71193         29.4415         4.58226 
        1.71806         29.1517         4.54185 
        1.72421         29.1184         4.50185 
        1.73035         28.9624         4.46237 
        1.73649         28.7635         4.42337 
        1.74262         28.6455         4.38487 
        1.74876         28.5406          4.3468 
        1.75489         28.4311         4.30926 
        1.76101         28.3236         4.27218 
        1.76715         28.1966         4.23547 
        1.77329         28.0701         4.19916 
        1.77943         27.9518         4.16325 
        1.78557         27.7701         4.12782 
        1.79171         27.6828         4.09279 
        1.79785         27.5177         4.05816 
        1.80399            27.5         4.02394 
        1.81012         27.2759         3.99016 
        1.81625         27.1891         3.95678 
        1.82239         27.0517         3.92373 
        1.82853         26.9702         3.89107 
        1.83466         26.7526         3.85882 
        1.84078          26.597         3.82696 
        1.84692         26.5594         3.79541 
        1.85306         26.3966         3.76418 
         1.8592          26.284         3.73334 
        1.86533         26.1778         3.70287 
        1.87147         26.1259          3.6727 
        1.87761         25.9586         3.64286 
        1.88375         25.8614         3.61338 
        1.88988         25.7667         3.58426 
        1.89601         25.6495         3.55544 
        1.90215         25.5657         3.52691 
        1.90829         25.4633         3.49871 
        1.91442         25.3301         3.47082 
        1.92056           25.17         3.44325 
         1.9267         25.1318         3.41596 
        1.93284         24.9137         3.38894 
        1.93897         24.8976         3.36227 
        1.94509         24.7624         3.33594 
        1.95123         24.6454         3.30982 
        1.95737         24.5305         3.28397 
        1.96349         24.4619         3.25846 
        1.96964         24.3547         3.23314 
        1.97578          24.185         3.20808 
        1.98192         24.1213         3.18334 
        1.98805         24.0593         3.15885 
        1.99419         23.9456         3.13462 
        2.00033         23.8163         3.11063 
        2.00647         23.7374          3.0869 
         2.0126         23.5913         3.06346 
        2.01874         23.5458         3.04022 
        2.02488         23.4513          3.0172 
        2.03101          23.346         2.99447 
        2.03714          23.242         2.97198 
        2.04328         23.1026         2.94971 
        2.04941         23.0409         2.92768 
        2.05554         22.9437         2.90589 
        2.06167         22.8466         2.88429 
        2.06781          22.727          2.8629 
        2.07396         22.6715         2.84171 
        2.08009          22.558         2.82076 
        2.08622         22.4337         2.80005 
        2.09237         22.3704         2.77951 
        2.09851         22.2804         2.75916 
        2.10464         22.1796         2.73906 
        2.11077         22.1326         2.71917 
        2.11691         21.9878         2.69945 
        2.12305         21.9046         2.67991 
        2.12918         21.7971         2.66062 
        2.13531         21.7859         2.64151 
        2.14145         21.6406         2.62254 
         2.1476         21.5735         2.60374 
        2.15372         21.4754         2.58522 
        2.15985         21.4141         2.56686 
        2.16599         21.2956         2.54862 
        2.17213           21.26         2.53058 
        2.17827         21.1025         2.51272 
         2.1844         21.0558         2.49504 
        2.19054          20.958         2.47753 
        2.19666          20.865         2.46022 
         2.2028         20.7589         2.44305 
        2.20893         20.7343         2.42603 
        2.21508         20.6536         2.40916 
        2.22122         20.5071         2.39245 
        2.22736         20.4553         2.37592 
        2.23349         20.3544         2.35956 
        2.23962         20.2985         2.34334 
        2.24577         20.1986         2.32726 
         2.2519          20.142         2.31135 
        2.25802         20.0423         2.29562 
        2.26417         19.9673         2.27998 
        2.27031         19.8543         2.26448 
        2.27644         19.7824         2.24917 
        2.28257         19.7223           2.234 
        2.28872         19.6609         2.21894 
        2.29486         19.5728         2.20402 
        2.30099         19.4713         2.18927 
        2.30712         19.4113         2.17465 
        2.31326         19.3695         2.16013 
         2.3194         19.2665         2.14576 
        2.32553         19.2062         2.13154 
        2.33166         19.1105         2.11745 
         2.3378         19.0377         2.10347 
        2.34394         18.9346         2.08962 
        2.35007         18.8948         2.07591 
        2.35619         18.8197         2.06233 
        2.36233         18.7147         2.04885 
        2.36848         18.6565         2.03546 
        2.37462         18.5693         2.02221 
        2.38075         18.5282          2.0091 
        2.38689         18.4406         1.99609 
        2.39303         18.3564          1.9832 
        2.39916         18.2945         1.97044 
        2.40529         18.2669         1.95778 
        2.41143         18.1635         1.94523 
        2.41757         18.0776         1.93279 
         2.4237         18.0061         1.92047 
        2.42983         17.9009         1.90827 
        2.43598         17.8593         1.89613 
        2.44211         17.7915         1.88413 
        2.44823         17.7254         1.87225 
        2.45437         17.6379         1.86044 
        2.46052         17.5647         1.84873 
        2.46665         17.5218         1.83713 
        2.47279         17.4745         1.82564 
        2.47892          17.397         1.81424 
        2.48507          17.289         1.80292 
         2.4912         17.2509         1.79173 
