# k  (h/Mpc)    Pcb(k)  (Mpc/h)^3    Pcb_linear(k)  (Mpc/h)^3
     0.00783031         18505.8         18783.2 
       0.013688         21285.3         21059.4 
       0.019231         19690.1         19602.2 
      0.0249154         16388.3         16691.8 
      0.0312784         13244.7         13323.1 
      0.0375637           10783         10701.9 
      0.0433917         8983.74         9059.96 
      0.0492413         8036.78         8029.55 
      0.0555754          7166.3         7328.58 
      0.0619321         6834.58         6766.03 
       0.067871         6084.58         6189.45 
      0.0738098         5441.68          5513.9 
      0.0800417         4676.56         4754.86 
      0.0862327          4067.5         4054.46 
      0.0921407         3619.01         3514.55 
      0.0982031         3195.73         3120.28 
       0.104506         3019.57         2862.08 
       0.110769         2827.53         2705.28 
       0.116806         2687.52         2588.33 
       0.122832         2553.33         2457.28 
       0.129052         2332.61         2282.97 
       0.135211         2152.75         2076.52 
       0.141259         2005.63         1865.56 
       0.147318         1845.86         1673.76 
       0.153489         1673.64         1517.58 
       0.159709         1579.47         1405.25 
       0.165845         1519.71         1330.98 
       0.171974         1448.99         1278.03 
       0.178125         1384.14         1229.89 
       0.184229            1320         1175.08 
        0.19034         1233.16         1108.67 
       0.196428         1191.89         1033.86 
       0.202534         1135.33         957.464 
       0.208729         1068.21         886.529 
       0.214876         1015.64         827.926 
       0.220989          976.25         782.535 
       0.227147         936.773         747.549 
        0.23329         899.045         719.064 
       0.239377         880.321          692.67 
       0.245482         820.614         664.777 
       0.251667         812.645         633.774 
       0.257832           776.6         600.868 
       0.263955         747.594         568.221 
       0.270079         716.408         537.694 
        0.27624         705.744         510.654 
       0.282372         677.542           487.8 
        0.28843          664.59         468.634 
       0.294538         629.601         451.623 
       0.300721         625.264         435.452 
        0.30691         598.084         419.352 
       0.313033         585.027          403.04 
       0.319153          568.71         386.521 
       0.325316          551.55         370.114 
        0.33145          535.29         354.612 
       0.337538         525.044         340.438 
       0.343633          509.95         327.625 
       0.349808         490.719         315.922 
       0.355968         486.517         305.208 
       0.362074         479.592         295.196 
       0.368217         464.967          285.41 
       0.374374         444.548         275.756 
       0.380519         443.038         266.254 
       0.386598         430.321         257.079 
       0.392688         427.013         248.268 
        0.39888         414.614         239.797 
       0.405048         406.212         231.907 
       0.411186           399.7         224.586 
       0.417313         391.436         217.709 
       0.423458         382.568          211.15 
       0.429607          377.43         204.841 
       0.435692         367.346          198.78 
       0.441815         363.419         192.842 
       0.447964         355.606         187.067 
       0.454126         348.415          181.49 
       0.460267         341.248         176.164 
       0.466387         336.767         171.108 
        0.47254         331.191         166.276 
       0.478662         329.535         161.688 
       0.484765          317.37         157.304 
       0.490885         314.381         153.074 
       0.497035         308.392         148.969 
       0.503198           304.2         144.986 
       0.509342         302.165         141.141 
       0.515458         298.126         137.442 
       0.521598         290.127         133.866 
       0.527764         286.574         130.411 
       0.533884         283.646         127.112 
           0.54         279.531          123.94 
       0.546137         277.956         120.873 
       0.552299         272.354         117.903 
       0.558452         270.865         115.037 
       0.564573         267.143         112.276 
       0.570708          261.54         109.594 
       0.576825         256.921         107.005 
       0.582926         254.771         104.505 
       0.589034         252.138         102.085 
       0.595184         250.129         99.7297 
       0.601379         245.611         97.4355 
       0.607522          242.59         95.2335 
       0.613639         240.733         93.1096 
       0.619772         236.189         91.0455 
       0.625918          234.95         89.0402 
       0.632068         230.919         87.0945 
       0.638161         229.802         85.2242 
         0.6443         226.219         83.3957 
       0.650464         224.037         81.6143 
       0.656582         221.141         79.8979 
       0.662703         221.029         78.2308 
       0.668861         217.418         76.6024 
       0.675024         214.483         75.0197 
       0.681124          212.83         73.4982 
       0.687237         210.559         72.0165 
       0.693381         207.249         70.5692 
       0.699536         205.468         69.1595 
       0.705665         203.522         67.7947 
       0.711789         202.097         66.4681 
       0.717957         201.111         65.1682 
        0.72409         198.854         63.9104 
       0.730186         196.354         62.6937 
       0.736317         194.217         61.5022 
       0.742472         192.743         60.3376 
       0.748622         191.263         59.2044 
        0.75476         189.246          58.103 
       0.760888         187.303         57.0314 
       0.767043         186.855         55.9829 
       0.773185         185.198         54.9631 
       0.779291         181.739         53.9746 
       0.785407         181.263         53.0093 
       0.791564         179.593         52.0616 
       0.797719         176.928         51.1377 
       0.803834         175.852         50.2423 
       0.809972         175.206         49.3652 
       0.816124         174.147         48.5073 
       0.822261         172.886         47.6722 
       0.828378         170.919         46.8594 
       0.834502          170.04          46.065 
       0.840667         168.094         45.2839 
       0.846816         166.728         44.5233 
       0.852925         165.843          43.785 
       0.859047         164.563          43.062 
       0.865192         162.437          42.353 
       0.871341         161.197         41.6596 
       0.877463          160.32         40.9849 
       0.883569         159.827          40.327 
       0.889708         157.828         39.6803 
       0.895864         156.613         39.0461 
       0.902008         155.422         38.4273 
       0.908149         154.963         37.8222 
       0.914301         152.874         37.2293 
       0.920448         152.096         36.6498 
       0.926574         150.839         36.0846 
       0.932687         150.881         35.5327 
       0.938823         148.764         34.9904 
       0.944975         148.112         34.4582 
       0.951105         147.044         33.9391 
       0.957225         146.149         33.4316 
       0.963368             144         32.9328 
       0.969511         143.629         32.4443 
       0.975621         142.401         31.9683 
       0.981748         142.321         31.5007 
       0.987916         140.929         31.0396 
        0.99406         139.817         30.5895 
        1.00019         139.486         30.1492 
        1.00632         138.126         29.7181 
        1.01246         137.295         29.2948 
        1.01859         136.962         28.8804 
        1.02471         135.152         28.4746 
        1.03085         134.089         28.0752 
        1.03698         133.506         27.6844 
        1.04314         132.176         27.2993 
        1.04929         131.896         26.9226 
        1.05541         131.198         26.5544 
        1.06154         130.172         26.1923 
        1.06769         129.921         25.8364 
        1.07382         128.636         25.4883 
        1.07993           127.8         25.1475 
        1.08607         127.183         24.8115 
        1.09222         126.617         24.4813 
        1.09836         125.573         24.1575 
        1.10449         124.372           23.84 
        1.11063         123.662         23.5278 
        1.11677         123.033         23.2214 
         1.1229         122.177         22.9209 
        1.12903         121.834         22.6256 
        1.13518         121.196         22.3352 
        1.14131         119.991         22.0501 
        1.14745         119.873         21.7702 
        1.15359          118.77          21.495 
        1.15973         118.197         21.2246 
        1.16584          117.25           20.96 
        1.17197         116.735         20.6996 
        1.17811         115.923         20.4428 
        1.18424         115.611         20.1912 
        1.19038         115.297          19.943 
        1.19652         114.279         19.6992 
        1.20267         113.627         19.4594 
        1.20881         113.038         19.2237 
        1.21495         112.036         18.9923 
        1.22108         111.652         18.7648 
         1.2272         110.698         18.5415 
        1.23334         110.364         18.3214 
        1.23949         109.742         18.1043 
        1.24562          109.07         17.8914 
        1.25174         108.656         17.6822 
        1.25789         108.005         17.4757 
        1.26402         106.741         17.2729 
        1.27014         106.363         17.0738 
        1.27628         106.096         16.8773 
        1.28244         105.808         16.6834 
        1.28858         105.117         16.4929 
        1.29471         104.219         16.3058 
        1.30084         104.141         16.1218 
        1.30697         103.001         15.9403 
        1.31312         102.586         15.7614 
        1.31925          101.93         15.5858 
        1.32537         101.612         15.4131 
        1.33151         100.881         15.2423 
        1.33765         100.292         15.0743 
        1.34378         99.8938         14.9091 
        1.34992         99.6062         14.7463 
        1.35606         99.1177         14.5856 
         1.3622         98.2376         14.4276 
        1.36833         97.7559         14.2722 
        1.37445         97.4004         14.1193 
        1.38059          96.612         13.9681 
        1.38675         96.0564         13.8188 
        1.39288         95.9948         13.6723 
        1.39901         95.4502          13.528 
        1.40515         94.6518         13.3854 
         1.4113         94.4065         13.2449 
        1.41742         93.7233          13.107 
        1.42355         93.3571         12.9709 
         1.4297         92.9349         12.8362 
        1.43585         92.2831         12.7035 
        1.44198         91.8504         12.5732 
        1.44809           91.58          12.445 
        1.45423         91.2236         12.3181 
        1.46036         90.5699         12.1932 
        1.46649         90.0131           12.07 
        1.47263         89.3965         11.9484 
        1.47877         89.0705         11.8285 
        1.48491         88.5435         11.7101 
        1.49104         88.3504         11.5935 
        1.49718         87.9034         11.4785 
        1.50333         87.4139         11.3648 
        1.50947         86.8601          11.253 
         1.5156         86.5934         11.1427 
        1.52172         86.1408          11.034 
        1.52787         85.6037         10.9265 
          1.534           85.16         10.8206 
        1.54013         84.7737         10.7162 
        1.54627         84.4446          10.613 
        1.55241         83.9751         10.5111 
        1.55855         83.4999         10.4107 
        1.56467         83.2465         10.3119 
         1.5708          82.617         10.2141 
        1.57695         82.5273         10.1174 
        1.58308         82.0837         10.0222 
        1.58922         81.7066         9.92813 
        1.59535         81.2766         9.83533 
         1.6015         80.9033         9.74358 
        1.60764         80.4631         9.65304 
        1.61376         80.1613         9.56391 
        1.61989         79.7497         9.47584 
        1.62604         79.2941         9.38867 
        1.63218         79.1986         9.30266 
        1.63831         78.4143         9.21793 
        1.64444         78.0763         9.13422 
        1.65059         77.7483         9.05135 
        1.65673         77.2994          8.9696 
        1.66285         77.0744         8.88909 
        1.66898         76.7983         8.80955 
        1.67512         76.1177         8.73083 
        1.68127         76.0011         8.65299 
         1.6874          75.412         8.57628 
        1.69353         75.1153         8.50055 
        1.69967         74.9667         8.42555 
        1.70581         74.4995          8.3515 
        1.71193         74.1038         8.27861 
        1.71806         73.8304         8.20644 
        1.72421           73.45         8.13499 
        1.73035          73.122         8.06447 
        1.73649          72.856          7.9948 
        1.74262         72.3633         7.92601 
        1.74876         72.1404         7.85799 
        1.75489         71.7141         7.79091 
        1.76101         71.3998         7.72463 
        1.76715         70.9168         7.65903 
        1.77329         70.7365         7.59412 
        1.77943         70.3088         7.52993 
        1.78557         70.1899         7.46658 
        1.79171         69.5509         7.40394 
        1.79785         69.2118         7.34201 
        1.80399         69.0199          7.2808 
        1.81012         68.7862         7.22038 
        1.81625         68.4469         7.16066 
        1.82239          68.081         7.10153 
        1.82853         67.8664         7.04309 
        1.83466         67.5582         6.98537 
        1.84078         67.0621         6.92836 
        1.84692         66.9028         6.87189 
        1.85306         66.5585         6.81599 
         1.8592         66.3521         6.76079 
        1.86533         65.9372         6.70623 
        1.87147         65.4852         6.65222 
        1.87761         65.3247         6.59877 
        1.88375         65.0884         6.54598 
        1.88988         64.6346         6.49382 
        1.89601         64.4992          6.4422 
        1.90215         63.9245          6.3911 
        1.90829         63.7371         6.34059 
        1.91442         63.5325         6.29061 
        1.92056         63.2084         6.24122 
         1.9267         62.8971          6.1923 
        1.93284          62.628         6.14388 
        1.93897         62.3163         6.09608 
        1.94509         62.1311         6.04888 
        1.95123         61.7788         6.00206 
        1.95737         61.4816         5.95571 
        1.96349         61.1612         5.90996 
        1.96964         60.8316         5.86456 
        1.97578         60.5806         5.81962 
        1.98192         60.5682         5.77525 
        1.98805         59.9997         5.73132 
        1.99419         59.8217         5.68786 
        2.00033          59.624         5.64482 
        2.00647         59.3112         5.60225 
         2.0126         58.9743         5.56018 
        2.01874         58.6317         5.51848 
        2.02488         58.5238         5.47717 
        2.03101         58.1868         5.43636 
        2.03714         57.8558         5.39601 
        2.04328         57.6189         5.35602 
        2.04941         57.3847         5.31647 
        2.05554         57.2094         5.27735 
        2.06167         56.9784         5.23856 
        2.06781         56.5432         5.20017 
        2.07396         56.3566          5.1621 
        2.08009           56.18         5.12448 
        2.08622         55.8418         5.08727 
        2.09237         55.6487         5.05037 
        2.09851         55.4965         5.01382 
        2.10464         55.0933         4.97769 
        2.11077         54.9179         4.94197 
        2.11691         54.5901         4.90651 
        2.12305         54.4096          4.8714 
        2.12918         54.1756         4.83672 
        2.13531         53.7696         4.80238 
        2.14145         53.6295         4.76828 
         2.1476          53.368         4.73448 
        2.15372         53.1953         4.70118 
        2.15985         52.9149         4.66816 
        2.16599         52.6825         4.63537 
        2.17213         52.5003         4.60293 
        2.17827         52.2155          4.5708 
         2.1844         51.9706         4.53901 
        2.19054         51.7116         4.50752 
        2.19666         51.5723         4.47636 
         2.2028         51.4164         4.44548 
        2.20893         51.0652         4.41486 
        2.21508         50.9422         4.38451 
        2.22122         50.6621         4.35442 
        2.22736         50.4251         4.32469 
        2.23349         50.2245         4.29523 
        2.23962         49.9558         4.26604 
        2.24577         49.6569         4.23709 
         2.2519         49.5413         4.20845 
        2.25802         49.3142         4.18012 
        2.26417         49.0889         4.15198 
        2.27031          48.922         4.12406 
        2.27644         48.6084         4.09648 
        2.28257         48.4323         4.06916 
        2.28872         48.1628         4.04203 
        2.29486         48.0091         4.01516 
        2.30099         47.7502         3.98859 
        2.30712         47.5785         3.96224 
        2.31326         47.2866         3.93609 
         2.3194         47.1209         3.91019 
        2.32553         46.9175         3.88457 
        2.33166         46.6437         3.85918 
         2.3378         46.4823         3.83399 
        2.34394         46.2756         3.80902 
        2.35007         46.0799          3.7843 
        2.35619          45.901         3.75984 
        2.36233         45.6918         3.73553 
        2.36848         45.5075         3.71138 
        2.37462         45.2816          3.6875 
        2.38075         45.1468         3.66386 
        2.38689         44.9271          3.6404 
        2.39303         44.6657         3.61715 
        2.39916         44.4828         3.59413 
        2.40529         44.3903         3.57131 
        2.41143         44.1622         3.54867 
        2.41757         43.9695         3.52621 
         2.4237         43.7297           3.504 
        2.42983         43.5556         3.48197 
        2.43598         43.3651         3.46008 
        2.44211         43.1679         3.43841 
        2.44823          43.027         3.41697 
        2.45437         42.7909         3.39566 
        2.46052         42.6416         3.37452 
        2.46665         42.4819         3.35359 
        2.47279         42.1845         3.33284 
        2.47892         42.0662         3.31226 
        2.48507         41.8428         3.29183 
         2.4912         41.7432         3.27161 
