# k  (h/Mpc)    P(k)  (Mpc/h)^3    P_linear(k)  (Mpc/h)^3
     0.00783031         7338.11          7436.7 
       0.013688         9744.63         9700.19 
       0.019231         10340.2         10343.9 
      0.0249154         9925.53         10095.8 
      0.0312784         9178.89         9273.14 
      0.0375637         8276.41         8306.19 
      0.0433917         7352.34         7487.15 
      0.0492413          6750.6         6820.61 
      0.0555754         6094.93         6272.06 
      0.0619321         5821.64         5846.52 
       0.067871         5348.17         5497.53 
      0.0738098         4997.81         5146.46 
      0.0800417         4562.48         4751.42 
      0.0862327         4203.26         4337.27 
      0.0921407         3865.28         3945.99 
      0.0982031         3488.17         3577.75 
       0.104506         3252.31         3254.08 
       0.110769         2999.12         3000.81 
       0.116806         2795.64         2814.77 
       0.122832         2667.36         2669.85 
       0.129052         2495.22         2542.23 
       0.135211         2379.08         2419.08 
       0.141259         2281.96            2290 
       0.147318          2160.9          2150.2 
       0.153489         1996.29         2002.19 
       0.159709         1885.45            1857 
       0.165845         1801.92         1727.13 
       0.171974         1686.58         1616.72 
       0.178125         1601.09         1526.72 
       0.184229         1538.01         1455.14 
        0.19034         1444.21          1395.6 
       0.196428            1422         1341.94 
       0.202534          1378.4          1288.4 
       0.208729         1316.57         1231.13 
       0.214876         1252.76         1170.96 
       0.220989          1217.1         1109.66 
       0.227147         1151.74         1049.47 
        0.23329         1105.62         993.964 
       0.239377         1082.99         945.372 
       0.245482         1013.37         903.544 
       0.251667         1004.87          867.39 
       0.257832         969.551         835.842 
       0.263955         939.216         806.905 
       0.270079         909.402          778.58 
        0.27624         900.009         749.673 
       0.282372         861.778          720.22 
        0.28843          845.22          690.94 
       0.294538         805.675         662.086 
       0.300721          802.08          634.49 
        0.30691         766.225         609.155 
       0.313033         751.565         586.579 
       0.319153         731.267         566.326 
       0.325316         709.485         547.746 
        0.33145         691.215         530.456 
       0.337538         683.689         513.903 
       0.343633         663.134         497.557 
       0.349808          642.68         481.089 
       0.355968         638.019         464.814 
       0.362074         626.195         449.077 
       0.368217         609.476         433.888 
       0.374374         586.388         419.542 
       0.380519         581.578         406.191 
       0.386598         568.705         393.911 
       0.392688         565.858         382.419 
        0.39888          549.63         371.358 
       0.405048         540.077         360.793 
       0.411186         530.208         350.579 
       0.417313         521.051          340.59 
       0.423458          512.65         330.795 
       0.429607         502.167         321.247 
       0.435692         491.051         312.116 
       0.441815         488.201         303.317 
       0.447964         478.726         294.907 
       0.454126         464.477           286.9 
       0.460267          459.11         279.322 
       0.466387         454.077          272.11 
        0.47254         445.032         265.135 
       0.478662           443.7         258.419 
       0.484765         431.579          251.92 
       0.490885         426.951         245.577 
       0.497035         419.926         239.375 
       0.503198         412.241         233.355 
       0.509342          409.17         227.562 
       0.515458         404.991         222.009 
       0.521598         398.069         216.647 
       0.527764         390.523         211.472 
       0.533884         387.839         206.531 
           0.54         382.807         201.766 
       0.546137         381.499         197.134 
       0.552299         374.051         192.621 
       0.558452         370.856         188.246 
       0.564573          364.85         184.019 
       0.570708         359.229         179.904 
       0.576825          353.96         175.922 
       0.582926          351.36         172.074 
       0.589034         347.333         168.345 
       0.595184         344.337         164.713 
       0.601379         341.138         161.173 
       0.607522         335.103          157.77 
       0.613639         333.906         154.481 
       0.619772         325.764         151.277 
       0.625918         324.573         148.157 
       0.632068         320.349         145.123 
       0.638161         319.139         142.198 
         0.6443         313.445         139.332 
       0.650464         311.168         136.535 
       0.656582          309.95         133.835 
       0.662703         306.582         131.209 
       0.668861         301.727         128.642 
       0.675024         298.883         126.146 
       0.681124         297.847         123.742 
       0.687237         293.832         121.398 
       0.693381         289.835         119.104 
       0.699536         287.727         116.865 
       0.705665         286.503         114.692 
       0.711789         282.487         112.577 
       0.717957         280.736           110.5 
        0.72409         277.776         108.489 
       0.730186         274.613          106.54 
       0.736317         272.425          104.63 
       0.742472          271.26         102.761 
       0.748622         269.156          100.94 
        0.75476         266.845         99.1678 
       0.760888         263.289         97.4413 
       0.767043         262.587         95.7494 
       0.773185         259.512         94.1014 
       0.779291         255.364         92.5018 
       0.785407         254.707         90.9375 
       0.791564          252.43         89.3998 
       0.797719         249.901         87.8988 
       0.803834         248.645         86.4423 
       0.809972         246.237         85.0141 
       0.816124         246.594         83.6155 
       0.822261         242.511         82.2525 
       0.828378         241.005         80.9244 
       0.834502         240.705         79.6248 
       0.840667         236.711         78.3458 
       0.846816         235.866         77.0987 
       0.852925         233.975         75.8868 
       0.859047         232.227         74.6987 
       0.865192         230.742         73.5324 
       0.871341         228.263         72.3904 
       0.877463         227.062          71.278 
       0.883569         225.121         70.1921 
       0.889708          223.58         69.1234 
       0.895864         221.044         68.0745 
       0.902008         220.448         67.0498 
       0.908149         219.247         66.0469 
       0.914301         216.839         65.0632 
       0.920448         215.259         64.1006 
       0.926574         214.285         63.1611 
       0.932687         213.296         62.2425 
       0.938823         210.998         61.3391 
       0.944975         209.502         60.4518 
       0.951105         208.522         59.5854 
       0.957225         206.097         58.7376 
       0.963368         204.351         57.9035 
       0.969511         203.442         57.0859 
       0.975621         202.155         56.2885 
       0.981748         201.901         55.5045 
       0.987916         199.215         54.7306 
        0.99406         198.255         53.9746 
        1.00019         197.617         53.2344 
        1.00632         195.796          52.509 
        1.01246         194.621         51.7961 
        1.01859         193.134         51.0977 
        1.02471         192.313         50.4132 
        1.03085         190.247         49.7389 
        1.03698          188.94         49.0786 
        1.04314         188.005         48.4275 
        1.04929         186.459         47.7899 
        1.05541         185.767         47.1664 
        1.06154         184.454         46.5526 
        1.06769         184.212         45.9488 
        1.07382         182.852         45.3579 
        1.07993         181.406         44.7788 
        1.08607         180.123         44.2075 
        1.09222         179.132         43.6456 
        1.09836         177.594         43.0942 
        1.10449         176.323         42.5531 
        1.11063         175.318         42.0207 
        1.11677         174.781         41.4977 
         1.1229         172.938         40.9846 
        1.12903         172.184         40.4798 
        1.13518         171.894         39.9831 
        1.14131         170.136         39.4951 
        1.14745         169.507         39.0155 
        1.15359         168.168          38.544 
        1.15973         167.899           38.08 
        1.16584         166.191         37.6259 
        1.17197          165.44         37.1785 
        1.17811         164.529         36.7371 
        1.18424         163.454         36.3043 
        1.19038         162.815         35.8772 
        1.19652         161.766         35.4572 
        1.20267         160.723         35.0439 
        1.20881          159.69         34.6374 
        1.21495         158.721          34.238 
        1.22108         158.061         33.8451 
         1.2272         156.891         33.4592 
        1.23334         155.945         33.0786 
        1.23949         154.239          32.703 
        1.24562         154.129         32.3344 
        1.25174         152.416          31.972 
        1.25789         151.979         31.6141 
        1.26402         151.323         31.2623 
        1.27014          150.19         30.9168 
        1.27628         149.594         30.5755 
        1.28244         148.739         30.2388 
        1.28858         147.992         29.9076 
        1.29471         146.511         29.5821 
        1.30084         145.896         29.2619 
        1.30697         145.157         28.9459 
        1.31312         144.847         28.6341 
        1.31925         143.505          28.328 
        1.32537         143.125         28.0267 
        1.33151         141.527         27.7287 
        1.33765         141.153         27.4352 
        1.34378         140.113         27.1466 
        1.34992          139.91         26.8619 
        1.35606         138.862         26.5808 
         1.3622         137.988         26.3042 
        1.36833         137.217         26.0322 
        1.37445         136.222         25.7642 
        1.38059         136.044         25.4992 
        1.38675         134.884         25.2373 
        1.39288          134.33         24.9801 
        1.39901         133.745         24.7267 
        1.40515         133.034         24.4762 
         1.4113         131.456         24.2294 
        1.41742         131.422         23.9869 
        1.42355          130.38         23.7472 
         1.4297          129.62         23.5102 
        1.43585         128.743         23.2765 
        1.44198         128.514         23.0469 
        1.44809         127.402         22.8208 
        1.45423         126.507          22.597 
        1.46036         126.229         22.3766 
        1.46649         125.582          22.159 
        1.47263         125.073         21.9442 
        1.47877         124.309         21.7324 
        1.48491         123.357          21.523 
        1.49104         122.669         21.3169 
        1.49718         121.899         21.1133 
        1.50333         121.302         20.9121 
        1.50947         120.472         20.7139 
         1.5156         120.239         20.5186 
        1.52172         119.243         20.3258 
        1.52787         119.027         20.1351 
          1.534         118.356         19.9472 
        1.54013         117.353         19.7618 
        1.54627         116.735         19.5784 
        1.55241         116.166         19.3974 
        1.55855         115.714         19.2189 
        1.56467         114.978         19.0432 
         1.5708         114.225         18.8692 
        1.57695         113.952         18.6971 
        1.58308          112.82         18.5275 
        1.58922         112.779           18.36 
        1.59535         112.078         18.1946 
         1.6015          111.51          18.031 
        1.60764          110.76         17.8695 
        1.61376         110.235         17.7104 
        1.61989         109.768         17.5532 
        1.62604         108.898         17.3975 
        1.63218         108.695         17.2438 
        1.63831         107.899         17.0924 
        1.64444         107.354         16.9427 
        1.65059         106.599         16.7944 
        1.65673         105.975         16.6481 
        1.66285         105.746          16.504 
        1.66898         104.974         16.3615 
        1.67512         104.389         16.2205 
        1.68127         103.786          16.081 
         1.6874         103.265         15.9434 
        1.69353         102.749         15.8075 
        1.69967         102.165          15.673 
        1.70581         101.763           15.54 
        1.71193         101.323         15.4091 
        1.71806         100.426         15.2794 
        1.72421         100.202          15.151 
        1.73035         99.4543         15.0242 
        1.73649         98.9943         14.8989 
        1.74262         98.5127         14.7752 
        1.74876         98.0146         14.6527 
        1.75489         97.3566         14.5319 
        1.76101         97.0325         14.4125 
        1.76715         96.3572         14.2943 
        1.77329         95.9916         14.1773 
        1.77943         95.5533         14.0616 
        1.78557         95.0813         13.9473 
        1.79171          94.465         13.8343 
        1.79785         94.0612         13.7225 
        1.80399         93.5376         13.6119 
        1.81012         93.1434         13.5028 
        1.81625         92.4819         13.3949 
        1.82239         92.0886          13.288 
        1.82853         91.7868         13.1823 
        1.83466         91.0678         13.0779 
        1.84078         90.7378         12.9747 
        1.84692         90.1637         12.8725 
        1.85306         89.6813         12.7713 
         1.8592         89.0469         12.6713 
        1.86533         88.7087         12.5725 
        1.87147         88.0535         12.4746 
        1.87761          87.755         12.3776 
        1.88375         87.5155         12.2819 
        1.88988         86.9344         12.1873 
        1.89601         86.4341         12.0936 
        1.90215          86.079         12.0008 
        1.90829         85.6381         11.9091 
        1.91442         85.1258         11.8183 
        1.92056         84.6814         11.7285 
         1.9267         84.2812         11.6396 
        1.93284         83.5328         11.5515 
        1.93897         83.3433         11.4646 
        1.94509         82.7291         11.3787 
        1.95123         82.4054         11.2935 
        1.95737         82.2842         11.2091 
        1.96349         81.6839         11.1258 
        1.96964         81.0794         11.0431 
        1.97578         80.9114         10.9612 
        1.98192         80.4574         10.8803 
        1.98805         80.0271         10.8002 
        1.99419         79.4438         10.7209 
        2.00033         79.2361         10.6424 
        2.00647          78.821         10.5647 
         2.0126         78.2647         10.4879 
        2.01874         77.8394         10.4117 
        2.02488         77.6864         10.3363 
        2.03101         77.2567         10.2617 
        2.03714         76.6389          10.188 
        2.04328         76.3729         10.1149 
        2.04941         75.8146         10.0425 
        2.05554         75.5062         9.97096 
        2.06167         75.3231         9.89999 
        2.06781         74.7959          9.8297 
        2.07396         74.3922            9.76 
        2.08009         74.1059          9.6911 
        2.08622          73.647         9.62294 
        2.09237         73.3853         9.55531 
        2.09851         73.0541         9.48832 
        2.10464         72.5916         9.42208 
        2.11077         72.1205         9.35656 
        2.11691         71.8749         9.29151 
        2.12305         71.4679         9.22709 
        2.12918         71.0686         9.16343 
        2.13531         70.7425         9.10037 
        2.14145         70.3419         9.03776 
         2.1476         70.1576         8.97567 
        2.15372         69.7511         8.91447 
        2.15985         69.3103         8.85379 
        2.16599         68.9833         8.79349 
        2.17213         68.6462         8.73383 
        2.17827         68.3099         8.67474 
         2.1844         67.7907         8.61625 
        2.19054          67.549         8.55828 
        2.19666         67.2874         8.50093 
         2.2028         67.0487         8.44405 
        2.20893         66.6623         8.38767 
        2.21508         66.2999         8.33174 
        2.22122         66.0763          8.2763 
        2.22736         65.6139         8.22149 
        2.23349         65.3339         8.16719 
        2.23962          64.913         8.11335 
        2.24577         64.5703         8.05995 
         2.2519         64.3446          8.0071 
        2.25802         63.9752         7.95482 
        2.26417         63.6171         7.90286 
        2.27031         63.4002         7.85131 
        2.27644         62.9442         7.80038 
        2.28257         62.7037          7.7499 
        2.28872          62.429         7.69978 
        2.29486         62.1409         7.65011 
        2.30099         61.8087         7.60098 
        2.30712         61.5242         7.55227 
        2.31326         61.1291          7.5039 
         2.3194         60.9185         7.45598 
        2.32553         60.5536         7.40856 
        2.33166         60.1813         7.36158 
         2.3378         59.8664         7.31494 
        2.34394         59.4814          7.2687 
        2.35007         59.3224         7.22291 
        2.35619         59.0674         7.17759 
        2.36233         58.8397         7.13254 
        2.36848         58.3713         7.08779 
        2.37462         58.1777         7.04352 
        2.38075         57.9287         6.99967 
        2.38689         57.6388         6.95616 
        2.39303         57.4116         6.91302 
        2.39916         57.2064          6.8703 
        2.40529         56.7999         6.82794 
        2.41143         56.4897         6.78591 
        2.41757          56.254         6.74422 
         2.4237         55.9602         6.70295 
        2.42983         55.6214         6.66204 
        2.43598          55.371         6.62136 
        2.44211         55.0901         6.58109 
        2.44823         54.8492         6.54124 
        2.45437         54.5001         6.50161 
        2.46052         54.1943         6.46228 
        2.46665         54.0164         6.42335 
        2.47279         53.7925         6.38475 
        2.47892         53.5639         6.34644 
        2.48507         53.2461         6.30842 
         2.4912         53.0995         6.27078 
