# k  (h/Mpc)    P(k)  (Mpc/h)^3    P_linear(k)  (Mpc/h)^3
     0.00783031         5652.91          5697.6 
       0.013688         6914.87         7046.92 
       0.019231         7066.06         7136.66 
      0.0249154         6592.35          6582.8 
      0.0312784         5650.07         5674.98 
      0.0375637         4771.84         4813.92 
      0.0433917         4184.32         4185.68 
      0.0492413         3717.07         3738.88 
      0.0555754         3416.89         3414.65 
      0.0619321         3112.92         3177.47 
       0.067871         2942.35         2969.87 
      0.0738098         2724.15         2738.04 
      0.0800417         2460.46         2462.49 
      0.0862327         2169.81         2177.36 
      0.0921407         1924.96         1924.44 
      0.0982031         1728.53         1708.64 
       0.104506         1543.47         1542.09 
       0.110769          1436.5         1430.05 
       0.116806         1380.73         1357.24 
       0.122832         1306.79         1300.06 
       0.129052         1248.93         1239.48 
       0.135211         1190.87         1167.14 
       0.141259         1097.48         1082.93 
       0.147318         999.793         991.874 
       0.153489          922.37         902.293 
       0.159709         861.118         824.358 
       0.165845         785.506         764.374 
       0.171974         762.809         721.061 
       0.178125         732.163          690.21 
       0.184229         691.049         666.074 
        0.19034         675.667         642.412 
       0.196428         650.486         615.214 
       0.202534           605.4         582.973 
       0.208729         585.087         546.622 
       0.214876         554.891         510.069 
       0.220989         513.393         476.552 
       0.227147         497.638         447.978 
        0.23329         477.037         425.409 
       0.239377         465.611         408.168 
       0.245482         443.808         394.264 
       0.251667          426.79         381.489 
       0.257832         421.622         368.267 
       0.263955         398.067         353.691 
       0.270079         382.254         337.636 
        0.27624         364.411         320.802 
       0.282372         352.842          304.47 
        0.28843         348.095         289.746 
       0.294538         330.444         276.914 
       0.300721         317.896          266.04 
        0.30691         312.799         256.904 
       0.313033         299.524         248.891 
       0.319153         294.474         241.226 
       0.325316         285.819         233.309 
        0.33145         277.705         225.035 
       0.337538         267.862          216.49 
       0.343633         259.135         207.919 
       0.349808         251.251         199.585 
       0.355968         245.088         191.919 
       0.362074         238.867         185.137 
       0.368217          234.63         179.077 
       0.374374         228.998         173.636 
       0.380519         219.565         168.579 
       0.386598         215.626          163.72 
       0.392688         209.733         158.861 
        0.39888         205.298         153.847 
       0.405048         200.826         148.844 
       0.411186          197.99         143.956 
       0.417313          193.35         139.274 
       0.423458          188.23         134.879 
       0.429607         184.011         130.822 
       0.435692         180.804         127.107 
       0.441815         176.349         123.624 
       0.447964         171.238         120.303 
       0.454126          168.27         117.066 
       0.460267         166.551         113.885 
       0.466387         162.781         110.758 
        0.47254         160.819         107.658 
       0.478662         155.478         104.649 
       0.484765         153.369         101.766 
       0.490885         150.408         99.0222 
       0.497035         148.955         96.4126 
       0.503198          146.13         93.9342 
       0.509342           142.3          91.585 
       0.515458         140.522         89.3418 
       0.521598         137.093         87.1575 
       0.527764         135.667         85.0091 
       0.533884         134.843         82.9205 
           0.54          131.24         80.8861 
       0.546137          128.22         78.9052 
       0.552299         126.564         76.9833 
       0.558452         124.264         75.1356 
       0.564573          123.67         73.3702 
       0.570708         120.269         71.6751 
       0.576825         118.898         70.0514 
       0.582926         117.581         68.4868 
       0.589034         115.631         66.9646 
       0.595184         114.357         65.4689 
       0.601379         111.675         64.0003 
       0.607522         109.816         62.5837 
       0.613639         108.893         61.2146 
       0.619772          107.14         59.8853 
       0.625918         106.219         58.5956 
       0.632068         104.108         57.3459 
       0.638161         102.601         56.1462 
         0.6443         102.027         54.9743 
       0.650464         99.9064         53.8335 
       0.656582         99.4995         52.7341 
       0.662703         98.1937         51.6653 
       0.668861         96.0694         50.6194 
       0.675024         96.0243         49.6002 
       0.681124         94.4189         48.6179 
       0.687237         92.7199         47.6591 
       0.693381         92.1124         46.7214 
       0.699536         90.9684         45.8074 
       0.705665         89.6781         44.9227 
       0.711789         88.4847         44.0634 
       0.717957         87.4107         43.2219 
        0.72409         86.6803         42.4079 
       0.730186         86.1652         41.6203 
       0.736317          84.626         40.8486 
       0.742472          83.562         40.0936 
       0.748622         82.3234         39.3579 
        0.75476         81.9066          38.642 
       0.760888         81.4507         37.9446 
       0.767043         79.8271         37.2616 
       0.773185         78.8839         36.5968 
       0.779291         78.0149          35.952 
       0.785407         77.0983          35.322 
       0.791564         76.9785         34.7033 
       0.797719         75.8714         34.1001 
       0.803834         75.2676         33.5152 
       0.809972         74.6291         32.9421 
       0.816124         73.7121         32.3813 
       0.822261         72.7585         31.8352 
       0.828378         72.5646         31.3034 
       0.834502         71.5114         30.7834 
       0.840667         71.0448         30.2719 
       0.846816         70.3096         29.7736 
       0.852925         69.5375         29.2896 
       0.859047         69.3455         28.8155 
       0.865192         68.2547         28.3503 
       0.871341         67.4987         27.8952 
       0.877463         67.0318         27.4522 
       0.883569         66.8636           27.02 
       0.889708         66.1671         26.5949 
       0.895864         65.6003         26.1779 
       0.902008         64.9255         25.7708 
       0.908149         64.1909         25.3726 
       0.914301          63.884         24.9822 
       0.920448         63.6202         24.6005 
       0.926574         62.3782         24.2281 
       0.932687         62.1245         23.8642 
       0.938823         61.5926         23.5065 
       0.944975         60.8699         23.1554 
       0.951105         60.4266         22.8127 
       0.957225         60.2096         22.4776 
       0.963368         59.6128         22.1481 
       0.969511         59.0938         21.8252 
       0.975621         58.6562         21.5105 
       0.981748         58.0725         21.2012 
       0.987916         57.6559         20.8961 
        0.99406         57.2951         20.5981 
        1.00019         56.6662         20.3066 
        1.00632         56.2834          20.021 
        1.01246         55.8798         19.7405 
        1.01859          55.602         19.4658 
        1.02471         54.9708         19.1967 
        1.03085         54.6442         18.9318 
        1.03698         54.3128         18.6725 
        1.04314         53.8875         18.4169 
        1.04929         53.3797         18.1668 
        1.05541          53.141         17.9223 
        1.06154         52.8055         17.6818 
        1.06769         52.1409         17.4453 
        1.07382         51.8386         17.2139 
        1.07993          51.594         16.9873 
        1.08607         51.1732         16.7638 
        1.09222         50.9573         16.5441 
        1.09836         50.5034         16.3287 
        1.10449          50.239         16.1173 
        1.11063         49.7779         15.9095 
        1.11677         49.6657         15.7055 
         1.1229         49.1299         15.5053 
        1.12903          48.928         15.3085 
        1.13518         48.7991          15.115 
        1.14131         48.2503         14.9249 
        1.14745         47.8514         14.7382 
        1.15359         47.3831         14.5547 
        1.15973         47.3492         14.3743 
        1.16584         46.9805         14.1977 
        1.17197         46.4359         14.0238 
        1.17811         46.2884         13.8523 
        1.18424         45.6655         13.6842 
        1.19038         45.6051         13.5184 
        1.19652         45.3954         13.3554 
        1.20267         45.0943         13.1951 
        1.20881         44.7671         13.0375 
        1.21495         44.6014         12.8827 
        1.22108         44.4402         12.7304 
         1.2272         44.0033          12.581 
        1.23334         43.7576         12.4336 
        1.23949          43.486         12.2883 
        1.24562         43.1637         12.1457 
        1.25174         42.8975         12.0055 
        1.25789         42.8524         11.8672 
        1.26402         42.4905         11.7312 
        1.27014         42.3109         11.5978 
        1.27628         41.8665          11.466 
        1.28244         41.8293          11.336 
        1.28858         41.4772         11.2082 
        1.29471         41.2307         11.0827 
        1.30084         40.9063         10.9592 
        1.30697         40.8711         10.8374 
        1.31312          40.487         10.7173 
        1.31925         40.1625         10.5994 
        1.32537         39.9913         10.4834 
        1.33151         39.7352         10.3687 
        1.33765         39.6042         10.2558 
        1.34378         39.4364         10.1449 
        1.34992         39.1176         10.0354 
        1.35606         38.8627         9.92739 
         1.3622         38.6778         9.82114 
        1.36833         38.5133          9.7167 
        1.37445         38.1572         9.61383 
        1.38059         38.0681         9.51214 
        1.38675          37.702         9.41168 
        1.39288         37.6497         9.31307 
        1.39901         37.3685         9.21593 
        1.40515         37.2155         9.11995 
         1.4113         37.1793         9.02538 
        1.41742         36.9046         8.93251 
        1.42355           36.58         8.84077 
         1.4297           36.43         8.75005 
        1.43585         36.1975         8.66063 
        1.44198         36.0036         8.57281 
        1.44809         35.7903         8.48637 
        1.45423          35.684          8.4008 
        1.46036         35.5264         8.31656 
        1.46649         35.3166         8.23345 
        1.47263         35.0768         8.15142 
        1.47877         34.9334         8.07053 
        1.48491         34.8001         7.99062 
        1.49104         34.5128         7.91196 
        1.49718          34.441          7.8343 
        1.50333         34.2974         7.75756 
        1.50947         34.0444           7.682 
         1.5156         33.8982         7.60757 
        1.52172         33.6561         7.53412 
        1.52787         33.5525         7.46149 
          1.534          33.333         7.38991 
        1.54013         33.3116         7.31935 
        1.54627         32.9882         7.24958 
        1.55241         32.8387         7.18071 
        1.55855         32.7575         7.11283 
        1.56467         32.5744         7.04602 
         1.5708         32.4273         6.97987 
        1.57695         32.2833         6.91448 
        1.58308         31.9959         6.85008 
        1.58922         31.8623         6.78645 
        1.59535         31.7609         6.72365 
         1.6015         31.6855         6.66157 
        1.60764          31.464         6.60029 
        1.61376         31.2919         6.53996 
        1.61989         31.0719         6.48033 
        1.62604         30.9638         6.42132 
        1.63218         30.8267         6.36307 
        1.63831         30.7171         6.30569 
        1.64444         30.5484         6.24898 
        1.65059         30.4003         6.19285 
        1.65673         30.2708         6.13746 
        1.66285          30.191          6.0829 
        1.66898          29.948         6.02899 
        1.67512         29.8979         5.97562 
        1.68127         29.7206         5.92286 
         1.6874         29.5643         5.87084 
        1.69353         29.4863         5.81948 
        1.69967          29.347         5.76862 
        1.70581         29.1214         5.71838 
        1.71193         28.9879         5.66894 
        1.71806          28.919         5.61997 
        1.72421         28.7978         5.57148 
        1.73035         28.6271         5.52362 
        1.73649         28.4425         5.47633 
        1.74262         28.2878         5.42964 
        1.74876         28.2471         5.38346 
        1.75489         28.0789         5.33791 
        1.76101         27.9781          5.2929 
        1.76715         27.8802         5.24835 
        1.77329          27.658         5.20425 
        1.77943         27.6125         5.16065 
        1.78557         27.4985          5.1176 
        1.79171          27.372         5.07504 
        1.79785         27.2421         5.03296 
        1.80399         27.1081         4.99136 
        1.81012         27.0395         4.95029 
        1.81625         26.8145          4.9097 
        1.82239         26.7336          4.8695 
        1.82853         26.6174         4.82977 
        1.83466          26.487         4.79052 
        1.84078         26.3555         4.75176 
        1.84692         26.2881         4.71335 
        1.85306         26.1087         4.67533 
         1.8592         26.0772         4.63778 
        1.86533         25.9046         4.60067 
        1.87147         25.7777         4.56392 
        1.87761         25.6626         4.52755 
        1.88375         25.6275         4.49163 
        1.88988         25.4587         4.45613 
        1.89601          25.324           4.421 
        1.90215         25.2299         4.38622 
        1.90829         25.1714         4.35183 
        1.91442         24.9794          4.3178 
        1.92056          24.919         4.28417 
         1.9267          24.823         4.25086 
        1.93284         24.7461         4.21788 
        1.93897         24.6341         4.18532 
        1.94509         24.5232         4.15317 
        1.95123         24.4097         4.12127 
        1.95737         24.2918         4.08969 
        1.96349         24.1984         4.05852 
        1.96964         24.1873         4.02758 
        1.97578         23.9496         3.99696 
        1.98192          23.891         3.96671 
        1.98805         23.7074         3.93677 
        1.99419         23.7012         3.90714 
        2.00033         23.5613          3.8778 
        2.00647         23.5107         3.84877 
         2.0126          23.362         3.82009 
        2.01874         23.2722         3.79165 
        2.02488          23.143         3.76348 
        2.03101         23.0325         3.73564 
        2.03714         22.9762         3.70811 
        2.04328         22.8827         3.68083 
        2.04941         22.7742         3.65385 
        2.05554         22.7168         3.62715 
        2.06167         22.5929         3.60069 
        2.06781         22.5326         3.57448 
        2.07396         22.4512          3.5485 
        2.08009         22.3076         3.52282 
        2.08622         22.2379         3.49743 
        2.09237         22.1952         3.47223 
        2.09851         22.0237         3.44728 
        2.10464         21.9102         3.42261 
        2.11077         21.9013         3.39822 
        2.11691         21.7769         3.37401 
        2.12305         21.7041         3.35003 
        2.12918         21.6206         3.32634 
        2.13531         21.5375         3.30288 
        2.14145         21.4154          3.2796 
         2.1476         21.2907         3.25651 
        2.15372          21.259         3.23375 
        2.15985         21.1725          3.2112 
        2.16599         21.0611         3.18879 
        2.17213         21.0127         3.16662 
        2.17827         20.8783         3.14467 
         2.1844         20.8209         3.12294 
        2.19054         20.7914         3.10141 
        2.19666         20.6511         3.08012 
         2.2028         20.6276           3.059 
        2.20893         20.4723         3.03807 
        2.21508         20.4027         3.01732 
        2.22122         20.2977         2.99675 
        2.22736         20.2941         2.97641 
        2.23349         20.1351         2.95627 
        2.23962         20.1027         2.93631 
        2.24577         20.0067         2.91651 
         2.2519         19.9441         2.89692 
        2.25802         19.7999         2.87754 
        2.26417         19.7597         2.85828 
        2.27031         19.6959         2.83919 
        2.27644         19.6493         2.82032 
        2.28257         19.5357         2.80162 
        2.28872         19.5177         2.78306 
        2.29486         19.4063         2.76467 
        2.30099         19.2944         2.74649 
        2.30712         19.2463         2.72846 
        2.31326         19.1439         2.71056 
         2.3194         19.0758         2.69283 
        2.32553         19.0343         2.67529 
        2.33166         18.9049         2.65791 
         2.3378         18.8841         2.64067 
        2.34394         18.7668         2.62357 
        2.35007          18.724         2.60665 
        2.35619         18.6754         2.58989 
        2.36233          18.546         2.57325 
        2.36848         18.4797         2.55671 
        2.37462         18.4258         2.54036 
        2.38075         18.3687         2.52416 
        2.38689         18.2653         2.50809 
        2.39303         18.2141         2.49216 
        2.39916         18.1099         2.47639 
        2.40529         18.0713         2.46076 
        2.41143         17.9834         2.44525 
        2.41757          17.893         2.42986 
         2.4237         17.8419         2.41464 
        2.42983         17.7919         2.39955 
        2.43598         17.7016         2.38454 
        2.44211         17.6488         2.36969 
        2.44823         17.5807           2.355 
        2.45437         17.5444         2.34039 
        2.46052         17.4318          2.3259 
        2.46665         17.4229         2.31155 
        2.47279          17.292         2.29733 
        2.47892         17.2375         2.28322 
        2.48507         17.1825         2.26921 
         2.4912         17.1078         2.25535 
