# k  (h/Mpc)    P(k)  (Mpc/h)^3    P_linear(k)  (Mpc/h)^3
     0.00783031         11001.6         11084.1 
       0.013688         13372.7         13705.2 
       0.019231           13683         13877.7 
      0.0249154         12814.5         12799.6 
      0.0312784         10939.2         11033.7 
      0.0375637          9219.6         9359.17 
      0.0433917         8102.99         8137.54 
      0.0492413         7186.59         7268.74 
      0.0555754         6609.98         6638.29 
      0.0619321         5980.99         6177.11 
       0.067871         5666.11         5773.48 
      0.0738098          5261.8         5322.75 
      0.0800417         4753.25         4787.05 
      0.0862327         4194.68         4232.73 
      0.0921407            3737         3741.05 
      0.0982031         3372.43         3321.52 
       0.104506          3008.8         2997.75 
       0.110769         2805.38         2779.94 
       0.116806          2701.8         2638.39 
       0.122832         2553.99         2527.24 
       0.129052         2430.71         2409.46 
       0.135211          2335.4         2268.83 
       0.141259         2148.29         2105.13 
       0.147318         1963.36         1928.13 
       0.153489          1823.1         1753.99 
       0.159709         1723.54         1602.49 
       0.165845         1571.82         1485.88 
       0.171974          1533.4         1401.68 
       0.178125         1480.48         1341.71 
       0.184229         1380.62         1294.79 
        0.19034         1356.83         1248.79 
       0.196428         1312.66         1195.92 
       0.202534         1222.94         1133.25 
       0.208729         1192.15         1062.58 
       0.214876         1132.51         991.528 
       0.220989         1059.92         926.374 
       0.227147         1030.27         870.828 
        0.23329         989.213         826.955 
       0.239377         977.383          793.44 
       0.245482         929.735         766.412 
       0.251667         895.774         741.578 
       0.257832         884.271         715.875 
       0.263955          838.25         687.541 
       0.270079         809.637         656.333 
        0.27624         774.313         623.609 
       0.282372         758.401         591.859 
        0.28843         748.976         563.238 
       0.294538         710.555         538.295 
       0.300721         691.734         517.156 
        0.30691         678.859         499.397 
       0.313033         649.481         483.819 
       0.319153          640.14          468.92 
       0.325316         629.473          453.53 
        0.33145         614.891         437.445 
       0.337538         592.441         420.835 
       0.343633         575.825         404.173 
       0.349808         561.854         387.973 
       0.355968          551.07         373.072 
       0.362074         532.394         359.887 
       0.368217         529.466         348.108 
       0.374374         519.834          337.53 
       0.380519         499.177           327.7 
       0.386598         494.073         318.255 
       0.392688         482.337          308.81 
        0.39888         469.788         299.063 
       0.405048         460.906         289.337 
       0.411186         459.235         279.836 
       0.417313         453.392         270.734 
       0.423458         440.089         262.191 
       0.429607         427.987         254.304 
       0.435692         421.757         247.083 
       0.441815         414.436         240.313 
       0.447964         405.765         233.856 
       0.454126         400.938         227.565 
       0.460267         394.341         221.382 
       0.466387         387.156         215.302 
        0.47254         381.667         209.277 
       0.478662         373.271         203.428 
       0.484765         368.861         197.822 
       0.490885         364.879         192.489 
       0.497035         357.639         187.416 
       0.503198         356.815         182.598 
       0.509342          348.19         178.032 
       0.515458         342.436         173.671 
       0.521598         337.025         169.425 
       0.527764         332.113         165.249 
       0.533884         330.296         161.189 
           0.54         325.364         157.234 
       0.546137          318.35         153.383 
       0.552299         317.299         149.648 
       0.558452         312.003         146.056 
       0.564573         309.394         142.624 
       0.570708         304.468         139.329 
       0.576825         299.133         136.173 
       0.582926         296.963         133.131 
       0.589034         292.366         130.172 
       0.595184         290.403         127.265 
       0.601379          285.66          124.41 
       0.607522           279.9         121.656 
       0.613639         278.713         118.995 
       0.619772          277.35         116.411 
       0.625918         272.856         113.904 
       0.632068         269.193         111.474 
       0.638161         267.277         109.142 
         0.6443         264.363         106.864 
       0.650464         260.365         104.647 
       0.656582         258.027          102.51 
       0.662703         256.381         100.432 
       0.668861           251.6         98.3987 
       0.675024         250.693         96.4176 
       0.681124         247.517          94.508 
       0.687237         245.478         92.6443 
       0.693381         242.173         90.8214 
       0.699536         240.476         89.0448 
       0.705665         237.939         87.3249 
       0.711789         235.638         85.6545 
       0.717957         233.171         84.0187 
        0.72409         230.307         82.4364 
       0.730186         231.638         80.9054 
       0.736317         227.541         79.4054 
       0.742472         224.881         77.9377 
       0.748622         222.038         76.5077 
        0.75476         222.353         75.1159 
       0.760888         219.406         73.7604 
       0.767043         216.472         72.4326 
       0.773185         215.115         71.1402 
       0.779291         212.222         69.8869 
       0.785407         211.372         68.6622 
       0.791564         209.377         67.4596 
       0.797719         205.985         66.2869 
       0.803834         207.316         65.1499 
       0.809972          204.72         64.0359 
       0.816124         201.577         62.9457 
       0.822261           200.2         61.8842 
       0.828378         199.835         60.8505 
       0.834502         197.053         59.8397 
       0.840667         196.938         58.8454 
       0.846816          193.46         57.8766 
       0.852925         192.888         56.9359 
       0.859047          191.02         56.0142 
       0.865192         190.585           55.11 
       0.871341         188.108         54.2253 
       0.877463         186.479         53.3641 
       0.883569         186.251         52.5239 
       0.889708         184.396         51.6976 
       0.895864         182.702         50.8871 
       0.902008         180.968         50.0957 
       0.908149         179.377         49.3216 
       0.914301         178.471         48.5628 
       0.920448         178.049         47.8207 
       0.926574         175.726         47.0968 
       0.932687         175.238         46.3895 
       0.938823         173.791         45.6942 
       0.944975         172.752         45.0116 
       0.951105         170.974         44.3455 
       0.957225         170.001          43.694 
       0.963368         169.062         43.0535 
       0.969511         166.876         42.4258 
       0.975621         165.543         41.8141 
       0.981748         164.785         41.2129 
       0.987916         164.022         40.6198 
        0.99406         162.782         40.0406 
        1.00019         161.747         39.4739 
        1.00632          160.74         38.9187 
        1.01246         159.578         38.3734 
        1.01859         158.283         37.8395 
        1.02471         157.116         37.3164 
        1.03085         156.067         36.8014 
        1.03698         154.981         36.2973 
        1.04314         154.669         35.8006 
        1.04929         153.753         35.3143 
        1.05541         152.667         34.8391 
        1.06154         151.233         34.3714 
        1.06769          150.39         33.9117 
        1.07382         149.733          33.462 
        1.07993         148.319         33.0214 
        1.08607         147.614          32.587 
        1.09222         146.508           32.16 
        1.09836         145.747         31.7412 
        1.10449         144.589         31.3304 
        1.11063          143.66         30.9264 
        1.11677         142.976         30.5297 
         1.1229          141.83         30.1407 
        1.12903         141.034         29.7581 
        1.13518         140.042         29.3819 
        1.14131         139.402         29.0125 
        1.14745         138.407         28.6496 
        1.15359          137.14         28.2928 
        1.15973         136.774          27.942 
        1.16584         135.956         27.5988 
        1.17197         135.228         27.2608 
        1.17811         133.977         26.9274 
        1.18424         133.405         26.6006 
        1.19038         132.594         26.2783 
        1.19652         131.744         25.9615 
        1.20267         130.871         25.6499 
        1.20881         129.948         25.3435 
        1.21495         129.608         25.0426 
        1.22108         128.649         24.7466 
         1.2272          127.74         24.4561 
        1.23334         127.314         24.1697 
        1.23949         126.722         23.8871 
        1.24562         125.736         23.6099 
        1.25174         125.101         23.3374 
        1.25789         124.102         23.0685 
        1.26402         123.864         22.8043 
        1.27014         122.958         22.5448 
        1.27628         121.833         22.2887 
        1.28244         121.576          22.036 
        1.28858         120.592         21.7876 
        1.29471         119.915         21.5436 
        1.30084         119.115         21.3035 
        1.30697         118.498         21.0668 
        1.31312          117.75         20.8333 
        1.31925         116.909         20.6041 
        1.32537         116.502         20.3786 
        1.33151         116.157         20.1557 
        1.33765         115.012         19.9363 
        1.34378         114.815         19.7205 
        1.34992         114.242         19.5078 
        1.35606         113.445         19.2978 
         1.3622         113.174         19.0912 
        1.36833         111.886         18.8882 
        1.37445         111.757         18.6882 
        1.38059         111.059         18.4906 
        1.38675         110.295         18.2953 
        1.39288         109.563         18.1036 
        1.39901         108.992         17.9148 
        1.40515          108.59         17.7282 
         1.4113         107.894         17.5444 
        1.41742          107.28         17.3638 
        1.42355          106.99         17.1855 
         1.4297         106.085         17.0091 
        1.43585         105.561         16.8353 
        1.44198         104.687         16.6646 
        1.44809         104.141         16.4966 
        1.45423         104.027         16.3302 
        1.46036         103.028         16.1665 
        1.46649         102.505         16.0049 
        1.47263          102.04         15.8455 
        1.47877         101.371         15.6882 
        1.48491         101.018         15.5329 
        1.49104         99.9178           15.38 
        1.49718         99.7579          15.229 
        1.50333         99.3927         15.0798 
        1.50947         98.8047          14.933 
         1.5156         98.3481         14.7883 
        1.52172         97.5826         14.6455 
        1.52787         97.2236         14.5043 
          1.534         96.6485         14.3652 
        1.54013         96.2019          14.228 
        1.54627         95.4534         14.0924 
        1.55241         95.2705         13.9585 
        1.55855         94.5061         13.8266 
        1.56467         93.8807         13.6967 
         1.5708         93.2764         13.5681 
        1.57695         93.0869          13.441 
        1.58308         92.4684         13.3158 
        1.58922         92.4292         13.1921 
        1.59535          91.974         13.0701 
         1.6015         91.1064         12.9494 
        1.60764         90.5752         12.8303 
        1.61376         90.2415          12.713 
        1.61989         89.7244         12.5971 
        1.62604         89.2485         12.4823 
        1.63218         88.8892         12.3691 
        1.63831         88.3292         12.2576 
        1.64444         87.7819         12.1473 
        1.65059         87.3305         12.0382 
        1.65673         87.0812         11.9306 
        1.66285         86.5223         11.8245 
        1.66898         85.9298         11.7197 
        1.67512         85.4722          11.616 
        1.68127         85.1793         11.5134 
         1.6874          84.543         11.4123 
        1.69353         84.1169         11.3124 
        1.69967         83.7441         11.2136 
        1.70581         83.4457         11.1159 
        1.71193           82.88         11.0198 
        1.71806          82.511         10.9246 
        1.72421         81.9963         10.8304 
        1.73035         81.6832         10.7373 
        1.73649         81.1189         10.6454 
        1.74262         80.7451         10.5546 
        1.74876         80.2737         10.4649 
        1.75489         79.9006         10.3763 
        1.76101         79.4714         10.2888 
        1.76715         79.0594         10.2022 
        1.77329         78.6501         10.1165 
        1.77943         78.3709         10.0317 
        1.78557         77.9901         9.94806 
        1.79171          77.475         9.86533 
        1.79785          76.937         9.78352 
        1.80399         76.8663         9.70266 
        1.81012         76.2389         9.62282 
        1.81625         75.8504         9.54392 
        1.82239         75.5297         9.46578 
        1.82853         75.0377         9.38855 
        1.83466         74.6001         9.31226 
        1.84078         74.4113         9.23689 
        1.84692         74.1896         9.16224 
        1.85306          73.733         9.08833 
         1.8592         73.3485         9.01534 
        1.86533         72.9211          8.9432 
        1.87147         72.5539         8.87176 
        1.87761         71.9464         8.80107 
        1.88375          71.777         8.73124 
        1.88988         71.1845         8.66223 
        1.89601         71.1691         8.59394 
        1.90215         70.5631         8.52633 
        1.90829         70.2008         8.45947 
        1.91442         69.8855         8.39333 
        1.92056         69.7301         8.32795 
         1.9267         69.2013          8.2632 
        1.93284          68.957          8.1991 
        1.93897         68.5735          8.1358 
        1.94509         68.2052          8.0733 
        1.95123         67.8961          8.0113 
        1.95737         67.5737         7.94991 
        1.96349         67.2855         7.88932 
        1.96964         66.9084         7.82918 
        1.97578         66.5065         7.76965 
        1.98192         66.0952         7.71085 
        1.98805         65.6456         7.65265 
        1.99419         65.6054         7.59505 
        2.00033         65.0345         7.53802 
        2.00647         64.8034         7.48159 
         2.0126         64.5103         7.42583 
        2.01874         64.3792         7.37055 
        2.02488         63.9917         7.31578 
        2.03101         63.5554         7.26168 
        2.03714         63.3297         7.20817 
        2.04328         63.0319         7.15514 
        2.04941         62.5364         7.10268 
        2.05554         62.3375         7.05079 
        2.06167         61.9854         6.99935 
        2.06781         61.6833         6.94841 
        2.07396         61.4194          6.8979 
        2.08009         61.0663         6.84798 
        2.08622         60.8256         6.79862 
        2.09237         60.5426         6.74964 
        2.09851         59.9944         6.70113 
        2.10464           59.88         6.65319 
        2.11077         59.6764         6.60576 
        2.11691         59.3366          6.5587 
        2.12305         58.9514         6.51209 
        2.12918         58.6775         6.46605 
        2.13531         58.4282         6.42045 
        2.14145         58.0637         6.37518 
         2.1476         57.9691         6.33029 
        2.15372         57.5405         6.28606 
        2.15985         57.2298         6.24221 
        2.16599         56.9737         6.19866 
        2.17213         56.6516         6.15556 
        2.17827         56.3409         6.11288 
         2.1844         56.0551         6.07065 
        2.19054         55.9406          6.0288 
        2.19666         55.7038         5.98741 
         2.2028         55.2542         5.94636 
        2.20893         54.9941         5.90568 
        2.21508          54.634         5.86533 
        2.22122         54.4232         5.82535 
        2.22736         54.1773         5.78582 
        2.23349         53.9247         5.74667 
        2.23962         53.7276         5.70786 
        2.24577          53.367         5.66937 
         2.2519         53.1158         5.63129 
        2.25802         52.8956         5.59362 
        2.26417         52.5858         5.55619 
        2.27031         52.3913         5.51907 
        2.27644          52.176         5.48239 
        2.28257         51.8253         5.44605 
        2.28872         51.6263         5.40997 
        2.29486         51.4209         5.37422 
        2.30099         51.0051         5.33887 
        2.30712          50.907         5.30382 
        2.31326         50.6884         5.26903 
         2.3194         50.3726         5.23457 
        2.32553         50.1375         5.20047 
        2.33166         49.8894         5.16669 
         2.3378         49.6175         5.13317 
        2.34394         49.4033         5.09993 
        2.35007         49.1619         5.06703 
        2.35619         48.9248         5.03446 
        2.36233         48.7051         5.00211 
        2.36848         48.4534         4.96996 
        2.37462          48.152         4.93817 
        2.38075         47.9954         4.90669 
        2.38689         47.7088         4.87545 
        2.39303         47.5425         4.84449 
        2.39916         47.2773         4.81383 
        2.40529         47.1121         4.78344 
        2.41143         46.8831         4.75329 
        2.41757         46.6522         4.72338 
         2.4237         46.4967         4.69379 
        2.42983         46.1981         4.66445 
        2.43598         46.0395         4.63529 
        2.44211         45.6703         4.60642 
        2.44823         45.5567         4.57786 
        2.45437         45.3033         4.54947 
        2.46052         44.9979         4.52129 
        2.46665         44.8235          4.4934 
        2.47279         44.6429         4.46575 
        2.47892         44.4536         4.43832 
        2.48507         44.2821          4.4111 
         2.4912         43.9615         4.38415 
