# k  (h/Mpc)    Pcb(k)  (Mpc/h)^3    Pcb_linear(k)  (Mpc/h)^3
     0.00783031         1426.34         1441.95 
       0.013688          1635.4         1637.72 
       0.019231         1523.23          1522.2 
      0.0249154         1271.71         1277.31 
      0.0312784          991.37         989.543 
      0.0375637          771.02         766.677 
      0.0433917         631.961         630.808 
      0.0492413         552.986         551.182 
      0.0555754          503.34         505.014 
      0.0619321         476.662         474.449 
       0.067871         440.661         442.134 
      0.0738098         397.211         398.574 
      0.0800417         341.767         343.302 
      0.0862327         288.054         287.771 
      0.0921407         243.998         242.712 
      0.0982031         209.794         209.192 
       0.104506         190.351         188.143 
       0.110769         179.321         177.766 
       0.116806         173.234         172.852 
       0.122832          168.93         168.136 
       0.129052         159.672         159.882 
       0.135211         147.165         147.246 
       0.141259           132.8         131.913 
       0.147318         117.807         116.292 
       0.153489         103.968         102.645 
       0.159709         94.1454         92.6421 
       0.165845         88.5643         86.5592 
       0.171974         84.4803         83.3281 
       0.178125          82.696         81.4947 
       0.184229         80.7432         79.5945 
        0.19034         76.9205         76.5623 
       0.196428         73.0232         72.1011 
       0.202534         68.1678         66.5823 
       0.208729          62.122         60.7503 
       0.214876         56.7926         55.5693 
       0.220989         53.1798         51.5381 
       0.227147         49.9963         48.7246 
        0.23329         48.1333         46.9294 
       0.239377         46.9928         45.7107 
       0.245482         45.3463         44.5667 
       0.251667         44.2591         43.1033 
       0.257832         42.2786         41.1837 
       0.263955         40.0803         38.9019 
       0.270079         37.7138         36.4771 
        0.27624         35.7296         34.1772 
       0.282372         33.8536         32.2289 
        0.28843         32.1569         30.7223 
       0.294538         30.9291         29.5839 
       0.300721         30.2017         28.6898 
        0.30691         29.1428         27.8919 
       0.313033          28.267         27.0544 
       0.319153          27.008          26.095 
       0.325316         26.3232         25.0004 
        0.33145         25.0916          23.847 
       0.337538           24.05         22.7232 
       0.343633          22.928         21.6958 
       0.349808           22.13         20.8036 
       0.355968         21.3979         20.0606 
       0.362074         20.7094         19.4429 
       0.368217         20.1116         18.8851 
       0.374374         19.4772         18.3412 
       0.380519         18.9789         17.7777 
       0.386598         18.4092          17.185 
       0.392688         17.8816          16.571 
        0.39888         17.2034         15.9474 
       0.405048         16.6498         15.3546 
       0.411186         16.1308         14.8171 
       0.417313         15.5766         14.3361 
       0.423458         15.1485         13.9055 
       0.429607         14.7144         13.5143 
       0.435692         14.2888         13.1467 
       0.441815          13.942         12.7808 
       0.447964         13.6446         12.4121 
       0.454126         13.1382         12.0394 
       0.460267         12.8233         11.6683 
       0.466387         12.3907         11.3091 
        0.47254         12.1094         10.9673 
       0.478662         11.8452         10.6495 
       0.484765          11.455         10.3544 
       0.490885         11.1805          10.079 
       0.497035         11.0117         9.81787 
       0.503198         10.6915          9.5651 
       0.509342         10.4236         9.31709 
       0.515458         10.1556         9.07321 
       0.521598         9.93215         8.83297 
       0.527764         9.66077         8.59752 
       0.533884         9.48971         8.37121 
           0.54         9.24125         8.15415 
       0.546137         9.04973         7.94716 
       0.552299         8.86087         7.75044 
       0.558452         8.59365         7.56338 
       0.564573         8.44918         7.38411 
       0.570708         8.26645         7.20917 
       0.576825         8.05367         7.03875 
       0.582926         7.89216         6.87294 
       0.589034         7.66787         6.71143 
       0.595184         7.53985         6.55367 
       0.601379         7.35993         6.39988 
       0.607522         7.24092         6.25247 
       0.613639         7.12461         6.11074 
       0.619772         6.92148         5.97377 
       0.625918         6.84492         5.84146 
       0.632068         6.73056          5.7136 
       0.638161         6.55276         5.59087 
         0.6443          6.4162         5.47071 
       0.650464         6.27367          5.3532 
       0.656582         6.20898         5.23944 
       0.662703         6.08175         5.12857 
       0.668861         5.96626         5.02014 
       0.675024         5.84003         4.91479 
       0.681124           5.729         4.81377 
       0.687237         5.63456         4.71573 
       0.693381         5.54198         4.62023 
       0.699536         5.39014          4.5274 
       0.705665         5.32026          4.4376 
       0.711789         5.22458          4.3503 
       0.717957         5.12425         4.26466 
        0.72409         5.03345         4.18166 
       0.730186         4.95556         4.10127 
       0.736317         4.89811         4.02247 
       0.742472         4.81356         3.94542 
       0.748622         4.72264         3.87046 
        0.75476         4.62581         3.79763 
       0.760888         4.55277         3.72684 
       0.767043         4.49235         3.65764 
       0.773185         4.39732         3.59038 
       0.779291         4.35155         3.52523 
       0.785407         4.27627         3.46163 
       0.791564         4.21215         3.39921 
       0.797719         4.13459         3.33838 
       0.803834          4.0965         3.27941 
       0.809972         4.03719         3.22166 
       0.816124         3.95334         3.16517 
       0.822261         3.87969         3.11018 
       0.828378         3.83115         3.05666 
       0.834502         3.79563         3.00436 
       0.840667         3.71347         2.95295 
       0.846816         3.64959         2.90289 
       0.852925         3.61759         2.85431 
       0.859047         3.56093         2.80674 
       0.865192         3.51858          2.7601 
       0.871341         3.47508          2.7145 
       0.877463         3.41976         2.67014 
       0.883569         3.35815         2.62689 
       0.889708         3.30518         2.58438 
       0.895864          3.2585         2.54271 
       0.902008         3.21871         2.50204 
       0.908149         3.18369         2.46229 
       0.914301         3.12725         2.42335 
       0.920448         3.08343         2.38528 
       0.926574         3.03794         2.34817 
       0.932687         3.00045         2.31193 
       0.938823         2.96371         2.27632 
       0.944975         2.92438         2.24139 
       0.951105         2.88868         2.20732 
       0.957225         2.87089         2.17401 
       0.963368         2.82711         2.14128 
       0.969511          2.7831         2.10923 
       0.975621         2.74374           2.078 
       0.981748         2.71438         2.04733 
       0.987916         2.68009         2.01708 
        0.99406         2.63287         1.98756 
        1.00019         2.60329         1.95869 
        1.00632         2.57784         1.93042 
        1.01246         2.54562         1.90267 
        1.01859         2.51167         1.87551 
        1.02471         2.48226         1.84892 
        1.03085         2.45008         1.82275 
        1.03698         2.41694         1.79714 
        1.04314          2.3936         1.77192 
        1.04929         2.36461         1.74724 
        1.05541         2.33549         1.72313 
        1.06154         2.30916         1.69941 
        1.06769         2.29278         1.67611 
        1.07382         2.25405         1.65333 
        1.07993          2.2238         1.63101 
        1.08607         2.21168         1.60902 
        1.09222         2.17981         1.58742 
        1.09836         2.15872         1.56624 
        1.10449          2.1361         1.54546 
        1.11063         2.10458         1.52505 
        1.11677         2.08571         1.50501 
         1.1229         2.06336         1.48537 
        1.12903         2.03657         1.46606 
        1.13518         2.01631         1.44707 
        1.14131          1.9889         1.42844 
        1.14745         1.95902         1.41015 
        1.15359         1.94792         1.39217 
        1.15973         1.91935          1.3745 
        1.16584         1.90645         1.35721 
        1.17197         1.88476          1.3402 
        1.17811         1.87085         1.32343 
        1.18424         1.84919         1.30699 
        1.19038         1.83089         1.29079 
        1.19652         1.80992         1.27486 
        1.20267         1.79282         1.25921 
        1.20881         1.77356         1.24382 
        1.21495         1.75683         1.22871 
        1.22108         1.73914         1.21386 
         1.2272         1.72536         1.19928 
        1.23334         1.70192         1.18491 
        1.23949         1.68313         1.17075 
        1.24562         1.67123         1.15685 
        1.25174         1.65191          1.1432 
        1.25789         1.63761         1.12973 
        1.26402         1.61885          1.1165 
        1.27014         1.60304         1.10352 
        1.27628         1.59316          1.0907 
        1.28244         1.57146         1.07806 
        1.28858         1.56041         1.06564 
        1.29471         1.54131         1.05344 
        1.30084         1.52466         1.04145 
        1.30697         1.51829         1.02962 
        1.31312         1.49309         1.01796 
        1.31925         1.48367         1.00652 
        1.32537         1.46896        0.995262 
        1.33151         1.45979        0.984139 
        1.33765         1.44071        0.973192 
        1.34378         1.43031        0.962434 
        1.34992         1.42027        0.951831 
        1.35606         1.39857        0.941365 
         1.3622         1.39279        0.931075 
        1.36833         1.37797        0.920963 
        1.37445         1.36324        0.911007 
        1.38059         1.35655        0.901168 
        1.38675         1.34734         0.89145 
        1.39288         1.33159        0.881914 
        1.39901         1.31639        0.872522 
        1.40515         1.30616        0.863246 
         1.4113         1.29618        0.854107 
        1.41742         1.28482        0.845136 
        1.42355         1.27649        0.836277 
         1.4297         1.26195        0.827519 
        1.43585         1.25321        0.818889 
        1.44198         1.24484        0.810415 
        1.44809         1.23045        0.802077 
        1.45423         1.22027        0.793826 
        1.46036         1.20897        0.785705 
        1.46649         1.20015        0.777695 
        1.47263         1.18824         0.76979 
        1.47877         1.17806        0.761999 
        1.48491          1.1684        0.754303 
        1.49104         1.15993        0.746729 
        1.49718         1.15156        0.739253 
        1.50333         1.14023        0.731868 
        1.50947         1.13254        0.724598 
         1.5156         1.12228        0.717438 
        1.52172          1.1127        0.710375 
        1.52787         1.10308        0.703392 
          1.534          1.0941        0.696512 
        1.54013         1.08524         0.68973 
        1.54627         1.07626        0.683027 
        1.55241         1.06673        0.676412 
        1.55855            1.06        0.669893 
        1.56467         1.05325        0.663479 
         1.5708         1.04157         0.65713 
        1.57695         1.03632        0.650855 
        1.58308         1.02688        0.644676 
        1.58922         1.01941        0.638573 
        1.59535         1.01163        0.632551 
         1.6015         1.00281        0.626598 
        1.60764        0.997394        0.620725 
        1.61376        0.989879        0.614943 
        1.61989        0.980885         0.60923 
        1.62604        0.972181        0.603577 
        1.63218        0.968832        0.597999 
        1.63831        0.958526        0.592504 
        1.64444        0.951618        0.587076 
        1.65059        0.945543        0.581704 
        1.65673        0.936879        0.576404 
        1.66285        0.930529        0.571185 
        1.66898        0.926313        0.566029 
        1.67512        0.915594        0.560926 
        1.68127        0.909224        0.555882 
         1.6874        0.906564        0.550911 
        1.69353        0.895358        0.546003 
        1.69967        0.888559        0.541144 
        1.70581        0.885878        0.536346 
        1.71193        0.877304        0.531624 
        1.71806        0.873528        0.526948 
        1.72421        0.866236         0.52232 
        1.73035        0.858955        0.517752 
        1.73649        0.854116        0.513239 
        1.74262        0.847652        0.508784 
        1.74876        0.841804        0.504379 
        1.75489        0.833104        0.500035 
        1.76101        0.828682        0.495743 
        1.76715        0.824079        0.491496 
        1.77329        0.818828        0.487293 
        1.77943        0.810775        0.483138 
        1.78557         0.80534        0.479037 
        1.79171        0.802789        0.474982 
        1.79785         0.79468        0.470974 
        1.80399        0.790395        0.467013 
        1.81012         0.78552        0.463103 
        1.81625        0.779798        0.459239 
        1.82239        0.774373        0.455413 
        1.82853        0.766636        0.451633 
        1.83466        0.763508        0.447899 
        1.84078        0.758337        0.444211 
        1.84692        0.754784        0.440559 
        1.85306        0.749056        0.436943 
         1.8592        0.743741        0.433373 
        1.86533        0.738568        0.429846 
        1.87147        0.734286        0.426353 
        1.87761        0.729171        0.422898 
        1.88375        0.723573        0.419484 
        1.88988        0.720876        0.416113 
        1.89601        0.715043        0.412776 
        1.90215        0.708799        0.409473 
        1.90829        0.703534        0.406208 
        1.91442         0.70155        0.402978 
        1.92056        0.696199        0.399786 
         1.9267         0.69119        0.396625 
        1.93284         0.68983        0.393497 
        1.93897        0.682838        0.390408 
        1.94509        0.679253        0.387359 
        1.95123        0.673875        0.384335 
        1.95737        0.670142        0.381341 
        1.96349        0.665698        0.378386 
        1.96964        0.662348        0.375454 
        1.97578         0.65731        0.372552 
        1.98192        0.653975        0.369686 
        1.98805        0.649519         0.36685 
        1.99419        0.647338        0.364043 
        2.00033        0.643943        0.361265 
        2.00647        0.637487        0.358516 
         2.0126        0.634731          0.3558 
        2.01874        0.630267        0.353108 
        2.02488        0.627814        0.350442 
        2.03101         0.62141        0.347808 
        2.03714        0.617748        0.345204 
        2.04328        0.616409        0.342623 
        2.04941        0.611138         0.34007 
        2.05554        0.607654        0.337546 
        2.06167        0.603289        0.335043 
        2.06781        0.600593        0.332566 
        2.07396        0.596521         0.33011 
        2.08009        0.593335        0.327683 
        2.08622        0.589622        0.325283 
        2.09237        0.586725        0.322903 
        2.09851        0.583509        0.320545 
        2.10464        0.580988        0.318216 
        2.11077        0.577017        0.315912 
        2.11691         0.57295        0.313625 
        2.12305         0.57023        0.311362 
        2.12918        0.566898        0.309126 
        2.13531        0.563039        0.306911 
        2.14145        0.560497        0.304713 
         2.1476        0.555912        0.302534 
        2.15372        0.554295        0.300388 
        2.15985        0.549715        0.298259 
        2.16599        0.546927        0.296146 
        2.17213        0.543416        0.294055 
        2.17827        0.542003        0.291985 
         2.1844        0.538771        0.289936 
        2.19054        0.536318        0.287906 
        2.19666        0.532641        0.285899 
         2.2028        0.529469        0.283909 
        2.20893        0.527557        0.281937 
        2.21508        0.524389        0.279981 
        2.22122        0.519184        0.278043 
        2.22736        0.517486        0.276128 
        2.23349        0.516662        0.274231 
        2.23962        0.512122         0.27235 
        2.24577        0.509442        0.270486 
         2.2519        0.506165        0.268642 
        2.25802        0.503578        0.266818 
        2.26417        0.500921        0.265005 
        2.27031        0.498621        0.263208 
        2.27644         0.49578        0.261433 
        2.28257        0.493396        0.259674 
        2.28872        0.490639        0.257927 
        2.29486        0.487685        0.256198 
        2.30099        0.484769        0.254487 
        2.30712        0.482234        0.252792 
        2.31326        0.480722        0.251109 
         2.3194        0.478969        0.249442 
        2.32553        0.476345        0.247793 
        2.33166         0.47268        0.246159 
         2.3378        0.470312        0.244539 
        2.34394        0.467037        0.242932 
        2.35007        0.465346        0.241342 
        2.35619         0.46361        0.239767 
        2.36233         0.45983        0.238204 
        2.36848         0.45807        0.236651 
        2.37462        0.455762        0.235115 
        2.38075        0.454009        0.233594 
        2.38689         0.45141        0.232085 
        2.39303        0.448878         0.23059 
        2.39916        0.446448        0.229109 
        2.40529        0.444542        0.227642 
        2.41143        0.442509        0.226186 
        2.41757        0.440329        0.224743 
         2.4237        0.438536        0.223314 
        2.42983         0.43591        0.221899 
        2.43598        0.434185        0.220491 
        2.44211        0.432394        0.219098 
        2.44823        0.429496        0.217721 
        2.45437        0.427576        0.216351 
        2.46052        0.425998        0.214992 
        2.46665        0.423584        0.213647 
        2.47279        0.421309        0.212313 
        2.47892        0.418457        0.210991 
        2.48507        0.417298        0.209678 
         2.4912        0.414996        0.208379 
