# k  (h/Mpc)    P(k)  (Mpc/h)^3    P_linear(k)  (Mpc/h)^3
     0.00783031         13593.8         13829.5 
       0.013688         15783.9         15682.6 
       0.019231         14608.8         14565.7 
      0.0249154         12024.4         12217.1 
      0.0312784         9427.14         9461.99 
      0.0375637         7394.89         7329.62 
      0.0433917         6007.11         6029.99 
      0.0492413         5289.94         5268.39 
      0.0555754         4750.46         4826.77 
      0.0619321         4583.85         4534.41 
       0.067871         4168.85         4225.42 
      0.0738098         3764.71         3809.01 
      0.0800417         3232.88         3280.72 
      0.0862327         2757.23         2749.99 
      0.0921407         2382.07         2319.35 
      0.0982031         2047.65         1999.01 
       0.104506         1895.05         1797.85 
       0.110769         1775.82         1698.67 
       0.116806         1707.53          1651.7 
       0.122832         1656.18         1606.63 
       0.129052         1543.09         1527.74 
       0.135211         1432.03            1407 
       0.141259         1321.41         1260.47 
       0.147318         1193.68          1111.2 
       0.153489         1061.04         980.797 
       0.159709         981.001         885.215 
       0.165845         932.603         827.086 
       0.171974         889.113         796.213 
       0.178125         859.544         778.694 
       0.184229         831.232         760.534 
        0.19034         780.142         731.562 
       0.196428         755.203         688.933 
       0.202534         717.155         636.197 
       0.208729         665.555          580.47 
       0.214876         621.541         530.962 
       0.220989         591.033         492.446 
       0.227147         562.647         465.564 
        0.23329         540.156         448.411 
       0.239377         529.497         436.764 
       0.245482         495.279         425.833 
       0.251667         490.884         411.848 
       0.257832         470.857         393.505 
       0.263955         451.313         371.704 
       0.270079         429.236         348.537 
        0.27624         419.771         326.562 
       0.282372         402.384         307.944 
        0.28843         389.106         293.548 
       0.294538          369.45         282.671 
       0.300721          366.17         274.129 
        0.30691         349.784         266.504 
       0.313033         341.994           258.5 
       0.319153         329.582         249.334 
       0.325316          320.32         238.876 
        0.33145         308.658         227.855 
       0.337538          302.66         217.117 
       0.343633         291.847         207.301 
       0.349808         281.012         198.775 
       0.355968         277.114         191.675 
       0.362074         271.444         185.774 
       0.368217          263.54         180.445 
       0.374374         252.369         175.247 
       0.380519         249.806         169.865 
       0.386598         242.827           164.2 
       0.392688         239.372         158.335 
        0.39888         232.865         152.374 
       0.405048           226.6         146.711 
       0.411186         221.979         141.574 
       0.417313         217.253         136.979 
       0.423458         212.085         132.865 
       0.429607         208.051         129.127 
       0.435692          201.84         125.615 
       0.441815         199.673         122.118 
       0.447964         195.263         118.596 
       0.454126         188.468         115.034 
       0.460267         185.478         111.488 
       0.466387         182.977         108.056 
        0.47254         178.593         104.791 
       0.478662         177.969         101.754 
       0.484765         171.385         98.9342 
       0.490885         169.009         96.3035 
       0.497035         166.173         93.8076 
       0.503198         162.397         91.3936 
       0.509342         160.505         89.0225 
       0.515458         157.938         86.6928 
       0.521598         154.351         84.3973 
       0.527764         152.552         82.1476 
       0.533884         150.329         79.9852 
           0.54         147.663         77.9115 
       0.546137         146.391         75.9329 
       0.552299         143.341          74.054 
       0.558452         141.797         72.2665 
       0.564573         139.448         70.5535 
       0.570708         136.336         68.8824 
       0.576825         134.626         67.2537 
       0.582926         132.132         65.6695 
       0.589034         130.633         64.1263 
       0.595184         128.991         62.6189 
       0.601379         126.917         61.1495 
       0.607522         124.766          59.741 
       0.613639         123.666         58.3869 
       0.619772         121.134         57.0779 
       0.625918         119.847         55.8139 
       0.632068         118.178         54.5922 
       0.638161         117.168         53.4195 
         0.6443          115.46         52.2715 
       0.650464         114.287         51.1487 
       0.656582         112.282         50.0616 
       0.662703         111.434         49.0024 
       0.668861          109.43         47.9663 
       0.675024         107.938         46.9598 
       0.681124         107.195         45.9945 
       0.687237         105.341         45.0577 
       0.693381         103.687         44.1453 
       0.699536         102.994         43.2583 
       0.705665         102.333         42.4002 
       0.711789         100.436         41.5662 
       0.717957         100.217         40.7479 
        0.72409          98.423         39.9548 
       0.730186          97.005         39.1867 
       0.736317         96.1905         38.4338 
       0.742472         95.3955         37.6976 
       0.748622         94.3349         36.9814 
        0.75476         93.3701         36.2855 
       0.760888         92.2032         35.6091 
       0.767043         91.6738         34.9479 
       0.773185         90.6979         34.3052 
       0.779291         89.0652         33.6827 
       0.785407         88.6604          33.075 
       0.791564         88.0381         32.4787 
       0.797719         86.1637         31.8974 
       0.803834         85.7749          31.334 
       0.809972         84.8866         30.7822 
       0.816124         84.3352         30.2424 
       0.822261          83.566          29.717 
       0.828378         82.8701         29.2057 
       0.834502           82.32          28.706 
       0.840667         81.0716         28.2147 
       0.846816         80.1036         27.7364 
       0.852925         79.5991         27.2722 
       0.859047         78.6434         26.8177 
       0.865192         78.0436         26.3721 
       0.871341         77.3634         25.9364 
       0.877463         76.3584         25.5126 
       0.883569          76.206         25.0993 
       0.889708         75.3504         24.6931 
       0.895864         74.6807         24.2949 
       0.902008         74.0594         23.9064 
       0.908149         73.6089         23.5266 
       0.914301         72.8049         23.1545 
       0.920448         72.2386         22.7908 
       0.926574         71.5779         22.4362 
       0.932687         71.5247         22.0899 
       0.938823         70.3815         21.7497 
       0.944975         69.6247         21.4159 
       0.951105         69.2021         21.0904 
       0.957225         68.5784         20.7721 
       0.963368         67.8714         20.4594 
       0.969511         67.7449         20.1531 
       0.975621         67.2867         19.8548 
       0.981748         66.7052         19.5617 
       0.987916         66.0134         19.2727 
        0.99406         65.5667         18.9907 
        1.00019           65.21         18.7148 
        1.00632         64.5298         18.4447 
        1.01246         64.2131         18.1796 
        1.01859         63.4798         17.9201 
        1.02471         63.0137         17.6659 
        1.03085         62.4817         17.4159 
        1.03698          62.254         17.1712 
        1.04314         61.6622         16.9302 
        1.04929         61.2446         16.6944 
        1.05541         60.5858          16.464 
        1.06154         60.5192         16.2375 
        1.06769         60.0853         16.0148 
        1.07382         59.6589         15.7971 
        1.07993         59.2861         15.5839 
        1.08607         58.7591         15.3738 
        1.09222         58.5805         15.1674 
        1.09836         57.9684          14.965 
        1.10449         57.7183         14.7665 
        1.11063         57.1657         14.5714 
        1.11677         56.8522           14.38 
         1.1229         56.3267         14.1923 
        1.12903         55.8576         14.0078 
        1.13518         55.8617         13.8264 
        1.14131         55.4726         13.6484 
        1.14745         54.9829         13.4736 
        1.15359          54.683         13.3018 
        1.15973         54.2302          13.133 
        1.16584         53.8321         12.9678 
        1.17197         53.5131         12.8053 
        1.17811         53.3047          12.645 
        1.18424         52.7815          12.488 
        1.19038         52.5654         12.3331 
        1.19652         52.2872          12.181 
        1.20267         51.6558         12.0314 
        1.20881         51.5392         11.8844 
        1.21495         51.0998           11.74 
        1.22108         51.0532         11.5981 
         1.2272         50.3477         11.4588 
        1.23334         50.1374         11.3215 
        1.23949         49.9792         11.1862 
        1.24562          49.522         11.0534 
        1.25174         49.3394          10.923 
        1.25789         49.1424         10.7943 
        1.26402         48.6761         10.6679 
        1.27014         48.4216         10.5438 
        1.27628         48.1009         10.4213 
        1.28244         47.8266         10.3006 
        1.28858         47.6685         10.1819 
        1.29471         47.4122         10.0653 
        1.30084         47.1142         9.95073 
        1.30697         46.7633         9.83773 
        1.31312         46.4658         9.72633 
        1.31925         46.1918         9.61699 
        1.32537         46.0065         9.50945 
        1.33151         45.5922         9.40317 
        1.33765         45.4523         9.29858 
        1.34378          45.185         9.19579 
        1.34992         44.8833         9.09448 
        1.35606         44.6621         8.99448 
         1.3622         44.3541         8.89616 
        1.36833         44.1674         8.79955 
        1.37445         43.8811         8.70442 
        1.38059         43.5607         8.61041 
        1.38675         43.3618         8.51756 
        1.39288         43.1359         8.42644 
        1.39901         42.9636          8.3367 
        1.40515         42.6245         8.24807 
         1.4113         42.4388         8.16076 
        1.41742         42.3411         8.07504 
        1.42355         41.9906          7.9904 
         1.4297           41.87         7.90671 
        1.43585         41.6399         7.82425 
        1.44198         41.2754         7.74329 
        1.44809         41.1613         7.66362 
        1.45423         40.9409         7.58478 
        1.46036         40.7415         7.50719 
        1.46649         40.5339         7.43066 
        1.47263         40.2655         7.35513 
        1.47877         39.9943         7.28068 
        1.48491         39.9795         7.20715 
        1.49104         39.6615         7.13478 
        1.49718          39.323         7.06335 
        1.50333         39.3397         6.99279 
        1.50947         39.0631         6.92333 
         1.5156          38.844         6.85491 
        1.52172         38.7096         6.78742 
        1.52787         38.5806         6.72071 
          1.534         38.2402         6.65497 
        1.54013         38.0492         6.59017 
        1.54627         37.9819         6.52613 
        1.55241         37.5688         6.46292 
        1.55855         37.5065         6.40064 
        1.56467         37.2046         6.33935 
         1.5708         37.2252         6.27869 
        1.57695          37.006         6.21873 
        1.58308         36.7699         6.15969 
        1.58922         36.5755         6.10138 
        1.59535          36.472         6.04384 
         1.6015         36.1816         5.98696 
        1.60764         35.9876         5.93085 
        1.61376         35.8445          5.8756 
        1.61989         35.6662         5.82101 
        1.62604         35.4615           5.767 
        1.63218         35.4622          5.7137 
        1.63831         35.1528          5.6612 
        1.64444         35.0157         5.60934 
        1.65059         34.9326         5.55801 
        1.65673         34.6512         5.50737 
        1.66285         34.4328          5.4575 
        1.66898         34.3553         5.40824 
        1.67512         34.1008         5.35948 
        1.68127         33.9747         5.31129 
         1.6874         33.7952         5.26379 
        1.69353         33.6239          5.2169 
        1.69967         33.5023         5.17047 
        1.70581         33.4216         5.12462 
        1.71193         33.2439          5.0795 
        1.71806         32.9176         5.03483 
        1.72421         32.9016         4.99061 
        1.73035         32.7258         4.94696 
        1.73649          32.481         4.90385 
        1.74262         32.3428         4.86128 
        1.74876         32.2073         4.81919 
        1.75489         32.1037         4.77768 
        1.76101         31.9731         4.73668 
        1.76715         31.7945         4.69609 
        1.77329         31.6475         4.65594 
        1.77943         31.4998         4.61623 
        1.78557         31.3208         4.57705 
        1.79171         31.2208         4.53831 
        1.79785         31.0315         4.50001 
        1.80399         31.0084         4.46216 
        1.81012         30.7403          4.4248 
        1.81625         30.6179         4.38788 
        1.82239         30.5004         4.35133 
        1.82853         30.3718         4.31521 
        1.83466         30.1281         4.27953 
        1.84078         29.9739          4.2443 
        1.84692         29.9125          4.2094 
        1.85306         29.7292         4.17485 
         1.8592         29.5911         4.14075 
        1.86533         29.4733         4.10704 
        1.87147         29.3866         4.07367 
        1.87761         29.2286         4.04065 
        1.88375         29.1035         4.00804 
        1.88988         28.9927         3.97582 
        1.89601          28.839         3.94394 
        1.90215         28.7573         3.91238 
        1.90829         28.6617         3.88119 
        1.91442         28.4832         3.85033 
        1.92056         28.2959         3.81983 
         1.9267          28.246         3.78963 
        1.93284          28.005         3.75974 
        1.93897         27.9817         3.73022 
        1.94509         27.8221         3.70109 
        1.95123         27.6933          3.6722 
        1.95737         27.5474         3.64359 
        1.96349         27.4609         3.61536 
        1.96964         27.3573         3.58734 
        1.97578         27.1626         3.55961 
        1.98192          27.087         3.53223 
        1.98805         27.0168         3.50513 
        1.99419         26.8786         3.47832 
        2.00033         26.7269         3.45177 
        2.00647         26.6383          3.4255 
         2.0126         26.4497         3.39955 
        2.01874         26.4208         3.37383 
        2.02488         26.2974         3.34836 
        2.03101         26.1644         3.32319 
        2.03714          26.065         3.29831 
        2.04328         25.9024         3.27365 
        2.04941         25.8171         3.24926 
        2.05554         25.6966         3.22514 
        2.06167         25.6153         3.20123 
        2.06781         25.4545         3.17756 
        2.07396         25.3969         3.15409 
        2.08009         25.2618          3.1309 
        2.08622          25.117         3.10797 
        2.09237         25.0524         3.08523 
        2.09851         24.9379          3.0627 
        2.10464         24.8314         3.04044 
        2.11077         24.7752         3.01843 
        2.11691         24.5884         2.99659 
        2.12305         24.4817         2.97496 
        2.12918          24.386         2.95359 
        2.13531         24.3345         2.93243 
        2.14145         24.1857         2.91143 
         2.1476         24.0879         2.89061 
        2.15372         23.9825          2.8701 
        2.15985         23.9236         2.84977 
        2.16599         23.7911         2.82957 
        2.17213          23.753         2.80959 
        2.17827         23.5616         2.78981 
         2.1844         23.5133         2.77024 
        2.19054         23.4045         2.75085 
        2.19666         23.2881         2.73167 
         2.2028         23.1627         2.71265 
        2.20893         23.1339         2.69381 
        2.21508         23.0463         2.67512 
        2.22122         22.8875         2.65661 
        2.22736         22.8317          2.6383 
        2.23349         22.6953         2.62018 
        2.23962         22.6303         2.60221 
        2.24577         22.5119          2.5844 
         2.2519         22.4381         2.56678 
        2.25802         22.3548         2.54935 
        2.26417          22.247         2.53203 
        2.27031          22.124         2.51486 
        2.27644         22.0435          2.4979 
        2.28257         21.9811         2.48109 
        2.28872         21.9039         2.46441 
        2.29486         21.7911         2.44788 
        2.30099         21.6823         2.43154 
        2.30712         21.6102         2.41533 
        2.31326         21.5372         2.39925 
         2.3194         21.4419         2.38333 
        2.32553         21.3729         2.36757 
        2.33166         21.2601         2.35197 
         2.3378         21.1588         2.33648 
        2.34394         21.0804         2.32113 
        2.35007         21.0086         2.30593 
        2.35619         20.9107         2.29089 
        2.36233         20.8082         2.27595 
        2.36848         20.7456         2.26111 
        2.37462         20.6354         2.24644 
        2.38075         20.5966          2.2319 
        2.38689         20.4893         2.21749 
        2.39303         20.3905          2.2032 
        2.39916         20.2973         2.18906 
        2.40529          20.263         2.17504 
        2.41143         20.1699         2.16113 
        2.41757         20.0757         2.14733 
         2.4237         20.0078         2.13369 
        2.42983         19.8702         2.12016 
        2.43598         19.8256         2.10671 
        2.44211         19.7325          2.0934 
        2.44823         19.6586         2.08024 
        2.45437         19.5613         2.06715 
        2.46052         19.4622         2.05417 
        2.46665         19.4186         2.04131 
        2.47279         19.3616         2.02858 
        2.47892         19.2827         2.01594 
        2.48507         19.1545          2.0034 
         2.4912         19.1152         1.99098 
