# k  (h/Mpc)    P(k)  (Mpc/h)^3    P_linear(k)  (Mpc/h)^3
     0.00783031            3237         3282.79 
       0.013688         3536.26         3538.66 
       0.019231          3154.4          3151.5 
      0.0249154         2522.15         2537.11 
      0.0312784         1887.07         1882.92 
      0.0375637         1421.33         1410.68 
      0.0433917         1142.25         1140.13 
      0.0492413         996.183         991.775 
      0.0555754         906.753         912.164 
      0.0619321         865.587          859.54 
       0.067871         793.922          797.86 
      0.0738098         708.022         710.737 
      0.0800417         597.717         600.598 
      0.0862327         494.999         493.007 
      0.0921407         413.953         409.208 
      0.0982031         352.967         350.132 
       0.104506         322.755          315.93 
       0.110769         306.409         301.309 
       0.116806         297.701         295.278 
       0.122832         290.841         287.714 
       0.129052         272.384         271.931 
       0.135211         248.664         247.384 
       0.141259         222.269         218.398 
       0.147318           195.5         190.065 
       0.153489          171.36          166.54 
       0.159709         155.815          150.38 
       0.165845         147.667         141.399 
       0.171974         141.426         137.173 
       0.178125         139.093         134.778 
       0.184229          135.51         131.532 
        0.19034         127.948         125.763 
       0.196428         121.014         117.346 
       0.202534         112.557         107.321 
       0.208729         102.125         97.2115 
       0.214876         93.3687         88.6756 
       0.220989         87.6864         82.3913 
       0.227147         82.9012         78.2542 
        0.23329         80.0337         75.7139 
       0.239377         78.4145         73.8934 
       0.245482         74.9453         71.9333 
       0.251667         73.2505         69.2467 
       0.257832         69.8005         65.7441 
       0.263955         65.9312          61.733 
       0.270079         61.9281         57.6559 
        0.27624         58.9742         53.9563 
       0.282372         56.1734         50.9539 
        0.28843         53.4403         48.6996 
       0.294538          51.431         47.0099 
       0.300721          50.392         45.6246 
        0.30691         48.4199         44.2952 
       0.313033         46.8912          42.826 
       0.319153         44.6413         41.1427 
       0.325316         43.5181         39.2682 
        0.33145         41.4043         37.3644 
       0.337538         39.8747         35.5728 
       0.343633         38.0724         33.9876 
       0.349808         36.8369         32.6326 
       0.355968         35.7402         31.5067 
       0.362074         34.6135          30.545 
       0.368217          33.548         29.6403 
       0.374374         32.5107         28.7306 
       0.380519         31.6486         27.7757 
       0.386598         30.6839         26.7868 
       0.392688         29.8564         25.7851 
        0.39888         28.7676         24.7929 
       0.405048         27.8722          23.873 
       0.411186         27.0778         23.0487 
       0.417313         26.2016         22.3104 
       0.423458         25.4757         21.6429 
       0.429607         24.7989         21.0217 
       0.435692         23.9749         20.4247 
       0.441815         23.4744         19.8263 
       0.447964         22.9925         19.2251 
       0.454126         22.0425         18.6227 
       0.460267         21.6188         18.0343 
       0.466387         20.9217         17.4741 
        0.47254         20.4918         16.9459 
       0.478662         20.1179         16.4549 
       0.484765         19.4165         15.9977 
       0.490885          18.969         15.5669 
       0.497035         18.7236         15.1527 
       0.503198         18.1569         14.7481 
       0.509342         17.6757         14.3508 
       0.515458           17.27         13.9633 
       0.521598         16.9143         13.5841 
       0.527764         16.4886         13.2154 
       0.533884         16.2205         12.8633 
           0.54         15.7844         12.5273 
       0.546137          15.522         12.2073 
       0.552299         15.2236         11.9015 
       0.558452         14.7391         11.6085 
       0.564573         14.4909         11.3262 
       0.570708         14.2132         11.0502 
       0.576825         13.8615         10.7823 
       0.582926         13.5453         10.5227 
       0.589034          13.204         10.2707 
       0.595184         13.0121         10.0252 
       0.601379         12.7041         9.78632 
       0.607522         12.4723         9.55763 
       0.613639         12.3067         9.33792 
       0.619772         11.9694         9.12551 
       0.625918         11.8769         8.91997 
       0.632068         11.6761         8.72094 
       0.638161           11.39         8.52965 
         0.6443         11.1552         8.34227 
       0.650464         10.9249         8.15916 
       0.656582         10.8366         7.98238 
       0.662703         10.6194         7.81055 
       0.668861         10.4018          7.6428 
       0.675024         10.1996         7.48009 
       0.681124         10.0209         7.32416 
       0.687237         9.84429         7.17268 
       0.693381         9.72191         7.02501 
       0.699536         9.44903         6.88135 
       0.705665         9.38256         6.74232 
       0.711789         9.17521         6.60715 
       0.717957         9.01879          6.4746 
        0.72409         8.87121         6.34629 
       0.730186         8.74482         6.22215 
       0.736317         8.63644         6.10061 
       0.742472         8.48268         5.98187 
       0.748622         8.36506         5.86643 
        0.75476         8.20795         5.75434 
       0.760888         8.06832         5.64542 
       0.767043         7.95433         5.53893 
       0.773185         7.80543         5.43545 
       0.779291         7.74165         5.33523 
       0.785407         7.63973         5.23741 
       0.791564         7.50613         5.14142 
       0.797719         7.32909         5.04789 
       0.803834         7.30866         4.95726 
       0.809972         7.21853         4.86853 
       0.816124         7.06492         4.78177 
       0.822261          6.9494         4.69736 
       0.828378         6.86964         4.61524 
       0.834502         6.80749         4.53501 
       0.840667         6.68262         4.45617 
       0.846816         6.55476         4.37943 
       0.852925         6.49134         4.30498 
       0.859047         6.40402         4.23211 
       0.865192          6.3477         4.16069 
       0.871341         6.26904         4.09087 
       0.877463         6.16759         4.02298 
       0.883569         6.07128          3.9568 
       0.889708         5.96388         3.89177 
       0.895864         5.88771         3.82804 
       0.902008         5.84327         3.76587 
       0.908149         5.77835         3.70513 
       0.914301         5.71459         3.64562 
       0.920448         5.61818         3.58748 
       0.926574         5.54665         3.53082 
       0.932687         5.47233          3.4755 
       0.938823         5.40358         3.42116 
       0.944975         5.33686         3.36787 
       0.951105         5.27085         3.31591 
       0.957225         5.23492         3.26513 
       0.963368         5.17627         3.21524 
       0.969511         5.10397         3.16639 
       0.975621         5.04818         3.11882 
       0.981748         4.97645          3.0721 
       0.987916         4.94029         3.02605 
        0.99406         4.85382         2.98112 
        1.00019         4.78552         2.93719 
        1.00632         4.76314         2.89418 
        1.01246          4.7041         2.85197 
        1.01859         4.62636         2.81067 
        1.02471         4.59735         2.77024 
        1.03085         4.53937         2.73046 
        1.03698         4.47088         2.69155 
        1.04314          4.4369         2.65322 
        1.04929         4.38436         2.61574 
        1.05541          4.3303         2.57913 
        1.06154         4.29081         2.54312 
        1.06769         4.27015         2.50776 
        1.07382         4.20143         2.47317 
        1.07993         4.15042         2.43932 
        1.08607         4.12341         2.40597 
        1.09222         4.07563          2.3732 
        1.09836         4.02465         2.34108 
        1.10449         3.99408          2.3096 
        1.11063         3.93787         2.27866 
        1.11677         3.91344         2.24829 
         1.1229         3.88327         2.21853 
        1.12903         3.82774         2.18929 
        1.13518         3.78098         2.16054 
        1.14131         3.74899         2.13233 
        1.14745         3.70524         2.10464 
        1.15359         3.67973         2.07743 
        1.15973         3.63142          2.0507 
        1.16584         3.59128         2.02455 
        1.17197         3.55754         1.99882 
        1.17811         3.54114         1.97346 
        1.18424         3.49936         1.94862 
        1.19038         3.48048         1.92413 
        1.19652         3.43602         1.90007 
        1.20267         3.40294         1.87642 
        1.20881         3.38747         1.85317 
        1.21495         3.34666         1.83036 
        1.22108         3.30784         1.80793 
         1.2272         3.28225         1.78593 
        1.23334         3.24583         1.76425 
        1.23949         3.21034         1.74288 
        1.24562         3.19281         1.72191 
        1.25174         3.16199         1.70133 
        1.25789         3.13573         1.68101 
        1.26402          3.1136         1.66107 
        1.27014         3.08263         1.64149 
        1.27628         3.05237         1.62217 
        1.28244         3.01702         1.60313 
        1.28858         3.01043         1.58441 
        1.29471         2.96847         1.56604 
        1.30084         2.93664         1.54797 
        1.30697         2.93273         1.53016 
        1.31312         2.88441          1.5126 
        1.31925         2.85858         1.49537 
        1.32537          2.8372         1.47843 
        1.33151         2.82836         1.46169 
        1.33765         2.79067         1.44522 
        1.34378         2.77529         1.42903 
        1.34992         2.75137         1.41308 
        1.35606         2.72006         1.39734 
         1.3622          2.7069         1.38187 
        1.36833         2.67524         1.36667 
        1.37445         2.65638          1.3517 
        1.38059         2.64842         1.33691 
        1.38675         2.62327         1.32231 
        1.39288          2.6068         1.30798 
        1.39901         2.57187         1.29387 
        1.40515         2.55595         1.27994 
         1.4113         2.53711         1.26622 
        1.41742         2.51518         1.25275 
        1.42355         2.49224         1.23945 
         1.4297         2.48009          1.2263 
        1.43585         2.46188         1.21335 
        1.44198          2.4463         1.20064 
        1.44809         2.42306         1.18813 
        1.45423         2.40317         1.17575 
        1.46036         2.38056         1.16357 
        1.46649         2.36874         1.15156 
        1.47263         2.34508         1.13971 
        1.47877         2.32846         1.12803 
        1.48491         2.31209         1.11649 
        1.49104         2.29598         1.10514 
        1.49718         2.27792         1.09394 
        1.50333         2.26513         1.08287 
        1.50947         2.24086         1.07198 
         1.5156         2.22816         1.06126 
        1.52172         2.21382         1.05068 
        1.52787         2.19674         1.04022 
          1.534         2.17616         1.02992 
        1.54013         2.16378         1.01977 
        1.54627         2.14853         1.00974 
        1.55241         2.12937        0.999837 
        1.55855         2.11746        0.990083 
        1.56467         2.10317        0.980486 
         1.5708         2.08909        0.970988 
        1.57695         2.07275        0.961602 
        1.58308         2.05191        0.952361 
        1.58922          2.0482        0.943235 
        1.59535          2.0338        0.934231 
         1.6015         2.01342        0.925332 
        1.60764         2.00018        0.916553 
        1.61376          1.9902        0.907911 
        1.61989         1.97343        0.899374 
        1.62604         1.96275        0.890927 
        1.63218         1.95534        0.882594 
        1.63831         1.93269        0.874386 
        1.64444         1.92581        0.866279 
        1.65059         1.90406        0.858256 
        1.65673         1.90022        0.850342 
        1.66285          1.8833         0.84255 
        1.66898         1.87242        0.834853 
        1.67512         1.85959        0.827237 
        1.68127         1.84749        0.819708 
         1.6874         1.83715         0.81229 
        1.69353          1.8192        0.804967 
        1.69967         1.81337        0.797717 
        1.70581         1.80241        0.790559 
        1.71193         1.78659        0.783516 
        1.71806         1.77821        0.776543 
        1.72421         1.76663        0.769641 
        1.73035         1.75559         0.76283 
        1.73649         1.74489        0.756103 
        1.74262         1.73144        0.749462 
        1.74876         1.72472        0.742896 
        1.75489         1.71143        0.736422 
        1.76101         1.69857        0.730027 
        1.76715         1.69297        0.723698 
        1.77329         1.68138        0.717437 
        1.77943         1.66714        0.711247 
        1.78557         1.65576        0.705139 
        1.79171         1.65102        0.699101 
        1.79785         1.63845        0.693133 
        1.80399         1.62981        0.687235 
        1.81012         1.61684        0.681414 
        1.81625          1.6117        0.675662 
        1.82239         1.60131        0.669968 
        1.82853         1.58804        0.664342 
        1.83466         1.57825        0.658786 
        1.84078         1.57424        0.653299 
        1.84692         1.56537        0.647865 
        1.85306         1.55201        0.642487 
         1.8592         1.54233        0.637177 
        1.86533          1.5338        0.631931 
        1.87147         1.52534        0.626737 
        1.87761         1.51651        0.621599 
        1.88375         1.50679        0.616525 
        1.88988         1.50212        0.611512 
        1.89601         1.48909        0.606552 
        1.90215         1.47863        0.601644 
        1.90829         1.47077        0.596791 
        1.91442         1.46484        0.591992 
        1.92056         1.45665        0.587249 
         1.9267         1.44597        0.582554 
        1.93284         1.44042        0.577907 
        1.93897         1.43243        0.573319 
        1.94509         1.42546         0.56879 
        1.95123          1.4162        0.564299 
        1.95737         1.40479        0.559853 
        1.96349         1.40237        0.555466 
        1.96964         1.39497        0.551112 
        1.97578         1.38171        0.546804 
        1.98192         1.37733         0.54255 
        1.98805          1.3692        0.538341 
        1.99419         1.36319        0.534176 
        2.00033         1.35591        0.530052 
        2.00647         1.34807        0.525974 
         2.0126         1.34431        0.521944 
        2.01874         1.33217        0.517951 
        2.02488         1.32496        0.513996 
        2.03101         1.31824        0.510089 
        2.03714         1.31121        0.506227 
        2.04328         1.30293          0.5024 
        2.04941         1.29559        0.498615 
        2.05554         1.28961        0.494872 
        2.06167         1.28307        0.491163 
        2.06781         1.27932         0.48749 
        2.07396          1.2722         0.48385 
        2.08009          1.2654        0.480253 
        2.08622         1.25899        0.476697 
        2.09237         1.24817        0.473169 
        2.09851         1.24611        0.469677 
        2.10464         1.24078        0.466225 
        2.11077          1.2302        0.462812 
        2.11691         1.22481        0.459425 
        2.12305         1.21984        0.456072 
        2.12918         1.21453        0.452761 
        2.13531         1.20696        0.449482 
        2.14145          1.2018        0.446228 
         2.1476         1.19394        0.443002 
        2.15372         1.18822        0.439823 
        2.15985         1.18473        0.436673 
        2.16599         1.17534        0.433545 
        2.17213         1.16853         0.43045 
        2.17827         1.16613        0.427387 
         2.1844         1.16028        0.424355 
        2.19054         1.15361        0.421352 
        2.19666         1.14802        0.418382 
         2.2028         1.14222        0.415439 
        2.20893         1.13668        0.412521 
        2.21508         1.13148        0.409629 
        2.22122         1.12485        0.406763 
        2.22736         1.12031         0.40393 
        2.23349         1.11538        0.401125 
        2.23962         1.10809        0.398345 
        2.24577         1.10548        0.395589 
         2.2519         1.10205        0.392863 
        2.25802         1.09559        0.390166 
        2.26417          1.0903        0.387487 
        2.27031         1.08469        0.384831 
        2.27644          1.0784        0.382207 
        2.28257         1.06964        0.379608 
        2.28872         1.06974        0.377028 
        2.29486         1.06233        0.374472 
        2.30099         1.05723        0.371945 
        2.30712         1.05279         0.36944 
        2.31326         1.04754        0.366954 
         2.3194         1.04376        0.364492 
        2.32553         1.04067        0.362057 
        2.33166         1.03527        0.359645 
         2.3378         1.02886        0.357252 
        2.34394         1.02298        0.354879 
        2.35007         1.01956        0.352531 
        2.35619          1.0157        0.350208 
        2.36233         1.00947        0.347899 
        2.36848         1.00533        0.345607 
        2.37462         1.00276         0.34334 
        2.38075        0.996995        0.341095 
        2.38689        0.993416        0.338869 
        2.39303        0.987454        0.336663 
        2.39916        0.983896        0.334478 
        2.40529        0.979304        0.332313 
        2.41143        0.974531        0.330166 
        2.41757        0.971196        0.328036 
         2.4237        0.968015        0.325929 
        2.42983        0.962658        0.323841 
        2.43598         0.95759        0.321766 
        2.44211        0.953246        0.319711 
        2.44823        0.949943         0.31768 
        2.45437        0.945166         0.31566 
        2.46052        0.942927        0.313656 
        2.46665        0.937669        0.311673 
        2.47279        0.933094        0.309708 
        2.47892        0.928793        0.307758 
        2.48507        0.927563        0.305823 
         2.4912        0.919209        0.303909 
