# k  (h/Mpc)    P(k)  (Mpc/h)^3    P_linear(k)  (Mpc/h)^3
     0.00783031         699.135          707.02 
       0.013688          827.45         829.853 
       0.019231         808.961         809.271 
      0.0249154         720.666         723.657 
      0.0312784         606.885         606.721 
      0.0375637         505.308         503.752 
      0.0433917         431.623         431.485 
      0.0492413         381.939         381.113 
      0.0555754         343.916         344.775 
      0.0619321         319.444         318.092 
       0.067871         294.247         294.861 
      0.0738098         268.828         269.449 
      0.0800417         239.089         240.022 
      0.0862327         210.292         210.311 
      0.0921407         184.846         184.486 
      0.0982031         162.846         162.795 
       0.104506         147.267         146.224 
       0.110769         135.891         135.076 
       0.116806         127.853          127.72 
       0.122832         122.301         121.812 
       0.129052         115.462         115.541 
       0.135211         108.139         108.214 
       0.141259          100.28         99.9074 
       0.147318         91.8477          91.125 
       0.153489         83.1612         82.6287 
       0.159709         75.9446          75.313 
       0.165845         70.7605         69.6895 
       0.171974          66.146           65.58 
       0.178125         63.2391         62.5703 
       0.184229         60.8718         60.1441 
        0.19034         58.0248         57.7636 
       0.196428         55.6689         55.1074 
       0.202534         52.9781         52.0693 
       0.208729         49.4518         48.7399 
       0.214876         46.0237         45.4514 
       0.220989         43.3461          42.456 
       0.227147         40.5055         39.8888 
        0.23329         38.4474         37.8228 
       0.239377         36.9103         36.1928 
       0.245482         35.3093         34.8306 
       0.251667         34.3061         33.5658 
       0.257832         32.9475          32.287 
       0.263955         31.6286         30.9303 
       0.270079         30.1947         29.4924 
        0.27624         28.9088         28.0208 
       0.282372         27.5135         26.6091 
        0.28843         26.1203         25.3331 
       0.294538         24.9828         24.2013 
       0.300721         24.1425         23.2164 
        0.30691         23.1168         22.3592 
       0.313033         22.3611         21.5932 
       0.319153         21.4224         20.8613 
       0.325316         20.9555         20.1267 
        0.33145         20.1549         19.3825 
       0.337538         19.4252         18.6386 
       0.343633         18.6261         17.9046 
       0.349808         17.9875         17.1949 
       0.355968         17.3349         16.5374 
       0.362074         16.7074          15.943 
       0.368217         16.1741         15.4005 
       0.374374         15.6077         14.9008 
       0.380519         15.1923         14.4329 
       0.386598         14.7685         13.9869 
       0.392688         14.3738         13.5483 
        0.39888         13.8946         13.1085 
       0.405048         13.4828         12.6774 
       0.411186         13.0805         12.2611 
       0.417313         12.6285         11.8639 
       0.423458          12.273         11.4872 
       0.429607         11.8863         11.1339 
       0.435692         11.5366         10.8063 
       0.441815           11.24         10.4945 
       0.447964         10.9977         10.1957 
       0.454126         10.6209         9.90712 
       0.460267          10.366         9.62738 
       0.466387         10.0404         9.35542 
        0.47254         9.81651         9.08979 
       0.478662         9.58972         8.83425 
       0.484765         9.29043         8.58915 
       0.490885         9.05574         8.35396 
       0.497035         8.90643         8.12877 
       0.503198         8.64646         7.91346 
       0.509342         8.43484         7.70772 
       0.515458         8.22016         7.51059 
       0.521598         8.03855         7.31943 
       0.527764         7.82302         7.13347 
       0.533884          7.6817         6.95421 
           0.54         7.48833         6.78036 
       0.546137         7.32794         6.61152 
       0.552299         7.17001         6.44794 
       0.558452         6.96122         6.29064 
       0.564573         6.83978         6.13981 
       0.570708         6.68891           5.994 
       0.576825         6.51683         5.85371 
       0.582926         6.39604         5.71849 
       0.589034         6.21537          5.5874 
       0.595184          6.1051          5.4594 
       0.601379         5.96517         5.33424 
       0.607522         5.87009         5.21375 
       0.613639         5.77459         5.09737 
       0.619772         5.61174          4.9843 
       0.625918         5.53495          4.8746 
       0.632068         5.44066         4.76832 
       0.638161         5.30518         4.66627 
         0.6443         5.19443         4.56655 
       0.650464         5.07866         4.46939 
       0.656582         5.01583         4.37573 
       0.662703         4.91675         4.28471 
       0.668861         4.83143         4.19574 
       0.675024         4.72543         4.10923 
       0.681124         4.63132         4.02603 
       0.687237         4.56114         3.94497 
       0.693381         4.48144         3.86578 
       0.699536         4.36155         3.78863 
       0.705665         4.29801         3.71394 
       0.711789         4.22686         3.64134 
       0.717957         4.14516          3.5702 
        0.72409         4.07199         3.50137 
       0.730186         4.00303         3.43479 
       0.736317         3.95993         3.36959 
       0.742472         3.89011         3.30585 
       0.748622          3.8126         3.24383 
        0.75476          3.7354         3.18353 
       0.760888         3.67733         3.12486 
       0.767043         3.63283         3.06744 
       0.773185         3.55467         3.01159 
       0.779291         3.51186         2.95745 
       0.785407         3.44985         2.90456 
       0.791564         3.39894         2.85264 
       0.797719         3.34505         2.80202 
       0.803834          3.3036         2.75295 
       0.809972          3.2531         2.70489 
       0.816124         3.18934         2.65787 
       0.822261         3.13031          2.6121 
       0.828378         3.09033         2.56755 
       0.834502         3.05911           2.524 
       0.840667         2.99114         2.48119 
       0.846816         2.94451         2.43949 
       0.852925         2.91778         2.39902 
       0.859047         2.87327         2.35938 
       0.865192         2.83221         2.32051 
       0.871341         2.79605         2.28249 
       0.877463         2.75681          2.2455 
       0.883569         2.70547         2.20942 
       0.889708         2.66486         2.17396 
       0.895864         2.62946         2.13918 
       0.902008         2.58887         2.10524 
       0.908149         2.56007         2.07205 
       0.914301          2.5106         2.03953 
       0.920448          2.4795         2.00774 
       0.926574         2.44277         1.97673 
       0.932687         2.41221         1.94645 
       0.938823         2.38657          1.9167 
       0.944975         2.35242          1.8875 
       0.951105         2.32411         1.85902 
       0.957225         2.30549         1.83117 
       0.963368         2.26975          1.8038 
       0.969511         2.23474         1.77699 
       0.975621         2.20055         1.75087 
       0.981748         2.18024         1.72521 
       0.987916         2.14932         1.69991 
        0.99406         2.11377          1.6752 
        1.00019         2.09397         1.65104 
        1.00632         2.06577         1.62738 
        1.01246         2.04115         1.60415 
        1.01859         2.01671          1.5814 
        1.02471         1.98929         1.55913 
        1.03085         1.96743         1.53721 
        1.03698          1.9395         1.51576 
        1.04314         1.92032         1.49463 
        1.04929         1.89446         1.47395 
        1.05541         1.87339         1.45374 
        1.06154         1.85034         1.43387 
        1.06769         1.83199         1.41433 
        1.07382         1.80607         1.39523 
        1.07993         1.78005         1.37652 
        1.08607         1.77006         1.35807 
        1.09222         1.74414         1.33995 
        1.09836         1.73019         1.32218 
        1.10449         1.70946         1.30475 
        1.11063         1.68412         1.28761 
        1.11677         1.66551         1.27079 
         1.1229         1.64786          1.2543 
        1.12903         1.62733         1.23809 
        1.13518          1.6132         1.22215 
        1.14131         1.59008          1.2065 
        1.14745         1.56409         1.19113 
        1.15359         1.55561         1.17603 
        1.15973         1.53146         1.16118 
        1.16584         1.52486         1.14666 
        1.17197         1.50586         1.13236 
        1.17811          1.4917         1.11827 
        1.18424         1.47804         1.10445 
        1.19038         1.45889         1.09083 
        1.19652         1.44216         1.07744 
        1.20267         1.43129         1.06428 
        1.20881         1.41146         1.05134 
        1.21495         1.40043         1.03864 
        1.22108         1.38599         1.02615 
         1.2272         1.37537         1.01389 
        1.23334         1.35684         1.00181 
        1.23949         1.34156        0.989891 
        1.24562         1.33167        0.978202 
        1.25174         1.31647        0.966718 
        1.25789         1.30418        0.955384 
        1.26402         1.28715        0.944252 
        1.27014         1.27509        0.933324 
        1.27628         1.26882        0.922537 
        1.28244         1.24953        0.911899 
        1.28858         1.23955        0.901442 
        1.29471         1.22691        0.891173 
        1.30084         1.21325        0.881074 
        1.30697         1.20429        0.871115 
        1.31312         1.18632        0.861296 
        1.31925         1.18013        0.851659 
        1.32537         1.16865        0.842179 
        1.33151         1.15926        0.832809 
        1.33765         1.14557        0.823587 
        1.34378         1.13329        0.814523 
        1.34992         1.12719        0.805588 
        1.35606         1.11167        0.796768 
         1.3622         1.10498        0.788095 
        1.36833         1.09367        0.779572 
        1.37445         1.08078        0.771179 
        1.38059         1.07294        0.762884 
        1.38675         1.06891        0.754691 
        1.39288         1.05427         0.74665 
        1.39901         1.04417        0.738731 
        1.40515         1.03589        0.730908 
         1.4113         1.02612        0.723201 
        1.41742         1.01687        0.715635 
        1.42355         1.01274        0.708163 
         1.4297        0.998471        0.700775 
        1.43585        0.991175        0.693495 
        1.44198        0.986216        0.686346 
        1.44809        0.972857        0.679311 
        1.45423        0.965301        0.672349 
        1.46036        0.956978        0.665497 
        1.46649        0.948759        0.658738 
        1.47263        0.940194        0.652067 
        1.47877          0.9308        0.645491 
        1.48491        0.923374        0.638996 
        1.49104         0.91563        0.632604 
        1.49718        0.910196        0.626294 
        1.50333        0.900125         0.62006 
        1.50947        0.894867        0.613924 
         1.5156        0.885967        0.607879 
        1.52172        0.878473        0.601916 
        1.52787        0.870275        0.596021 
          1.534         0.86489        0.590212 
        1.54013        0.855528        0.584486 
        1.54627        0.848405        0.578825 
        1.55241        0.841076        0.573238 
        1.55855         0.83509        0.567733 
        1.56467        0.830225        0.562314 
         1.5708        0.820364        0.556951 
        1.57695        0.816707         0.55165 
        1.58308        0.810003         0.54643 
        1.58922        0.802687        0.541273 
        1.59535        0.796605        0.536185 
         1.6015        0.790185        0.531154 
        1.60764        0.785085        0.526191 
        1.61376        0.777626        0.521304 
        1.61989        0.772301        0.516476 
        1.62604        0.765159        0.511698 
        1.63218        0.761811        0.506983 
        1.63831        0.753862        0.502338 
        1.64444        0.747911         0.49775 
        1.65059        0.743403        0.493208 
        1.65673        0.736016        0.488727 
        1.66285        0.730907        0.484314 
        1.66898        0.727865        0.479955 
        1.67512        0.719212         0.47564 
        1.68127        0.713857        0.471375 
         1.6874        0.711132        0.467171 
        1.69353        0.703566        0.463021 
        1.69967        0.698081        0.458911 
        1.70581        0.694647        0.454853 
        1.71193         0.68852        0.450859 
        1.71806        0.684742        0.446905 
        1.72421        0.678816         0.44299 
        1.73035        0.672964        0.439126 
        1.73649        0.669855        0.435309 
        1.74262         0.66464        0.431541 
        1.74876        0.659051        0.427814 
        1.75489        0.653195        0.424139 
        1.76101        0.649279        0.420508 
        1.76715        0.644948        0.416915 
        1.77329        0.640907        0.413359 
        1.77943        0.634982        0.409843 
        1.78557        0.630541        0.406373 
        1.79171        0.627513        0.402942 
        1.79785        0.622272         0.39955 
        1.80399        0.618083        0.396198 
        1.81012        0.614628        0.392888 
        1.81625        0.609499        0.389618 
        1.82239        0.605891         0.38638 
        1.82853        0.599211         0.38318 
        1.83466        0.596534        0.380019 
        1.84078        0.591559        0.376897 
        1.84692        0.589251        0.373805 
        1.85306        0.585023        0.370744 
         1.8592        0.581503        0.367722 
        1.86533        0.577035        0.364735 
        1.87147        0.573233        0.361778 
        1.87761        0.569295        0.358852 
        1.88375        0.564016        0.355962 
        1.88988         0.56193        0.353106 
        1.89601        0.557123        0.350281 
        1.90215        0.553957        0.347484 
        1.90829        0.549596        0.344719 
        1.91442        0.546151        0.341983 
        1.92056        0.543251         0.33928 
         1.9267        0.538776        0.336603 
        1.93284        0.536632        0.333953 
        1.93897        0.532297        0.331336 
        1.94509        0.529111        0.328754 
        1.95123        0.525118        0.326192 
        1.95737        0.522286        0.323655 
        1.96349        0.517852        0.321152 
        1.96964         0.51551        0.318668 
        1.97578        0.511748        0.316209 
        1.98192        0.509581        0.313781 
        1.98805        0.505114        0.311379 
        1.99419        0.502716        0.309001 
        2.00033         0.50063        0.306646 
        2.00647         0.49603        0.304317 
         2.0126        0.493183        0.302016 
        2.01874        0.490404        0.299735 
        2.02488        0.487943        0.297476 
        2.03101        0.483237        0.295244 
        2.03714        0.479861        0.293037 
        2.04328         0.47875         0.29085 
        2.04941        0.475248        0.288687 
        2.05554        0.471949        0.286547 
        2.06167        0.469074        0.284426 
        2.06781        0.465535        0.282327 
        2.07396        0.462417        0.280245 
        2.08009        0.460228        0.278188 
        2.08622        0.457225        0.276154 
        2.09237        0.455803        0.274136 
        2.09851        0.452884        0.272137 
        2.10464        0.450288        0.270162 
        2.11077        0.447231        0.268209 
        2.11691        0.444161        0.266271 
        2.12305        0.441657        0.264352 
        2.12918        0.439365        0.262456 
        2.13531        0.436234        0.260578 
        2.14145         0.43414        0.258715 
         2.1476        0.430998        0.256867 
        2.15372        0.429616        0.255047 
        2.15985        0.425938        0.253243 
        2.16599        0.423116         0.25145 
        2.17213        0.421245        0.249678 
        2.17827        0.419677        0.247922 
         2.1844        0.417432        0.246185 
        2.19054        0.414915        0.244464 
        2.19666        0.411748        0.242761 
         2.2028        0.409603        0.241074 
        2.20893         0.40761        0.239401 
        2.21508        0.405503        0.237742 
        2.22122         0.40159        0.236099 
        2.22736        0.399958        0.234474 
        2.23349        0.398926        0.232865 
        2.23962        0.396297        0.231271 
        2.24577        0.392963        0.229689 
         2.2519        0.391495        0.228125 
        2.25802        0.389046        0.226577 
        2.26417         0.38666         0.22504 
        2.27031        0.384481        0.223515 
        2.27644        0.382918        0.222009 
        2.28257        0.380886        0.220517 
        2.28872        0.378525        0.219036 
        2.29486        0.376276        0.217568 
        2.30099        0.374152        0.216117 
        2.30712        0.372458        0.214679 
        2.31326        0.370332        0.213251 
         2.3194        0.369438        0.211837 
        2.32553         0.36715        0.210438 
        2.33166        0.365112        0.209052 
         2.3378         0.36304        0.207677 
        2.34394        0.359933        0.206314 
        2.35007        0.358691        0.204964 
        2.35619        0.356992        0.203629 
        2.36233         0.35421        0.202302 
        2.36848        0.353137        0.200984 
        2.37462        0.350579        0.199681 
        2.38075        0.349912         0.19839 
        2.38689        0.347503         0.19711 
        2.39303         0.34626        0.195841 
        2.39916        0.343353        0.194585 
        2.40529        0.342239        0.193339 
        2.41143        0.340647        0.192104 
        2.41757        0.338797        0.190879 
         2.4237        0.337148        0.189667 
        2.42983        0.335487        0.188465 
        2.43598        0.333784         0.18727 
        2.44211        0.332371        0.186088 
        2.44823        0.330592        0.184919 
        2.45437        0.328354        0.183756 
        2.46052         0.32761        0.182603 
        2.46665         0.32527        0.181461 
        2.47279        0.323597        0.180329 
        2.47892        0.321624        0.179207 
        2.48507        0.320414        0.178093 
         2.4912        0.319042         0.17699 
