# k  (h/Mpc)    P(k)  (Mpc/h)^3    P_linear(k)  (Mpc/h)^3
     0.00783031         1124.79         1133.87 
       0.013688         1434.63         1451.36 
       0.019231         1498.63         1506.34 
      0.0249154         1420.57         1420.67 
      0.0312784         1251.21         1252.91 
      0.0375637         1080.75         1083.84 
      0.0433917         957.709         956.108 
      0.0492413         861.693         862.885 
      0.0555754          795.47         793.656 
      0.0619321         735.863         742.102 
       0.067871         694.862         696.702 
      0.0738098         645.062         645.972 
      0.0800417         586.133         585.473 
      0.0862327         521.936         522.363 
      0.0921407           465.4         465.718 
      0.0982031         418.347         416.648 
       0.104506         377.147         378.036 
       0.110769         350.955         351.422 
       0.116806         335.452         333.714 
       0.122832         319.269         319.728 
       0.129052         305.726         305.214 
       0.135211         289.939         288.277 
       0.141259          269.26         268.751 
       0.147318         246.981         247.605 
       0.153489         227.354         226.609 
       0.159709         210.055         208.066 
       0.165845         193.464           193.5 
       0.171974         185.293         182.714 
       0.178125         177.209         174.839 
       0.184229         169.638         168.636 
        0.19034         164.863         162.691 
       0.196428         158.065         156.064 
       0.202534         148.721         148.348 
       0.208729         141.707         139.683 
       0.214876         133.974         130.917 
       0.220989         124.237         122.772 
       0.227147         119.083         115.698 
        0.23329         113.625         109.984 
       0.239377         109.469         105.525 
       0.245482         105.226         101.884 
       0.251667         101.224         98.5719 
       0.257832         98.9692         95.2319 
       0.263955         94.3745         91.6271 
       0.270079         90.5035         87.7052 
        0.27624         85.9997         83.5929 
       0.282372         82.3278         79.5687 
        0.28843         79.8742         75.8927 
       0.294538         76.3158         72.6281 
       0.300721         72.9578         69.8164 
        0.30691          71.283         67.4172 
       0.313033          68.779         65.3143 
       0.319153         67.5121         63.3224 
       0.325316         64.5258         61.3066 
        0.33145         62.3768         59.2236 
       0.337538         60.4115         57.0926 
       0.343633         58.5009         54.9474 
       0.349808         56.3161         52.8479 
       0.355968         54.3308         50.8931 
       0.362074          53.062         49.1381 
       0.368217         51.3961         47.5547 
       0.374374         50.3154         46.1196 
       0.380519          48.338         44.7915 
       0.386598          46.943         43.5253 
       0.392688         45.5761         42.2706 
        0.39888         44.5995         40.9911 
       0.405048         43.4244         39.7147 
       0.411186         42.1464          38.467 
       0.417313         40.9149         37.2663 
       0.423458         39.6278         36.1267 
       0.429607         38.8975         35.0659 
       0.435692         38.1271         34.0902 
       0.441815         36.7453         33.1697 
       0.447964         35.6529         32.2934 
       0.454126         35.0436         31.4459 
       0.460267         34.5859          30.617 
       0.466387         33.5636         29.8035 
        0.47254         32.9676         29.0008 
       0.478662         31.9674         28.2211 
       0.484765          31.246         27.4696 
       0.490885         30.3424         26.7493 
       0.497035         29.7111         26.0626 
       0.503198         29.0986         25.4085 
       0.509342         28.3005         24.7859 
       0.515458         27.9046         24.1911 
       0.521598         27.2645         23.6139 
       0.527764          26.863         23.0495 
       0.533884         26.1141         22.5011 
           0.54          25.626         21.9661 
       0.546137         24.8628         21.4444 
       0.552299         24.4326         20.9379 
       0.558452         23.9154         20.4503 
       0.564573         23.5964         19.9829 
       0.570708         23.0289         19.5319 
       0.576825         22.6485          19.099 
       0.582926         22.2047         18.6822 
       0.589034         21.7838         18.2777 
       0.595184         21.4947         17.8814 
       0.601379         20.9146         17.4921 
       0.607522         20.5645         17.1159 
       0.613639         20.1513         16.7516 
       0.619772          19.841         16.3974 
       0.625918         19.4265         16.0536 
       0.632068         19.2191         15.7205 
       0.638161         18.8246         15.4005 
         0.6443          18.489         15.0875 
       0.650464         18.0428         14.7824 
       0.656582         17.9131          14.488 
       0.662703         17.6681         14.2015 
       0.668861         17.1912         13.9212 
       0.675024         16.9408         13.6481 
       0.681124         16.8764         13.3851 
       0.687237         16.5089         13.1284 
       0.693381         16.1084         12.8772 
       0.699536         16.0241         12.6322 
       0.705665         15.7231         12.3947 
       0.711789         15.4131         12.1637 
       0.717957         15.1031         11.9372 
        0.72409         14.9666         11.7179 
       0.730186         14.8606         11.5056 
       0.736317         14.5346         11.2976 
       0.742472         14.3539          11.094 
       0.748622         14.1301         10.8956 
        0.75476         13.7737         10.7025 
       0.760888          13.693         10.5144 
       0.767043         13.4283         10.3301 
       0.773185         13.2676         10.1506 
       0.779291         13.1837          9.9764 
       0.785407         12.9254          9.8061 
       0.791564         12.7863         9.63874 
       0.797719         12.5321         9.47543 
       0.803834         12.4418         9.31699 
       0.809972         12.2098         9.16167 
       0.816124         12.0642         9.00959 
       0.822261         11.9198         8.86143 
       0.828378         11.7562         8.71709 
       0.834502         11.6269         8.57588 
       0.840667         11.5061         8.43694 
       0.846816         11.2669         8.30149 
       0.852925         11.1769         8.16992 
       0.859047         11.0341         8.04095 
       0.865192         10.8797         7.91438 
       0.871341         10.7286         7.79049 
       0.877463         10.6026         7.66984 
       0.883569         10.5115         7.55207 
       0.889708          10.347         7.43621 
       0.895864         10.2199         7.32251 
       0.902008         10.0841         7.21145 
       0.908149         9.95129         7.10278 
       0.914301         9.87595          6.9962 
       0.920448         9.73945         6.89192 
       0.926574         9.68336         6.79016 
       0.932687         9.52173          6.6907 
       0.938823         9.38599         6.59288 
       0.944975         9.31707         6.49682 
       0.951105         9.17466         6.40303 
       0.957225         9.12042         6.31128 
       0.963368         9.00485         6.22102 
       0.969511          8.9023         6.13254 
       0.975621         8.79806         6.04628 
       0.981748         8.66122         5.96147 
       0.987916         8.59014         5.87777 
        0.99406         8.53127           5.796 
        1.00019         8.44355         5.71597 
        1.00632         8.36122         5.63753 
        1.01246         8.25101         5.56047 
        1.01859          8.1586         5.48498 
        1.02471         8.04486           5.411 
        1.03085         8.01417         5.33813 
        1.03698         7.92613         5.26678 
        1.04314         7.84269         5.19644 
        1.04929         7.72951         5.12756 
        1.05541         7.67073         5.06022 
        1.06154         7.60371         4.99394 
        1.06769         7.56723         4.92875 
        1.07382         7.43286         4.86495 
        1.07993          7.3556         4.80244 
        1.08607         7.31903         4.74078 
        1.09222         7.21945         4.68015 
        1.09836         7.20615         4.62066 
        1.10449         7.05806         4.56229 
        1.11063          7.0358         4.50487 
        1.11677         6.97581         4.44846 
         1.1229          6.9066         4.39313 
        1.12903         6.85665         4.33871 
        1.13518         6.75219         4.28516 
        1.14131         6.69585         4.23256 
        1.14745          6.6161         4.18088 
        1.15359         6.56666         4.13006 
        1.15973         6.50182         4.08007 
        1.16584         6.45316         4.03113 
        1.17197         6.38883         3.98294 
        1.17811         6.32849         3.93539 
        1.18424         6.27576         3.88877 
        1.19038         6.22713         3.84277 
        1.19652         6.18258         3.79753 
        1.20267         6.12838         3.75303 
        1.20881         6.06387         3.70926 
        1.21495         6.01386         3.66626 
        1.22108         5.96778         3.62395 
         1.2272         5.89878         3.58242 
        1.23334         5.88977         3.54144 
        1.23949         5.81416         3.50102 
        1.24562         5.77144         3.46134 
        1.25174         5.73403         3.42234 
        1.25789         5.65116         3.38383 
        1.26402         5.62138         3.34598 
        1.27014         5.58212         3.30881 
        1.27628         5.52074          3.2721 
        1.28244         5.49643         3.23587 
        1.28858         5.46109         3.20025 
        1.29471         5.38471         3.16525 
        1.30084         5.34175         3.13081 
        1.30697         5.32115         3.09683 
        1.31312         5.27159         3.06331 
        1.31925         5.22799         3.03039 
        1.32537         5.19636           2.998 
        1.33151         5.14673         2.96597 
        1.33765         5.10819         2.93443 
        1.34378         5.08795         2.90341 
        1.34992         5.03886         2.87282 
        1.35606         5.00447         2.84261 
         1.3622         4.96489          2.8129 
        1.36833         4.91812         2.78368 
        1.37445         4.87512         2.75489 
        1.38059           4.843         2.72643 
        1.38675         4.80683          2.6983 
        1.39288         4.78306         2.67068 
        1.39901         4.72978         2.64347 
        1.40515         4.70459         2.61658 
         1.4113          4.6704         2.59007 
        1.41742         4.63416         2.56404 
        1.42355         4.59752         2.53831 
         1.4297          4.5739         2.51287 
        1.43585         4.54215         2.48778 
        1.44198         4.50413         2.46314 
        1.44809         4.48341         2.43887 
        1.45423         4.44742         2.41485 
        1.46036         4.41891          2.3912 
        1.46649         4.37603         2.36785 
        1.47263         4.36227          2.3448 
        1.47877         4.33077         2.32207 
        1.48491         4.29809         2.29961 
        1.49104          4.2673         2.27749 
        1.49718         4.24494         2.25565 
        1.50333         4.21054         2.23406 
        1.50947         4.17396          2.2128 
         1.5156         4.15819         2.19185 
        1.52172         4.13217         2.17117 
        1.52787         4.10455         2.15072 
          1.534         4.07787         2.13056 
        1.54013         4.04988         2.11068 
        1.54627         4.02169         2.09102 
        1.55241         3.98884         2.07161 
        1.55855         3.97394         2.05248 
        1.56467         3.94703         2.03364 
         1.5708         3.92077         2.01498 
        1.57695         3.88411         1.99653 
        1.58308         3.86007         1.97836 
        1.58922         3.84963          1.9604 
        1.59535         3.81944         1.94268 
         1.6015          3.7895         1.92515 
        1.60764         3.77446         1.90784 
        1.61376         3.74561          1.8908 
        1.61989          3.7168         1.87395 
        1.62604         3.69491         1.85727 
        1.63218         3.68186         1.84081 
        1.63831         3.66601         1.82458 
        1.64444         3.63559         1.80855 
        1.65059         3.61998         1.79267 
        1.65673         3.58887           1.777 
        1.66285         3.56951         1.76156 
        1.66898         3.54879         1.74631 
        1.67512         3.52251          1.7312 
        1.68127         3.50129         1.71626 
         1.6874         3.49366         1.70153 
        1.69353         3.45568         1.68698 
        1.69967         3.44291         1.67257 
        1.70581         3.42648         1.65833 
        1.71193          3.3959         1.64432 
        1.71806         3.38228         1.63043 
        1.72421         3.36552         1.61668 
        1.73035         3.34212         1.60311 
        1.73649         3.32694          1.5897 
        1.74262         3.30844         1.57645 
        1.74876         3.29004         1.56334 
        1.75489         3.27039         1.55041 
        1.76101         3.24773         1.53763 
        1.76715         3.23921         1.52498 
        1.77329         3.21498         1.51246 
        1.77943         3.19646         1.50007 
        1.78557         3.18016         1.48784 
        1.79171         3.16725         1.47574 
        1.79785         3.14865         1.46378 
        1.80399         3.12765         1.45195 
        1.81012         3.11072         1.44027 
        1.81625         3.09133         1.42873 
        1.82239         3.07948         1.41729 
        1.82853         3.06133         1.40599 
        1.83466          3.0363         1.39482 
        1.84078          3.0231         1.38378 
        1.84692         3.00896         1.37285 
        1.85306         2.99443         1.36202 
         1.8592         2.97964         1.35133 
        1.86533         2.96328         1.34076 
        1.87147         2.94944         1.33029 
        1.87761         2.93733         1.31992 
        1.88375         2.91839         1.30968 
        1.88988          2.9051         1.29957 
        1.89601         2.88259         1.28955 
        1.90215         2.86741         1.27963 
        1.90829         2.86303         1.26982 
        1.91442         2.84028         1.26011 
        1.92056         2.83326         1.25052 
         1.9267         2.81814         1.24101 
        1.93284         2.80414          1.2316 
        1.93897         2.78125          1.2223 
        1.94509         2.77412         1.21312 
        1.95123         2.75805         1.20401 
        1.95737         2.74829         1.19499 
        1.96349          2.7304         1.18609 
        1.96964         2.71873         1.17725 
        1.97578          2.7046         1.16849 
        1.98192         2.68571         1.15985 
        1.98805         2.68078         1.15129 
        1.99419         2.66396         1.14281 
        2.00033         2.64543         1.13442 
        2.00647         2.64256         1.12612 
         2.0126         2.62846         1.11791 
        2.01874         2.61661         1.10977 
        2.02488         2.60043         1.10171 
        2.03101         2.58742         1.09374 
        2.03714          2.5807         1.08586 
        2.04328         2.56528         1.07805 
        2.04941         2.55427         1.07032 
        2.05554         2.54336         1.06267 
        2.06167         2.52654         1.05509 
        2.06781         2.51835         1.04758 
        2.07396         2.50517         1.04014 
        2.08009         2.49827         1.03278 
        2.08622         2.48376          1.0255 
        2.09237          2.4782         1.01827 
        2.09851         2.45722         1.01112 
        2.10464         2.45286         1.00404 
        2.11077         2.44456        0.997043 
        2.11691         2.42634        0.990096 
        2.12305         2.41555        0.983215 
        2.12918         2.40392        0.976416 
        2.13531          2.3946        0.969682 
        2.14145         2.38661        0.962995 
         2.1476         2.36832        0.956364 
        2.15372         2.36033         0.94983 
        2.15985         2.35002         0.94335 
        2.16599         2.34407        0.936912 
        2.17213          2.3338        0.930541 
        2.17827         2.31994        0.924232 
         2.1844         2.30943        0.917987 
        2.19054         2.30055        0.911797 
        2.19666         2.29093        0.905674 
         2.2028         2.27774        0.899602 
        2.20893         2.27085        0.893583 
        2.21508          2.2631        0.887612 
        2.22122         2.25118        0.881694 
        2.22736         2.23896        0.875842 
        2.23349         2.22908        0.870046 
        2.23962          2.2251        0.864299 
        2.24577         2.21213        0.858598 
         2.2519         2.20097        0.852958 
        2.25802         2.19589        0.847377 
        2.26417         2.18576        0.841831 
        2.27031         2.17518         0.83633 
        2.27644         2.16778        0.830894 
        2.28257         2.15445        0.825507 
        2.28872         2.14981        0.820157 
        2.29486          2.1388        0.814856 
        2.30099         2.12748        0.809614 
        2.30712         2.12449        0.804415 
        2.31326         2.11362        0.799253 
         2.3194          2.1033         0.79414 
        2.32553         2.09829         0.78908 
        2.33166         2.09198        0.784066 
         2.3378         2.08104         0.77909 
        2.34394         2.07061        0.774155 
        2.35007         2.05811         0.76927 
        2.35619         2.05549        0.764434 
        2.36233          2.0469        0.759628 
        2.36848         2.03887        0.754853 
        2.37462         2.03119         0.75013 
        2.38075         2.02318        0.745452 
        2.38689         2.01684        0.740809 
        2.39303         2.00945        0.736208 
        2.39916         1.99733         0.73165 
        2.40529         1.99167        0.727132 
        2.41143         1.98469        0.722648 
        2.41757         1.97825          0.7182 
         2.4237         1.96824        0.713799 
        2.42983         1.96113        0.709434 
        2.43598          1.9559        0.705095 
        2.44211         1.94614        0.700799 
        2.44823         1.93952        0.696549 
        2.45437         1.93162        0.692322 
        2.46052         1.92477        0.688127 
        2.46665         1.91846        0.683975 
        2.47279         1.90811        0.679858 
        2.47892           1.903        0.675772 
        2.48507         1.89373        0.671717 
         2.4912         1.88994        0.667702 
