# k  (h/Mpc)    Pcb(k)  (Mpc/h)^3    Pcb_linear(k)  (Mpc/h)^3
     0.00783031         3750.46          3781.9 
       0.013688         4247.02         4310.59 
       0.019231          3978.5          4004.6 
      0.0249154         3377.89         3364.06 
      0.0312784         2631.15         2626.78 
      0.0375637         2067.53         2070.73 
      0.0433917         1749.37         1741.35 
      0.0492413          1551.7         1552.14 
      0.0555754         1444.44          1437.2 
      0.0619321         1328.91         1344.65 
       0.067871         1233.48          1235.9 
      0.0738098         1096.83         1095.68 
      0.0800417         938.853         932.199 
      0.0862327          786.55         781.978 
      0.0921407         676.339         670.135 
      0.0982031         604.203         593.865 
       0.104506         552.338         549.908 
       0.110769         530.777         527.922 
       0.116806           518.3          511.92 
       0.122832         490.952          489.17 
       0.129052         457.698         453.337 
       0.135211         416.864         408.179 
       0.141259         368.949         361.892 
       0.147318         326.776         321.132 
       0.153489         297.884         290.022 
       0.159709          279.83         269.961 
       0.165845          263.28         258.689 
       0.171974          260.57           251.6 
       0.178125         251.936         244.294 
       0.184229         238.718         233.898 
        0.19034         227.184         219.641 
       0.196428         211.593         202.944 
       0.202534         192.031         186.083 
       0.208729         181.108         171.125 
       0.214876         170.808         159.677 
       0.220989         159.895         151.697 
       0.227147          156.39         146.199 
        0.23329         151.558         141.876 
       0.239377         147.791         137.443 
       0.245482         141.041         132.042 
       0.251667         133.616         125.449 
       0.257832         129.188         118.202 
       0.263955          120.35         111.086 
       0.270079         113.963         104.705 
        0.27624         108.393          99.413 
       0.282372         104.557         95.2787 
        0.28843         102.874         92.0188 
       0.294538         98.8146         89.1564 
       0.300721          94.875         86.2723 
        0.30691         92.8175         83.1535 
       0.313033         88.7178         79.7778 
       0.319153         86.4088         76.2577 
       0.325316         82.2789          72.769 
        0.33145         78.9453         69.5708 
       0.337538         76.0634         66.7736 
       0.343633         73.8319         64.3688 
       0.349808         71.3346         62.2485 
       0.355968         69.2991          60.319 
       0.362074         67.9346         58.4672 
       0.368217         65.8908         56.5728 
       0.374374         64.1209         54.6297 
       0.380519         61.3603         52.6694 
       0.386598         59.4932          50.772 
       0.392688          57.469         48.9786 
        0.39888         56.3467         47.2972 
       0.405048          54.883         45.7761 
       0.411186         53.4002         44.3952 
       0.417313         51.8965         43.1034 
       0.423458         50.3814         41.8577 
       0.429607         49.4266          40.636 
       0.435692         48.5975         39.4336 
       0.441815         46.7128         38.2376 
       0.447964         45.1877         37.0702 
       0.454126         44.3434         35.9495 
       0.460267         43.8145         34.8909 
       0.466387         42.5306         33.9013 
        0.47254         41.8895         32.9671 
       0.478662         40.4519         32.0842 
       0.484765         39.6132         31.2363 
       0.490885         38.4367          30.411 
       0.497035          37.895         29.6029 
       0.503198         37.0634         28.8121 
       0.509342          35.983         28.0441 
       0.515458         35.4283         27.3059 
       0.521598         34.5607         26.5961 
       0.527764         34.0324         25.9159 
       0.533884         33.3744           25.27 
           0.54         32.6327         24.6499 
       0.546137         31.6706         24.0495 
       0.552299         31.0627         23.4666 
       0.558452          30.377         22.9025 
       0.564573         30.1033         22.3572 
       0.570708         29.3014         21.8257 
       0.576825         28.9068         21.3116 
       0.582926         28.3971         20.8154 
       0.589034          27.793         20.3363 
       0.595184         27.4359         19.8715 
       0.601379          26.701           19.42 
       0.607522         26.1856         18.9871 
       0.613639         25.8346          18.569 
       0.619772         25.3163         18.1618 
       0.625918         24.8693         17.7651 
       0.632068         24.6042         17.3795 
       0.638161         24.0899         17.0088 
         0.6443         23.7404         16.6464 
       0.650464         23.1222         16.2939 
       0.656582         22.9844         15.9546 
       0.662703         22.6401         15.6252 
       0.668861         22.0654         15.3034 
       0.675024         21.7778         14.9906 
       0.681124         21.6536         14.6895 
       0.687237         21.2012         14.3961 
       0.693381         20.7581         14.1093 
       0.699536         20.6244         13.8298 
       0.705665         20.2164         13.5592 
       0.711789         19.8906         13.2962 
       0.717957         19.4829         13.0385 
        0.72409         19.2831         12.7892 
       0.730186         19.1782         12.5481 
       0.736317         18.7673         12.3119 
       0.742472         18.5452         12.0811 
       0.748622         18.2486         11.8564 
        0.75476         17.8008          11.638 
       0.760888         17.7565         11.4254 
       0.767043         17.4165         11.2173 
       0.773185         17.1983         11.0148 
       0.779291          17.003         10.8185 
       0.785407         16.7603         10.6267 
       0.791564          16.636         10.4384 
       0.797719          16.237         10.2549 
       0.803834         16.1807         10.0769 
       0.809972         15.8572         9.90258 
       0.816124         15.6916         9.73206 
       0.822261         15.5054         9.56605 
       0.828378         15.3468         9.40447 
       0.834502         15.1741         9.24651 
       0.840667         14.9954         9.09121 
       0.846816         14.6755         8.93994 
       0.852925           14.63         8.79311 
       0.859047          14.443         8.64929 
       0.865192         14.2371         8.50824 
       0.871341         14.0652         8.37028 
       0.877463          13.882         8.23603 
       0.883569         13.7902         8.10509 
       0.889708         13.5665         7.97635 
       0.895864         13.3896         7.85011 
       0.902008         13.2536         7.72689 
       0.908149         13.0584          7.6064 
       0.914301         12.9707         7.48832 
       0.920448         12.8041         7.37287 
       0.926574         12.7121         7.26028 
       0.932687         12.5133          7.1503 
       0.938823         12.3382         7.04222 
       0.944975          12.272         6.93615 
       0.951105         12.1344         6.83266 
       0.957225         12.0359         6.73147 
       0.963368         11.8486           6.632 
       0.969511         11.7275         6.53456 
       0.975621         11.6271         6.43961 
       0.981748         11.4737         6.34631 
       0.987916         11.3952         6.25429 
        0.99406         11.2414         6.16445 
        1.00019         11.1647         6.07656 
        1.00632          11.086         5.99048 
        1.01246         10.9311         5.90596 
        1.01859         10.8275         5.82321 
        1.02471         10.7047         5.74216 
        1.03085         10.6437         5.66238 
        1.03698         10.5498          5.5843 
        1.04314         10.4094         5.50737 
        1.04929         10.2841         5.43208 
        1.05541         10.2178          5.3585 
        1.06154         10.1257         5.28612 
        1.06769         10.0396         5.21498 
        1.07382         9.90375         5.14539 
        1.07993         9.82207         5.07723 
        1.08607         9.75805         5.01004 
        1.09222         9.63951         4.94401 
        1.09836         9.57057         4.87925 
        1.10449         9.48198         4.81574 
        1.11063         9.42619          4.7533 
        1.11677         9.35723         4.69199 
         1.1229         9.25425         4.63188 
        1.12903         9.16981         4.57278 
        1.13518         9.07419         4.51467 
        1.14131         9.01488         4.45761 
        1.14745         8.87999         4.40157 
        1.15359         8.80065         4.34649 
        1.15973         8.74693         4.29234 
        1.16584         8.66179         4.23936 
        1.17197         8.57648         4.18721 
        1.17811         8.52109         4.13578 
        1.18424         8.46015         4.08536 
        1.19038         8.41794         4.03565 
        1.19652         8.31629         3.98678 
        1.20267         8.27626         3.93873 
        1.20881          8.1627         3.89149 
        1.21495         8.11691         3.84509 
        1.22108         8.05338         3.79947 
         1.2272         7.98164         3.75469 
        1.23334         7.94849         3.71054 
        1.23949         7.86763           3.667 
        1.24562          7.7998         3.62428 
        1.25174         7.76071         3.58231 
        1.25789         7.67395         3.54088 
        1.26402         7.62562         3.50018 
        1.27014         7.58969         3.46022 
        1.27628         7.49874         3.42078 
        1.28244         7.47897         3.38187 
        1.28858         7.39589         3.34363 
        1.29471         7.32098         3.30606 
        1.30084         7.26726         3.26911 
        1.30697         7.24076         3.23268 
        1.31312         7.17863         3.19674 
        1.31925         7.13573         3.16148 
        1.32537         7.06979         3.12678 
        1.33151         7.01659         3.09248 
        1.33765         6.97115         3.05872 
        1.34378         6.94961         3.02553 
        1.34992         6.88047         2.99281 
        1.35606          6.8155         2.96051 
         1.3622           6.764         2.92875 
        1.36833         6.74062         2.89753 
        1.37445          6.6845         2.86679 
        1.38059         6.62339          2.8364 
        1.38675         6.59374         2.80638 
        1.39288         6.54379         2.77691 
        1.39901         6.48387         2.74789 
        1.40515         6.44729         2.71921 
         1.4113         6.40173         2.69096 
        1.41742         6.37404         2.66322 
        1.42355         6.31041         2.63582 
         1.4297         6.26774         2.60873 
        1.43585         6.24018         2.58202 
        1.44198         6.20966          2.5558 
        1.44809         6.15639         2.52999 
        1.45423         6.11093         2.50445 
        1.46036         6.07486          2.4793 
        1.46649          6.0372         2.45449 
        1.47263         5.99823         2.43001 
        1.47877         5.95013         2.40587 
        1.48491         5.93542         2.38202 
        1.49104         5.88806         2.35854 
        1.49718         5.85639         2.33537 
        1.50333         5.81253         2.31247 
        1.50947         5.77613         2.28993 
         1.5156         5.74768         2.26772 
        1.52172         5.69865          2.2458 
        1.52787          5.6866         2.22414 
          1.534         5.63415         2.20278 
        1.54013         5.61472         2.18174 
        1.54627         5.56769         2.16092 
        1.55241         5.52256         2.14038 
        1.55855         5.50947         2.12014 
        1.56467         5.49053         2.10021 
         1.5708         5.43283         2.08049 
        1.57695         5.39959         2.06099 
        1.58308         5.36697         2.04178 
        1.58922         5.34708         2.02281 
        1.59535          5.3227         2.00409 
         1.6015         5.25961         1.98558 
        1.60764         5.24004         1.96731 
        1.61376         5.21783         1.94933 
        1.61989          5.1797         1.93155 
        1.62604         5.16584         1.91396 
        1.63218         5.13143          1.8966 
        1.63831         5.09965          1.8795 
        1.64444         5.06154          1.8626 
        1.65059         5.03525         1.84587 
        1.65673         5.01947         1.82936 
        1.66285         4.98528          1.8131 
        1.66898         4.96885         1.79704 
        1.67512         4.93917         1.78114 
        1.68127         4.88833         1.76542 
         1.6874         4.87741         1.74992 
        1.69353         4.83681         1.73463 
        1.69967         4.82136         1.71947 
        1.70581         4.79082         1.70451 
        1.71193         4.76452         1.68978 
        1.71806          4.7376          1.6752 
        1.72421         4.71208         1.66075 
        1.73035         4.69702          1.6465 
        1.73649         4.67372         1.63242 
        1.74262         4.63136         1.61851 
        1.74876         4.62301         1.60475 
        1.75489         4.59996         1.59119 
        1.76101         4.55681         1.57779 
        1.76715         4.55738         1.56452 
        1.77329         4.52287         1.55139 
        1.77943         4.48732          1.5384 
        1.78557         4.48748         1.52559 
        1.79171         4.45458         1.51291 
        1.79785         4.44001         1.50038 
        1.80399         4.40911           1.488 
        1.81012         4.38569         1.47577 
        1.81625         4.36142         1.46369 
        1.82239         4.34432         1.45172 
        1.82853         4.31114         1.43989 
        1.83466          4.2844         1.42821 
        1.84078         4.26832         1.41667 
        1.84692         4.25139         1.40523 
        1.85306         4.23031         1.39392 
         1.8592         4.21483         1.38274 
        1.86533         4.19219         1.37169 
        1.87147          4.1767         1.36075 
        1.87761         4.15273         1.34993 
        1.88375         4.13187         1.33924 
        1.88988         4.11368         1.32867 
        1.89601          4.0847         1.31821 
        1.90215         4.06925         1.30786 
        1.90829         4.05682         1.29763 
        1.91442         4.03558          1.2875 
        1.92056         4.02353         1.27749 
         1.9267         3.99632         1.26758 
        1.93284         3.97899         1.25776 
        1.93897         3.95566         1.24807 
        1.94509         3.92166         1.23851 
        1.95123         3.92543         1.22902 
        1.95737          3.9063         1.21962 
        1.96349         3.88356         1.21035 
        1.96964         3.85874         1.20114 
        1.97578          3.8471         1.19203 
        1.98192         3.82785         1.18303 
        1.98805         3.81384         1.17412 
        1.99419         3.79694         1.16531 
        2.00033         3.77068         1.15658 
        2.00647         3.76587         1.14794 
         2.0126         3.74729          1.1394 
        2.01874         3.72392         1.13094 
        2.02488         3.71725         1.12256 
        2.03101          3.6898         1.11428 
        2.03714          3.6704         1.10609 
        2.04328         3.65955         1.09798 
        2.04941         3.63957         1.08995 
        2.05554         3.62741         1.08201 
        2.06167         3.62001         1.07413 
        2.06781         3.59682         1.06634 
        2.07396         3.57891         1.05861 
        2.08009          3.5637         1.05097 
        2.08622         3.55783         1.04342 
        2.09237         3.53922         1.03592 
        2.09851         3.51687          1.0285 
        2.10464         3.50801         1.02116 
        2.11077         3.48846         1.01391 
        2.11691         3.47655         1.00671 
        2.12305         3.46337        0.999574 
        2.12918          3.4474        0.992529 
        2.13531         3.43504        0.985551 
        2.14145         3.41696        0.978624 
         2.1476         3.40058        0.971756 
        2.15372         3.38523        0.964989 
        2.15985         3.37856        0.958279 
        2.16599         3.36323        0.951614 
        2.17213         3.35941         0.94502 
        2.17827         3.32972        0.938489 
         2.1844          3.3261        0.932027 
        2.19054         3.31307        0.925624 
        2.19666         3.29686        0.919289 
         2.2028         3.27431        0.913009 
        2.20893         3.27535        0.906784 
        2.21508         3.25193        0.900611 
        2.22122         3.23811        0.894493 
        2.22736         3.22214        0.888445 
        2.23349         3.21076        0.882455 
        2.23962         3.20055        0.876516 
        2.24577         3.18675        0.870628 
         2.2519         3.18668        0.864802 
        2.25802         3.15107        0.859038 
        2.26417         3.14742        0.853311 
        2.27031         3.13453        0.847632 
        2.27644         3.12605         0.84202 
        2.28257         3.11125         0.83646 
        2.28872         3.09659         0.83094 
        2.29486         3.08577        0.825471 
        2.30099         3.07769        0.820062 
        2.30712         3.06156        0.814699 
        2.31326         3.05421        0.809376 
         2.3194         3.03562        0.804103 
        2.32553         3.02853        0.798886 
        2.33166         3.01509        0.793718 
         2.3378         3.00725        0.788588 
        2.34394         2.98987        0.783503 
        2.35007         2.98121        0.778469 
        2.35619         2.97565        0.773486 
        2.36233         2.95944        0.768535 
        2.36848          2.9477        0.763617 
        2.37462         2.93995        0.758753 
        2.38075         2.92787        0.753936 
        2.38689         2.92011        0.749156 
        2.39303         2.90495        0.744419 
        2.39916         2.89602        0.739729 
        2.40529          2.8824        0.735079 
        2.41143         2.88035        0.730465 
        2.41757         2.86722         0.72589 
         2.4237         2.85649        0.721362 
        2.42983         2.84292        0.716873 
        2.43598         2.83646        0.712411 
        2.44211         2.81989        0.707994 
        2.44823         2.81182        0.703625 
        2.45437          2.8019         0.69928 
        2.46052         2.79636        0.694969 
        2.46665         2.78186        0.690702 
        2.47279         2.77224        0.686472 
        2.47892         2.76337        0.682274 
        2.48507         2.75319        0.678108 
         2.4912          2.7424        0.673985 
