# k  (h/Mpc)    P(k)  (Mpc/h)^3    P_linear(k)  (Mpc/h)^3
     0.00783031         2300.23         2330.46 
       0.013688          2749.4         2751.11 
       0.019231         2677.54         2676.41 
      0.0249154         2362.54          2379.3 
      0.0312784         1979.38         1980.89 
      0.0375637         1644.74         1638.34 
      0.0433917         1402.42         1404.76 
      0.0492413         1248.89         1246.92 
      0.0555754         1128.34         1135.56 
      0.0619321         1058.13         1052.02 
       0.067871         970.069         974.708 
      0.0738098         882.149         886.637 
      0.0800417         778.007         784.165 
      0.0862327          681.59         682.742 
      0.0921407         599.658         597.454 
      0.0982031          528.89         528.719 
       0.104506         484.696         478.677 
       0.110769         451.009         446.404 
       0.116806         426.249         424.965 
       0.122832         409.099          406.08 
       0.129052         383.563         383.837 
       0.135211         357.068         356.922 
       0.141259         330.051         326.962 
       0.147318         301.567          296.59 
       0.153489         272.697         268.713 
       0.159709         251.097         246.054 
       0.165845         236.768         229.575 
       0.171974         222.734          217.95 
       0.178125         214.247         209.231 
       0.184229         206.612          201.43 
        0.19034         195.097         192.879 
       0.196428         187.356          182.92 
       0.202534         178.146         171.718 
       0.208729         165.685         159.997 
       0.214876         154.086         149.064 
       0.220989         146.431         139.664 
       0.227147         137.424         132.001 
        0.23329         131.428         126.003 
       0.239377         127.231         121.189 
       0.245482         120.971         116.882 
       0.251667         118.108         112.517 
       0.257832         113.419         107.853 
       0.263955          108.46         102.882 
       0.270079         103.462         97.7667 
        0.27624         99.7074         92.7645 
       0.282372         95.2326         88.1993 
        0.28843         90.7861         84.2387 
       0.294538          87.066          80.812 
       0.300721         84.9299         77.8175 
        0.30691         81.3012         75.1193 
       0.313033         78.7749         72.5735 
       0.319153         75.1353          70.027 
       0.325316         73.7264         67.4152 
        0.33145          70.702         64.7891 
       0.337538         68.6002         62.2271 
       0.343633         65.8865          59.785 
       0.349808         63.7807         57.4942 
       0.355968         61.8651         55.4204 
       0.362074         59.8134         53.5536 
       0.368217         58.0003         51.8283 
       0.374374          56.198         50.1969 
       0.380519         54.7775          48.621 
       0.386598         53.2266         47.0891 
       0.392688          51.997         45.5709 
        0.39888         50.3423         44.0591 
       0.405048         49.0087         42.6042 
       0.411186         47.7268         41.2245 
       0.417313         46.1464         39.9296 
       0.423458         44.9216         38.7134 
       0.429607         43.6941         37.5693 
       0.435692         42.3077         36.4977 
       0.441815         41.5625         35.4641 
       0.447964         40.7989         34.4579 
       0.454126         39.1357         33.4768 
       0.460267         38.4459         32.5257 
       0.466387         37.2999         31.6056 
        0.47254         36.6493         30.7136 
       0.478662         35.9869          29.864 
       0.484765         34.8632          29.056 
       0.490885         34.0635         28.2823 
       0.497035         33.6041         27.5387 
       0.503198         32.6722         26.8241 
       0.509342         31.8262         26.1373 
       0.515458           31.14         25.4748 
       0.521598         30.5878         24.8292 
       0.527764         29.9116         24.2008 
       0.533884         29.3947         23.5975 
           0.54          28.713         23.0151 
       0.546137         28.2452         22.4512 
       0.552299         27.7604         21.9056 
       0.558452         26.8993         21.3813 
       0.564573         26.4848         20.8785 
       0.570708         26.0304         20.3915 
       0.576825         25.3941         19.9212 
       0.582926         24.8901         19.4662 
       0.589034         24.2433         19.0242 
       0.595184         23.9237         18.5926 
       0.601379         23.4405         18.1715 
       0.607522         23.0113         17.7669 
       0.613639         22.7655         17.3766 
       0.619772         22.1637         16.9974 
       0.625918         22.0233         16.6291 
       0.632068         21.6615          16.272 
       0.638161         21.1748         15.9289 
         0.6443         20.7487         15.5934 
       0.650464         20.3664         15.2664 
       0.656582         20.2278          14.951 
       0.662703         19.8323         14.6443 
       0.668861         19.4515         14.3444 
       0.675024         19.0979         14.0527 
       0.681124         18.7655          13.772 
       0.687237          18.448         13.4986 
       0.693381         18.2677         13.2316 
       0.699536         17.7842         12.9715 
       0.705665          17.697         12.7197 
       0.711789         17.3138         12.4748 
       0.717957         17.0587         12.2348 
        0.72409         16.8018         12.0025 
       0.730186         16.5643         11.7776 
       0.736317          16.375         11.5573 
       0.742472         16.0932         11.3418 
       0.748622         15.9067          11.132 
        0.75476         15.6061          10.928 
       0.760888         15.3773         10.7295 
       0.767043         15.1881         10.5352 
       0.773185         14.9073         10.3462 
       0.779291         14.8158          10.163 
       0.785407         14.6247         9.98395 
       0.791564         14.3658         9.80815 
       0.797719         14.0474         9.63671 
       0.803834         14.0162         9.47049 
       0.809972          13.882         9.30762 
       0.816124          13.564         9.14825 
       0.822261         13.4038         8.99307 
       0.828378         13.2598         8.84198 
       0.834502         13.1389         8.69426 
       0.840667         12.9321         8.54898 
       0.846816         12.6962         8.40745 
       0.852925         12.5757         8.27004 
       0.859047         12.4313         8.13544 
       0.865192         12.3126         8.00341 
       0.871341         12.1982         7.87424 
       0.877463         11.9837         7.74853 
       0.883569         11.8204          7.6259 
       0.889708         11.6304         7.50531 
       0.895864         11.5311         7.38705 
       0.902008         11.4415          7.2716 
       0.908149         11.3124          7.1587 
       0.914301          11.209         7.04803 
       0.920448          11.007         6.93982 
       0.926574         10.8946         6.83428 
       0.932687          10.774         6.73117 
       0.938823         10.6313         6.62983 
       0.944975         10.5047         6.53037 
       0.951105         10.4043         6.43331 
       0.957225         10.3249         6.33841 
       0.963368         10.2142         6.24512 
       0.969511         10.1097         6.15371 
       0.975621         9.99959         6.06464 
       0.981748         9.87159         5.97711 
       0.987916         9.80367         5.89077 
        0.99406         9.65578         5.80647 
        1.00019         9.51295           5.724 
        1.00632         9.48852         5.64322 
        1.01246         9.38323         5.56389 
        1.01859         9.23366         5.48622 
        1.02471         9.18637         5.41014 
        1.03085         9.08752         5.33524 
        1.03698         8.95093         5.26193 
        1.04314         8.89739         5.18969 
        1.04929         8.78389         5.11899 
        1.05541         8.68189         5.04989 
        1.06154         8.62291          4.9819 
        1.06769         8.57936         4.91507 
        1.07382         8.44963         4.84969 
        1.07993         8.37482         4.78566 
        1.08607         8.30505         4.72252 
        1.09222         8.23284         4.66047 
        1.09836         8.13306          4.5996 
        1.10449         8.06693          4.5399 
        1.11063         7.97804          4.4812 
        1.11677         7.93803         4.42357 
         1.1229         7.88028         4.36705 
        1.12903          7.7763         4.31147 
        1.13518         7.68238         4.25682 
        1.14131         7.63251         4.20315 
        1.14745         7.55641         4.15045 
        1.15359         7.50708         4.09864 
        1.15973         7.43214         4.04769 
        1.16584         7.32794         3.99785 
        1.17197           7.282         3.94878 
        1.17811         7.24698         3.90039 
        1.18424         7.17495         3.85295 
        1.19038         7.14312         3.80617 
        1.19652         7.05673         3.76019 
        1.20267         6.98582         3.71497 
        1.20881         6.96246         3.67051 
        1.21495         6.90002         3.62685 
        1.22108         6.81537         3.58391 
         1.2272         6.76964         3.54177 
        1.23334         6.69736         3.50022 
        1.23949          6.6385         3.45923 
        1.24562         6.60638         3.41902 
        1.25174         6.55252         3.37951 
        1.25789         6.50021         3.34051 
        1.26402         6.46647          3.3022 
        1.27014         6.40584         3.26458 
        1.27628         6.32992         3.22744 
        1.28244         6.27063         3.19081 
        1.28858         6.26741         3.15479 
        1.29471         6.19117         3.11942 
        1.30084         6.13028         3.08462 
        1.30697         6.12479          3.0503 
        1.31312         6.02574         3.01645 
        1.31925         5.98477         2.98323 
        1.32537          5.9474         2.95054 
        1.33151         5.92289         2.91823 
        1.33765         5.85765         2.88642 
        1.34378         5.81651         2.85515 
        1.34992         5.77691         2.82432 
        1.35606         5.72735         2.79388 
         1.3622          5.6969         2.76395 
        1.36833         5.64343         2.73453 
        1.37445         5.60835         2.70555 
        1.38059          5.5884         2.67691 
        1.38675         5.53652         2.64861 
        1.39288         5.50886         2.62084 
        1.39901         5.44133         2.59348 
        1.40515         5.41589         2.56645 
         1.4113         5.37732         2.53982 
        1.41742         5.33875         2.51367 
        1.42355         5.29018         2.48784 
         1.4297         5.26355         2.46229 
        1.43585         5.23808         2.43712 
        1.44198         5.21173         2.41239 
        1.44809         5.16287         2.38806 
        1.45423         5.12194         2.36397 
        1.46036         5.08125         2.34026 
        1.46649         5.05609         2.31687 
        1.47263         5.00965         2.29378 
        1.47877         4.97794         2.27101 
        1.48491         4.95092         2.24852 
        1.49104         4.91752         2.22639 
        1.49718         4.88859         2.20453 
        1.50333         4.86062         2.18293 
        1.50947         4.81767         2.16167 
         1.5156         4.79243         2.14073 
        1.52172         4.76606         2.12006 
        1.52787         4.73467         2.09962 
          1.534         4.69499         2.07948 
        1.54013         4.67521         2.05963 
        1.54627         4.63283            2.04 
        1.55241         4.60577         2.02062 
        1.55855         4.58741         2.00152 
        1.56467         4.55209         1.98272 
         1.5708         4.53144         1.96412 
        1.57695         4.49156         1.94572 
        1.58308         4.45605          1.9276 
        1.58922         4.44751          1.9097 
        1.59535         4.42408         1.89204 
         1.6015         4.38248         1.87457 
        1.60764         4.35252         1.85733 
        1.61376         4.33636         1.84036 
        1.61989         4.30979         1.82359 
        1.62604          4.2794         1.80699 
        1.63218         4.26976          1.7906 
        1.63831         4.23518         1.77446 
        1.64444         4.21441         1.75851 
        1.65059          4.1673         1.74272 
        1.65673         4.16993         1.72714 
        1.66285         4.12642          1.7118 
        1.66898         4.10525         1.69663 
        1.67512          4.0841         1.68162 
        1.68127         4.05812         1.66679 
         1.6874         4.04415         1.65216 
        1.69353         4.00658         1.63772 
        1.69967         3.99476         1.62341 
        1.70581         3.97339         1.60929 
        1.71193         3.94494         1.59538 
        1.71806         3.92893         1.58161 
        1.72421          3.9031         1.56798 
        1.73035         3.88878         1.55452 
        1.73649          3.8635         1.54123 
        1.74262         3.83787          1.5281 
        1.74876         3.82426         1.51511 
        1.75489         3.80362         1.50231 
        1.76101         3.77249         1.48965 
        1.76715         3.76262         1.47712 
        1.77329          3.7409         1.46473 
        1.77943         3.70779         1.45247 
        1.78557         3.69892         1.44037 
        1.79171         3.67812          1.4284 
        1.79785         3.65756         1.41657 
        1.80399         3.63551         1.40488 
        1.81012         3.61706         1.39333 
        1.81625         3.60096         1.38192 
        1.82239         3.58349         1.37062 
        1.82853         3.55845         1.35945 
        1.83466         3.54586         1.34842 
        1.84078         3.53152         1.33752 
        1.84692          3.5188         1.32673 
        1.85306         3.48811         1.31604 
         1.8592         3.46654         1.30548 
        1.86533         3.45211         1.29505 
        1.87147         3.43871         1.28472 
        1.87761         3.41798          1.2745 
        1.88375         3.39983          1.2644 
        1.88988          3.3844         1.25442 
        1.89601         3.36616         1.24454 
        1.90215         3.34965         1.23477 
        1.90829         3.32957          1.2251 
        1.91442         3.31707         1.21553 
        1.92056         3.30005         1.20608 
         1.9267         3.27983         1.19672 
        1.93284         3.26814         1.18745 
        1.93897         3.25089          1.1783 
        1.94509         3.23761         1.16926 
        1.95123         3.21938          1.1603 
        1.95737          3.1966         1.15142 
        1.96349         3.19053         1.14266 
        1.96964         3.17788         1.13396 
        1.97578         3.15172         1.12536 
        1.98192         3.14538         1.11685 
        1.98805         3.13023         1.10844 
        1.99419         3.11253         1.10011 
        2.00033         3.10354         1.09187 
        2.00647         3.08471         1.08371 
         2.0126         3.07571         1.07564 
        2.01874         3.05129         1.06765 
        2.02488         3.04487         1.05973 
        2.03101         3.02168         1.05191 
        2.03714         3.00973         1.04417 
        2.04328         2.99632         1.03651 
        2.04941         2.97765         1.02892 
        2.05554         2.96896         1.02142 
        2.06167         2.95776         1.01398 
        2.06781         2.94351         1.00662 
        2.07396         2.93436        0.999317 
        2.08009          2.9191          0.9921 
        2.08622          2.9026        0.984963 
        2.09237         2.88725        0.977883 
        2.09851         2.88148        0.970871 
        2.10464         2.86908        0.963939 
        2.11077         2.85003        0.957083 
        2.11691          2.8382        0.950279 
        2.12305         2.82977        0.943541 
        2.12918         2.82107        0.936885 
        2.13531          2.8069        0.930292 
        2.14145         2.79397        0.923747 
         2.1476          2.7773        0.917258 
        2.15372         2.76417        0.910864 
        2.15985         2.76243        0.904524 
        2.16599         2.74137        0.898227 
        2.17213         2.72853        0.891997 
        2.17827         2.72295        0.885827 
         2.1844         2.70903        0.879721 
        2.19054         2.69751        0.873671 
        2.19666         2.68335        0.867686 
         2.2028         2.67166        0.861752 
        2.20893         2.66239        0.855871 
        2.21508         2.64934        0.850038 
        2.22122          2.6374        0.844257 
        2.22736         2.62837        0.838543 
        2.23349         2.61989        0.832882 
        2.23962         2.60665        0.827272 
        2.24577          2.5977        0.821708 
         2.2519         2.58984        0.816202 
        2.25802         2.57673        0.810757 
        2.26417         2.56896        0.805346 
        2.27031         2.55457        0.799979 
        2.27644         2.54259        0.794676 
        2.28257         2.52919        0.789423 
        2.28872         2.52817        0.784206 
        2.29486         2.51232        0.779038 
        2.30099          2.4999        0.773927 
        2.30712         2.49076         0.76886 
        2.31326          2.4793         0.76383 
         2.3194          2.4725        0.758847 
        2.32553         2.46466        0.753917 
        2.33166         2.45555        0.749034 
         2.3378         2.44393        0.744187 
        2.34394         2.43405        0.739381 
        2.35007         2.42324        0.734624 
        2.35619          2.4163        0.729916 
        2.36233         2.40656        0.725237 
        2.36848         2.39378         0.72059 
        2.37462         2.39053        0.715993 
        2.38075         2.37658        0.711441 
        2.38689         2.37285        0.706925 
        2.39303         2.35952        0.702449 
        2.39916         2.35133        0.698016 
        2.40529         2.34243        0.693622 
        2.41143         2.33243        0.689263 
        2.41757         2.32522        0.684939 
         2.4237         2.31844         0.68066 
        2.42983         2.30086        0.676418 
        2.43598         2.29809        0.672201 
        2.44211         2.28539        0.668028 
        2.44823         2.28094        0.663898 
        2.45437         2.26966        0.659793 
        2.46052         2.26554        0.655719 
        2.46665          2.2561        0.651686 
        2.47279         2.24554        0.647689 
        2.47892         2.23878        0.643722 
        2.48507          2.2308        0.639786 
         2.4912         2.21714        0.635889 
