# k  (h/Mpc)    Pcb(k)  (Mpc/h)^3    Pcb_linear(k)  (Mpc/h)^3
     0.00783031         13432.5         13623.4 
       0.013688           16225         16090.8 
       0.019231         15701.9         15657.1 
      0.0249154         13678.4         13920.5 
      0.0312784         11507.1         11590.3 
      0.0375637         9621.51         9586.46 
      0.0433917         8127.68         8219.87 
      0.0492413         7280.03         7296.44 
      0.0555754         6492.48         6644.93 
      0.0619321         6193.87         6156.15 
       0.067871         5592.64         5703.76 
      0.0738098         5093.62         5188.42 
      0.0800417         4475.04          4588.8 
      0.0862327         3957.67          3995.3 
      0.0921407         3535.53         3496.22 
      0.0982031         3117.31            3094 
       0.104506          2908.3         2801.17 
       0.110769         2700.67         2612.32 
       0.116806         2553.46         2486.86 
       0.122832         2442.18         2376.35 
       0.129052         2263.44         2246.19 
       0.135211         2120.77         2088.69 
       0.141259         1993.94         1913.36 
       0.147318          1844.6         1735.63 
       0.153489         1671.78          1572.5 
       0.159709         1566.98         1439.89 
       0.165845         1497.06         1343.46 
       0.171974         1416.76         1275.43 
       0.178125         1354.38         1224.41 
       0.184229         1300.22         1178.76 
        0.19034         1220.08         1128.72 
       0.196428         1189.46         1070.45 
       0.202534         1139.65         1004.89 
       0.208729         1074.35         936.297 
       0.214876         1016.74         872.316 
       0.220989         976.826         817.312 
       0.227147         930.873         772.474 
        0.23329         892.988         737.367 
       0.239377          874.72         709.196 
       0.245482         817.268          683.99 
       0.251667         810.637          658.45 
       0.257832         778.218         631.155 
       0.263955         750.549         602.065 
       0.270079         720.346          572.13 
        0.27624         709.763         542.858 
       0.282372         680.089         516.141 
        0.28843         665.381         492.965 
       0.294538          631.26         472.913 
       0.300721         627.456         455.388 
        0.30691         599.495         439.597 
       0.313033         587.285           424.7 
       0.319153         570.514         409.799 
       0.325316         553.367         394.513 
        0.33145         537.136         379.146 
       0.337538         528.328         364.153 
       0.343633         512.051         349.861 
       0.349808         493.735         336.455 
       0.355968          489.36          324.32 
       0.362074         481.246         313.397 
       0.368217         467.303         303.299 
       0.374374         447.233         293.752 
       0.380519         445.064          284.53 
       0.386598          433.12         275.564 
       0.392688         430.092         266.681 
        0.39888         417.594         257.834 
       0.405048           408.7          249.32 
       0.411186         401.699         241.245 
       0.417313         393.734         233.668 
       0.423458         385.754         226.551 
       0.429607         379.199         219.856 
       0.435692         369.546         213.585 
       0.441815         366.124         207.536 
       0.447964         358.332         201.648 
       0.454126         349.229         195.906 
       0.460267         343.185          190.34 
       0.466387         339.071         184.956 
        0.47254         332.338         179.736 
       0.478662         331.338         174.764 
       0.484765          319.67         170.036 
       0.490885         316.445         165.508 
       0.497035         310.756         161.156 
       0.503198         305.721         156.975 
       0.509342         303.325         152.956 
       0.515458         299.488         149.079 
       0.521598         292.402         145.301 
       0.527764         288.066         141.623 
       0.533884         285.439         138.092 
           0.54         281.252         134.684 
       0.546137         279.832         131.384 
       0.552299         273.884         128.192 
       0.558452         272.229         125.123 
       0.564573         268.171         122.181 
       0.570708         262.781         119.331 
       0.576825         258.386         116.579 
       0.582926         255.976         113.916 
       0.589034         253.512          111.33 
       0.595184         251.002         108.804 
       0.601379         247.515          106.34 
       0.607522         243.623         103.972 
       0.613639         242.075         101.688 
       0.619772         236.853         99.4688 
       0.625918         235.682         97.3138 
       0.632068         231.928         95.2239 
       0.638161         230.849         93.2158 
         0.6443         227.088         91.2524 
       0.650464         224.784         89.3388 
       0.656582         222.665         87.4933 
       0.662703         221.731         85.6986 
       0.668861         217.727         83.9435 
       0.675024         214.997         82.2362 
       0.681124         213.842          80.594 
       0.687237         211.188         78.9941 
       0.693381         207.894         77.4314 
       0.699536         206.269         75.9093 
       0.705665         204.583         74.4355 
       0.711789         202.451         73.0027 
       0.717957         201.572         71.5982 
        0.72409           199.1         70.2386 
       0.730186         196.675         68.9226 
       0.736317         194.489         67.6332 
       0.742472         193.361         66.3721 
       0.748622         191.649         65.1445 
        0.75476         189.926         63.9509 
       0.760888         187.612         62.7893 
       0.767043         187.364         61.6523 
       0.773185         185.311         60.5462 
       0.779291         181.779         59.4738 
       0.785407         181.352         58.4261 
       0.791564         179.619         57.3973 
       0.797719         177.036          56.394 
       0.803834         176.115         55.4213 
       0.809972         175.118         54.4682 
       0.816124         174.483         53.5356 
       0.822261         172.513         52.6275 
       0.828378         170.797         51.7433 
       0.834502         170.354         50.8788 
       0.840667         167.901         50.0286 
       0.846816         166.421         49.2004 
       0.852925          165.83         48.3963 
       0.859047         164.141         47.6086 
       0.865192          162.39          46.836 
       0.871341         161.088         46.0801 
       0.877463         159.842         45.3444 
       0.883569         159.446         44.6268 
       0.889708         157.696         43.9211 
       0.895864         155.911          43.229 
       0.902008         155.118         42.5534 
       0.908149         154.616         41.8927 
       0.914301         152.613         41.2451 
       0.920448         151.572         40.6118 
       0.926574          150.61         39.9942 
       0.932687         150.494         39.3908 
       0.938823         148.411         38.7978 
       0.944975         147.179         38.2157 
       0.951105         146.506         37.6478 
       0.957225         145.132         37.0924 
       0.963368         143.306         36.5464 
       0.969511         143.028         36.0115 
       0.975621         141.948         35.4903 
       0.981748         141.648         34.9781 
       0.987916         140.092         34.4728 
        0.99406         138.895         33.9795 
        1.00019         138.797         33.4969 
        1.00632         137.318         33.0241 
        1.01246         136.559         32.5599 
        1.01859         135.878         32.1054 
        1.02471         134.304         31.6601 
        1.03085          133.11         31.2218 
        1.03698         132.681         30.7928 
        1.04314         131.326         30.3701 
        1.04929         130.707         29.9563 
        1.05541         130.132          29.552 
        1.06154         129.195         29.1541 
        1.06769         128.992          28.763 
        1.07382         127.731         28.3804 
        1.07993         126.735         28.0057 
        1.08607         125.982         27.6362 
        1.09222           125.6          27.273 
        1.09836         124.489         26.9169 
        1.10449         123.279         26.5675 
        1.11063         122.439          26.224 
        1.11677         122.077         25.8867 
         1.1229         121.058          25.556 
        1.12903         120.464         25.2307 
        1.13518         120.118         24.9109 
        1.14131         118.896         24.5969 
        1.14745         118.473         24.2884 
        1.15359         117.633         23.9852 
        1.15973         117.114         23.6871 
        1.16584         115.881         23.3954 
        1.17197         115.393         23.1083 
        1.17811         114.819         22.8251 
        1.18424         114.272         22.5475 
        1.19038          113.89         22.2737 
        1.19652         112.974         22.0046 
        1.20267         112.225           21.74 
        1.20881         111.433         21.4798 
        1.21495         110.813         21.2243 
        1.22108         110.292          20.973 
         1.2272         109.257         20.7264 
        1.23334         108.867         20.4833 
        1.23949         108.147         20.2434 
        1.24562         107.526         20.0081 
        1.25174         106.813         19.7769 
        1.25789         106.327         19.5487 
        1.26402         105.357         19.3245 
        1.27014         104.932         19.1043 
        1.27628         104.511          18.887 
        1.28244         104.016         18.6726 
        1.28858         103.622         18.4618 
        1.29471          102.54         18.2548 
        1.30084         102.317         18.0512 
        1.30697         101.426         17.8503 
        1.31312         101.035         17.6523 
        1.31925         100.243         17.4578 
        1.32537         99.8593         17.2666 
        1.33151         98.9683         17.0775 
        1.33765         98.6275         16.8913 
        1.34378         98.1357         16.7083 
        1.34992         97.8172         16.5279 
        1.35606         97.2036         16.3498 
         1.3622         96.3286         16.1746 
        1.36833         95.9943         16.0025 
        1.37445          95.451         15.8329 
        1.38059         94.8166         15.6653 
        1.38675         94.2421         15.4997 
        1.39288         94.0181         15.3372 
        1.39901         93.4983          15.177 
        1.40515         92.7835         15.0189 
         1.4113         92.2908          14.863 
        1.41742         91.9644           14.71 
        1.42355         91.3121         14.5588 
         1.4297         90.9852         14.4093 
        1.43585         90.2462          14.262 
        1.44198         89.8513         14.1173 
        1.44809         89.3797         13.9749 
        1.45423          88.986         13.8339 
        1.46036         88.6365         13.6952 
        1.46649         87.9319         13.5583 
        1.47263         87.4008         13.4232 
        1.47877         87.2659           13.29 
        1.48491         86.4152         13.1583 
        1.49104         86.2891         13.0288 
        1.49718         85.7022         12.9009 
        1.50333         85.2787         12.7745 
        1.50947         84.8483         12.6501 
         1.5156         84.3251         12.5275 
        1.52172         83.8533         12.4066 
        1.52787         83.5328          12.287 
          1.534         82.9335         12.1691 
        1.54013         82.5237         12.0529 
        1.54627         82.2755          11.938 
        1.55241         81.6454         11.8247 
        1.55855         81.3472         11.7129 
        1.56467          81.049         11.6029 
         1.5708         80.4519          11.494 
        1.57695         80.4043         11.3863 
        1.58308         79.6163         11.2803 
        1.58922         79.4344         11.1756 
        1.59535         79.0615         11.0722 
         1.6015         78.4475           10.97 
        1.60764          78.151         10.8691 
        1.61376         77.8893         10.7698 
        1.61989         77.3513         10.6716 
        1.62604         77.1191         10.5745 
        1.63218         76.7353         10.4786 
        1.63831         75.9242         10.3841 
        1.64444         75.7784         10.2908 
        1.65059         75.4351         10.1984 
        1.65673         74.8438         10.1072 
        1.66285         74.6029         10.0174 
        1.66898         74.2911         9.92868 
        1.67512         73.7331         9.84086 
        1.68127         73.5399         9.75401 
         1.6874         73.0648         9.66842 
        1.69353         72.6843          9.5839 
        1.69967         72.3028          9.5002 
        1.70581          72.106         9.41753 
        1.71193         71.8009         9.33616 
        1.71806         71.3154         9.25559 
        1.72421         70.9009          9.1758 
        1.73035         70.6148         9.09705 
        1.73649         70.3139         9.01924 
        1.74262          69.886         8.94241 
        1.74876         69.6156         8.86642 
        1.75489          69.103         8.79148 
        1.76101         68.9381         8.71742 
        1.76715         68.4145         8.64412 
        1.77329         68.2094         8.57157 
        1.77943         67.7345         8.49983 
        1.78557           67.62         8.42902 
        1.79171           67.08           8.359 
        1.79785         66.7314         8.28977 
        1.80399         66.5779         8.22133 
        1.81012         66.3169         8.15377 
        1.81625         65.8167         8.08699 
        1.82239         65.5837         8.02086 
        1.82853          65.278          7.9555 
        1.83466         64.9734         7.89094 
        1.84078           64.61         7.82717 
        1.84692         64.2328         7.76399 
        1.85306         63.9373         7.70144 
         1.8592         63.6456         7.63967 
        1.86533         63.3198         7.57862 
        1.87147           62.87         7.51816 
        1.87761         62.7213         7.45834 
        1.88375         62.3926         7.39924 
        1.88988         62.0859         7.34085 
        1.89601         61.7618         7.28306 
        1.90215         61.4238         7.22584 
        1.90829          61.169         7.16927 
        1.91442          60.916         7.11329 
        1.92056         60.4976         7.05797 
         1.9267           60.31         7.00318 
        1.93284         59.9152         6.94894 
        1.93897         59.6757         6.89538 
        1.94509         59.4399          6.8425 
        1.95123         59.0902         6.79004 
        1.95737         58.8231         6.73809 
        1.96349         58.4321         6.68683 
        1.96964         58.2802         6.63594 
        1.97578         57.9772         6.58557 
        1.98192         57.7984         6.53582 
        1.98805         57.4729         6.48658 
        1.99419         57.1078         6.43784 
        2.00033         56.9016         6.38959 
        2.00647         56.6525         6.34184 
         2.0126         56.2158         6.29466 
        2.01874         55.9795         6.24789 
        2.02488         55.8079         6.20155 
        2.03101         55.5281         6.15577 
        2.03714         55.2238         6.11049 
        2.04328         55.0056         6.06563 
        2.04941         54.7442         6.02124 
        2.05554         54.5293         5.97734 
        2.06167         54.2276         5.93381 
        2.06781         53.9262         5.89072 
        2.07396         53.6527         5.84799 
        2.08009         53.5141         5.80576 
        2.08622         53.1829         5.76399 
        2.09237         52.9056         5.72255 
        2.09851          52.792         5.68152 
        2.10464         52.4252         5.64095 
        2.11077         52.1458         5.60083 
        2.11691         51.8869         5.56102 
        2.12305         51.7126         5.52159 
        2.12918         51.5173         5.48263 
        2.13531         51.1342         5.44405 
        2.14145         50.9214         5.40575 
         2.1476         50.6968         5.36778 
        2.15372         50.4493         5.33036 
        2.15985         50.2533         5.29326 
        2.16599         49.9759         5.25641 
        2.17213          49.808         5.21995 
        2.17827         49.5365         5.18384 
         2.1844         49.2428         5.14811 
        2.19054         49.0193          5.1127 
        2.19666         48.7539         5.07768 
         2.2028         48.6901         5.04296 
        2.20893         48.4207         5.00854 
        2.21508         48.1761          4.9744 
        2.22122         47.9846         4.94058 
        2.22736         47.7625         4.90714 
        2.23349         47.5071         4.87401 
        2.23962         47.1851         4.84118 
        2.24577         46.9829         4.80862 
         2.2519         46.7516          4.7764 
        2.25802          46.677         4.74453 
        2.26417           46.31         4.71287 
        2.27031         46.1537         4.68146 
        2.27644         46.0036         4.65043 
        2.28257         45.6929         4.61968 
        2.28872         45.4195         4.58916 
        2.29486         45.3078         4.55892 
        2.30099           45.14         4.52901 
        2.30712         44.9203         4.49935 
        2.31326         44.6409         4.46991 
         2.3194         44.3769         4.44076 
        2.32553         44.1783         4.41191 
        2.33166         43.9815         4.38333 
         2.3378         43.7828         4.35496 
        2.34394         43.6121         4.32684 
        2.35007         43.3688         4.29901 
        2.35619         43.1385         4.27145 
        2.36233         43.0136         4.24407 
        2.36848         42.8391         4.21688 
        2.37462         42.5752         4.18998 
        2.38075         42.4664         4.16334 
        2.38689          42.258         4.13691 
        2.39303         42.0198         4.11071 
        2.39916         41.7988         4.08477 
        2.40529         41.6733         4.05906 
        2.41143          41.495         4.03355 
        2.41757         41.2449         4.00825 
         2.4237         41.1175         3.98321 
        2.42983         40.8832         3.95838 
        2.43598         40.7086         3.93371 
        2.44211         40.5651         3.90928 
        2.44823          40.349         3.88512 
        2.45437         40.1243         3.86109 
        2.46052           39.91         3.83725 
        2.46665         39.7678         3.81365 
        2.47279         39.5782         3.79026 
        2.47892         39.4436         3.76705 
        2.48507         39.2186         3.74401 
         2.4912         39.1009         3.72121 
