# k  (h/Mpc)    P(k)  (Mpc/h)^3    P_linear(k)  (Mpc/h)^3
     0.00783031         1250.41          1265.8 
       0.013688          1491.7         1494.72 
       0.019231         1454.31         1454.33 
      0.0249154         1286.14         1292.98 
      0.0312784         1076.55         1076.53 
      0.0375637         893.618         890.398 
      0.0433917         763.201         763.464 
      0.0492413         678.971         677.692 
      0.0555754         614.686         617.179 
      0.0619321         574.486          571.78 
       0.067871         528.102         529.761 
      0.0738098         480.224         481.896 
      0.0800417         423.879         426.204 
      0.0862327         370.795          371.08 
      0.0921407         325.582         324.726 
      0.0982031         287.397         287.368 
       0.104506         262.485          260.17 
       0.110769         244.344         242.629 
       0.116806          231.21         230.977 
       0.122832         221.741         220.713 
       0.129052         208.362         208.624 
       0.135211          193.82         193.995 
       0.141259         178.681         177.711 
       0.147318         162.963         161.203 
       0.153489         147.399         146.052 
       0.159709         135.371         133.736 
       0.165845         127.336         124.779 
       0.171974         119.906         118.461 
       0.178125         115.322         113.722 
       0.184229         111.199         109.482 
        0.19034         105.411         104.835 
       0.196428         100.813         99.4217 
       0.202534          95.571          93.333 
       0.208729         88.8176         86.9622 
       0.214876         82.5549         81.0198 
       0.220989         78.1921          75.911 
       0.227147           73.39         71.7462 
        0.23329         70.1321         68.4857 
       0.239377         67.7292         65.8693 
       0.245482         64.7378         63.5282 
       0.251667          62.966         61.1562 
       0.257832         60.3464          58.621 
       0.263955         57.6982         55.9191 
       0.270079         54.9691         53.1388 
        0.27624         52.7194           50.42 
       0.282372         50.2761         47.9387 
        0.28843         47.8754          45.786 
       0.294538         45.9381         43.9235 
       0.300721         44.6394         42.2959 
        0.30691         42.7991         40.8294 
       0.313033         41.4181         39.4457 
       0.319153         39.5565         38.0616 
       0.325316         38.7414          36.642 
        0.33145         37.1646         35.2146 
       0.337538         35.8834         33.8221 
       0.343633         34.4228         32.4947 
       0.349808         33.3037         31.2496 
       0.355968         32.2069         30.1225 
       0.362074         31.1135         29.1079 
       0.368217         30.1631         28.1701 
       0.374374         29.1608         27.2834 
       0.380519         28.4052         26.4268 
       0.386598         27.5976         25.5942 
       0.392688         26.8926          24.769 
        0.39888         25.9906         23.9473 
       0.405048         25.2613         23.1565 
       0.411186          24.548         22.4066 
       0.417313         23.7099         21.7028 
       0.423458         23.0686         21.0418 
       0.429607          22.392         20.4199 
       0.435692         21.7286         19.8375 
       0.441815         21.2337         19.2757 
       0.447964         20.8118         18.7288 
       0.454126         20.0422         18.1955 
       0.460267         19.6087         17.6786 
       0.466387         18.9851         17.1785 
        0.47254         18.6116         16.6937 
       0.478662         18.2259         16.2319 
       0.484765         17.6554         15.7927 
       0.490885         17.2284         15.3722 
       0.497035         16.9771          14.968 
       0.503198         16.4988         14.5796 
       0.509342         16.0876         14.2063 
       0.515458         15.6933         13.8463 
       0.521598         15.3769         13.4954 
       0.527764         14.9916         13.1538 
       0.533884         14.7271         12.8259 
           0.54         14.3727         12.5093 
       0.546137         14.0931         12.2028 
       0.552299         13.8182         11.9063 
       0.558452         13.3967         11.6213 
       0.564573         13.1912          11.348 
       0.570708         12.9228         11.0833 
       0.576825         12.5889         10.8277 
       0.582926         12.3549         10.5804 
       0.589034           12.01         10.3402 
       0.595184         11.8244         10.1056 
       0.601379         11.5593          9.8767 
       0.607522          11.379         9.65681 
       0.613639         11.2171         9.44466 
       0.619772         10.9073         9.23855 
       0.625918         10.8027          9.0384 
       0.632068         10.6235         8.84429 
       0.638161         10.3571         8.65779 
         0.6443         10.1433         8.47543 
       0.650464         9.93262         8.29769 
       0.656582          9.8435         8.12629 
       0.662703         9.65124          7.9596 
       0.668861         9.47113         7.79659 
       0.675024         9.27703         7.63801 
       0.681124         9.10985         7.48548 
       0.687237         8.96584         7.33689 
       0.693381         8.83549         7.19175 
       0.699536          8.5951         7.05037 
       0.705665           8.498         6.91349 
       0.711789         8.34783         6.78042 
       0.717957         8.20051         6.64997 
        0.72409         8.06093         6.52369 
       0.730186         7.94482         6.40146 
       0.736317         7.85453          6.2817 
       0.742472         7.72431         6.16457 
       0.748622         7.59199         6.05056 
        0.75476         7.43504         5.93969 
       0.760888         7.33177          5.8318 
       0.767043          7.2399          5.7262 
       0.773185         7.09053         5.62346 
       0.779291         7.02679         5.52386 
       0.785407         6.91161         5.42655 
       0.791564         6.80441           5.331 
       0.797719         6.68017         5.23782 
       0.803834         6.62892         5.14747 
       0.809972          6.5471         5.05895 
       0.816124          6.4094         4.97233 
       0.822261         6.30239         4.88798 
       0.828378         6.22611         4.80586 
       0.834502         6.17145         4.72557 
       0.840667         6.04815         4.64661 
       0.846816         5.94518         4.56969 
       0.852925         5.89299           4.495 
       0.859047         5.81068         4.42184 
       0.865192         5.75002         4.35008 
       0.871341         5.68347         4.27987 
       0.877463         5.59213         4.21154 
       0.883569         5.49763         4.14489 
       0.889708         5.40948         4.07935 
       0.895864         5.35043         4.01507 
       0.902008         5.28763         3.95232 
       0.908149         5.23053         3.89095 
       0.914301         5.14556          3.8308 
       0.920448         5.07316         3.77199 
       0.926574         5.00464         3.71462 
       0.932687         4.95147         3.65858 
       0.938823         4.88804          3.6035 
       0.944975         4.82328         3.54944 
       0.951105         4.77152         3.49669 
       0.957225         4.74597         3.44511 
       0.963368         4.67599          3.3944 
       0.969511         4.61189         3.34471 
       0.975621         4.54913          3.2963 
       0.981748         4.50197         3.24873 
       0.987916         4.45201          3.2018 
        0.99406         4.37659         3.15598 
        1.00019         4.32187         3.11116 
        1.00632         4.29282         3.06725 
        1.01246         4.24108         3.02413 
        1.01859         4.18413         2.98191 
        1.02471         4.14046         2.94056 
        1.03085         4.09107         2.89985 
        1.03698         4.03695         2.86001 
        1.04314         4.00268         2.82074 
        1.04929         3.95287         2.78231 
        1.05541         3.90558         2.74476 
        1.06154         3.86928          2.7078 
        1.06769         3.84475         2.67148 
        1.07382         3.78065         2.63594 
        1.07993         3.73495         2.60114 
        1.08607         3.71462         2.56682 
        1.09222         3.66794         2.53309 
        1.09836         3.63209         2.50001 
        1.10449         3.59406         2.46757 
        1.11063         3.54978         2.43566 
        1.11677         3.52112         2.40433 
         1.1229         3.48537         2.37361 
        1.12903         3.44147         2.34341 
        1.13518         3.40844          2.3137 
        1.14131         3.36428         2.28453 
        1.14745         3.31991         2.25588 
        1.15359         3.30226         2.22772 
        1.15973         3.25914         2.20004 
        1.16584         3.23189         2.17294 
        1.17197         3.19981         2.14627 
        1.17811         3.17765         2.11997 
        1.18424         3.14589         2.09419 
        1.19038         3.11988         2.06876 
        1.19652         3.08544         2.04377 
        1.20267         3.05494         2.01919 
        1.20881         3.02743         1.99503 
        1.21495          3.0004         1.97129 
        1.22108         2.97011         1.94796 
         1.2272         2.94981         1.92505 
        1.23334         2.91069         1.90247 
        1.23949         2.88163         1.88019 
        1.24562         2.86465         1.85833 
        1.25174         2.83019         1.83686 
        1.25789         2.80956         1.81566 
        1.26402         2.78061         1.79484 
        1.27014         2.75445         1.77439 
        1.27628         2.73707          1.7542 
        1.28244          2.7013         1.73429 
        1.28858         2.68743         1.71472 
        1.29471         2.65483         1.69549 
        1.30084         2.62922         1.67658 
        1.30697         2.62275         1.65792 
        1.31312          2.5762         1.63953 
        1.31925          2.5633         1.62147 
        1.32537         2.53948          1.6037 
        1.33151         2.52592         1.58614 
        1.33765         2.49256         1.56885 
        1.34378         2.47608         1.55185 
        1.34992          2.4631          1.5351 
        1.35606         2.42597         1.51855 
         1.3622         2.41749         1.50228 
        1.36833         2.39458         1.48629 
        1.37445         2.37238         1.47054 
        1.38059         2.36158         1.45498 
        1.38675         2.34553          1.4396 
        1.39288         2.31978          1.4245 
        1.39901         2.29466         1.40963 
        1.40515         2.27848         1.39494 
         1.4113          2.2628         1.38046 
        1.41742         2.24531         1.36625 
        1.42355         2.22964         1.35221 
         1.4297         2.20666         1.33833 
        1.43585         2.19524         1.32464 
        1.44198         2.18106          1.3112 
        1.44809         2.15635         1.29798 
        1.45423         2.13916         1.28489 
        1.46036         2.12042           1.272 
        1.46649         2.10598         1.25928 
        1.47263         2.08769         1.24673 
        1.47877         2.06921         1.23436 
        1.48491         2.05468         1.22214 
        1.49104         2.04251          1.2101 
        1.49718         2.02764         1.19822 
        1.50333         2.01155         1.18649 
        1.50947         1.99711         1.17493 
         1.5156         1.98073         1.16355 
        1.52172         1.96645         1.15231 
        1.52787         1.95158          1.1412 
          1.534         1.93587         1.13026 
        1.54013         1.92288         1.11947 
        1.54627         1.90586          1.1088 
        1.55241         1.89079         1.09826 
        1.55855         1.88106         1.08788 
        1.56467         1.86884         1.07767 
         1.5708         1.85031         1.06755 
        1.57695         1.83913         1.05755 
        1.58308         1.82463         1.04771 
        1.58922         1.81496         1.03798 
        1.59535         1.80124         1.02838 
         1.6015         1.78776         1.01888 
        1.60764         1.77749         1.00951 
        1.61376         1.76594         1.00029 
        1.61989         1.75082        0.991171 
        1.62604         1.73714        0.982148 
        1.63218         1.73219        0.973243 
        1.63831         1.71394        0.964469 
        1.64444         1.70252          0.9558 
        1.65059          1.6933        0.947217 
        1.65673         1.68109         0.93875 
        1.66285         1.66814        0.930409 
        1.66898          1.6599        0.922168 
        1.67512         1.64356        0.914011 
        1.68127         1.63371        0.905945 
         1.6874         1.62886        0.897995 
        1.69353         1.60874        0.890145 
        1.69967         1.59982        0.882371 
        1.70581         1.59573        0.874693 
        1.71193         1.58093        0.867136 
        1.71806         1.57457        0.859652 
        1.72421         1.56286        0.852242 
        1.73035         1.55177        0.844927 
        1.73649         1.54197        0.837701 
        1.74262         1.53172        0.830564 
        1.74876         1.52417        0.823507 
        1.75489         1.50935        0.816546 
        1.76101         1.50063        0.809668 
        1.76715         1.49346        0.802859 
        1.77329         1.48535        0.796121 
        1.77943         1.47132        0.789458 
        1.78557         1.46322        0.782881 
        1.79171         1.45878        0.776378 
        1.79785         1.44503        0.769947 
        1.80399         1.43752        0.763591 
        1.81012         1.43071        0.757316 
        1.81625         1.42033        0.751113 
        1.82239         1.41023        0.744972 
        1.82853         1.39811        0.738902 
        1.83466         1.39423        0.732905 
        1.84078         1.38523        0.726981 
        1.84692         1.37885        0.721114 
        1.85306         1.36776        0.715304 
         1.8592         1.35973        0.709567 
        1.86533         1.35103        0.703897 
        1.87147         1.34556        0.698282 
        1.87761         1.33608        0.692726 
        1.88375         1.32629        0.687237 
        1.88988         1.32165        0.681813 
        1.89601         1.31205        0.676445 
        1.90215         1.30126        0.671131 
        1.90829         1.29319        0.665876 
        1.91442         1.28967        0.660678 
        1.92056         1.28079         0.65554 
         1.9267         1.27301        0.650451 
        1.93284         1.26984        0.645413 
        1.93897         1.25995        0.640438 
        1.94509         1.25189        0.635527 
        1.95123         1.24313        0.630654 
        1.95737         1.23697         0.62583 
        1.96349         1.23035        0.621068 
        1.96964         1.22483        0.616342 
        1.97578         1.21606        0.611663 
        1.98192         1.21031        0.607043 
        1.98805         1.20214        0.602469 
        1.99419         1.19868        0.597943 
        2.00033         1.19376        0.593461 
        2.00647         1.18237        0.589026 
         2.0126         1.17835        0.584644 
        2.01874          1.1697          0.5803 
        2.02488         1.16594        0.575996 
        2.03101         1.15541        0.571744 
        2.03714         1.14913        0.567539 
        2.04328         1.14612        0.563371 
        2.04941           1.137        0.559249 
        2.05554          1.1325        0.555172 
        2.06167         1.12531        0.551129 
        2.06781          1.1214        0.547126 
        2.07396           1.114        0.543158 
        2.08009         1.10864        0.539235 
        2.08622         1.10146        0.535356 
        2.09237         1.09708        0.531507 
        2.09851         1.09087        0.527696 
        2.10464         1.08787        0.523928 
        2.11077         1.07983        0.520202 
        2.11691         1.07326        0.516504 
        2.12305         1.06938        0.512842 
        2.12918         1.06327        0.509224 
        2.13531         1.05768         0.50564 
        2.14145         1.05167        0.502083 
         2.1476         1.04477        0.498556 
        2.15372         1.04079        0.495081 
        2.15985         1.03416        0.491635 
        2.16599         1.03021        0.488212 
        2.17213         1.02302        0.484826 
        2.17827         1.02036        0.481472 
         2.1844         1.01571        0.478154 
        2.19054         1.01144        0.474865 
        2.19666         1.00506        0.471612 
         2.2028         0.99965        0.468387 
        2.20893        0.995192         0.46519 
        2.21508        0.991415         0.46202 
        2.22122        0.982283        0.458878 
        2.22736        0.978828        0.455772 
        2.23349        0.977451        0.452696 
        2.23962        0.969544        0.449646 
        2.24577        0.965778        0.446622 
         2.2519         0.95963         0.44363 
        2.25802        0.956548         0.44067 
        2.26417         0.95107        0.437729 
        2.27031        0.947375        0.434811 
        2.27644         0.94201         0.43193 
        2.28257        0.937903        0.429074 
        2.28872        0.933092        0.426239 
        2.29486        0.928308         0.42343 
        2.30099        0.923408        0.420652 
        2.30712        0.918964        0.417898 
        2.31326        0.916876        0.415163 
         2.3194        0.912389        0.412455 
        2.32553        0.908489        0.409776 
        2.33166        0.901763        0.407121 
         2.3378         0.89743        0.404487 
        2.34394        0.892829        0.401875 
        2.35007        0.889333         0.39929 
        2.35619        0.887104         0.39673 
        2.36233        0.880411        0.394187 
        2.36848          0.8773        0.391661 
        2.37462        0.873293        0.389163 
        2.38075          0.8701        0.386689 
        2.38689        0.865783        0.384234 
        2.39303        0.861411        0.381801 
        2.39916        0.857041        0.379392 
        2.40529        0.854052        0.377004 
        2.41143        0.849542        0.374634 
        2.41757        0.846198        0.372284 
         2.4237        0.843861        0.369958 
        2.42983        0.838383        0.367653 
        2.43598        0.835774        0.365361 
        2.44211        0.832055        0.363092 
        2.44823        0.827412        0.360848 
        2.45437        0.824374        0.358617 
        2.46052        0.821918        0.356402 
        2.46665        0.817229         0.35421 
        2.47279        0.813375        0.352038 
        2.47892        0.808892        0.349882 
        2.48507        0.806738        0.347742 
         2.4912          0.8025        0.345624 
