# k  (h/Mpc)    Pcb(k)  (Mpc/h)^3    Pcb_linear(k)  (Mpc/h)^3
     0.00783031         658.265         664.539 
       0.013688         795.445         797.878 
       0.019231         783.307         783.691 
      0.0249154         696.317         699.197 
      0.0312784         579.146         578.982 
      0.0375637         472.871         471.373 
      0.0433917         396.198         395.925 
      0.0492413         345.703         344.682 
      0.0555754         309.832         310.522 
      0.0619321         290.369         289.019 
       0.067871         271.619         272.283 
      0.0738098         252.691         253.344 
      0.0800417         227.964         228.963 
      0.0862327         201.466         201.537 
      0.0921407         175.813         175.523 
      0.0982031         152.245         152.167 
       0.104506         134.591         133.526 
       0.110769         121.969         121.033 
       0.116806         113.953          113.66 
       0.122832         109.724         109.139 
       0.129052         105.438         105.443 
       0.135211         101.026         101.076 
       0.141259         95.5557          95.244 
       0.147318         88.5645         87.9197 
       0.153489         80.1637         79.7036 
       0.159709         72.3306         71.7202 
       0.165845         66.0918         65.0125 
       0.171974         60.5352          59.914 
       0.178125         57.1585         56.3897 
       0.184229         54.9223         54.1085 
        0.19034         52.8623         52.4911 
       0.196428         51.5946         50.9808 
       0.202534         50.0282         49.1406 
       0.208729          47.415         46.7483 
       0.214876         44.4694         43.9221 
       0.220989         41.7396         40.9181 
       0.227147         38.6286         38.0104 
        0.23329         36.1283         35.4817 
       0.239377         34.2358         33.4718 
       0.245482         32.4977         31.9477 
       0.251667         31.5988         30.7925 
       0.257832         30.5769         29.8581 
       0.263955         29.7019         28.9727 
       0.270079         28.7034         27.9986 
        0.27624         27.7332         26.8749 
       0.282372         26.5035         25.6323 
        0.28843         25.1171         24.3528 
       0.294538         23.8889         23.1027 
       0.300721         22.8945         21.9552 
        0.30691          21.753         20.9724 
       0.313033         20.9712         20.1641 
       0.319153         20.1123         19.4914 
       0.325316         19.7501          18.897 
        0.33145         19.1332          18.337 
       0.337538         18.5549         17.7694 
       0.343633         17.8876         17.1717 
       0.349808         17.3217         16.5353 
       0.355968         16.6795         15.8905 
       0.362074         16.0344         15.2668 
       0.368217          15.468         14.6789 
       0.374374         14.8806         14.1462 
       0.380519         14.4572         13.6722 
       0.386598         14.0664         13.2545 
       0.392688         13.7148          12.872 
        0.39888          13.309         12.5032 
       0.405048         12.9573         12.1436 
       0.411186         12.6047         11.7835 
       0.417313         12.1915         11.4214 
       0.423458         11.8503         11.0601 
       0.429607         11.4688         10.7064 
       0.435692         11.1185         10.3718 
       0.441815         10.8185         10.0562 
       0.447964         10.5805          9.7614 
       0.454126         10.2229         9.48705 
       0.460267         9.99244         9.23147 
       0.466387         9.69473         8.98876 
        0.47254         9.49578         8.75205 
       0.478662           9.289         8.52149 
       0.484765         9.00774         8.29531 
       0.490885         8.78534         8.07187 
       0.497035         8.64205         7.85273 
       0.503198         8.38907         7.64103 
       0.509342         8.17966         7.43919 
       0.515458         7.97779          7.2477 
       0.521598         7.80173          7.0649 
       0.527764         7.59714         6.89031 
       0.533884         7.46816         6.72428 
           0.54         7.28592          6.5639 
       0.546137          7.1363         6.40717 
       0.552299         6.98807         6.25373 
       0.558452         6.79094         6.10449 
       0.564573         6.67224         5.95994 
       0.570708          6.5281         5.81921 
       0.576825         6.36075         5.68345 
       0.582926         6.24626         5.55299 
       0.589034         6.07397         5.42741 
       0.595184         5.96894         5.30576 
       0.601379         5.83633          5.1875 
       0.607522         5.74595         5.07387 
       0.613639         5.65589         4.96394 
       0.619772          5.4986         4.85677 
       0.625918         5.42658         4.75234 
       0.632068         5.33578         4.65073 
       0.638161         5.20691         4.55284 
         0.6443         5.10104         4.45698 
       0.650464         4.98892         4.36355 
       0.656582         4.92781         4.27359 
       0.662703         4.83309         4.18636 
       0.668861         4.75269         4.10131 
       0.675024         4.65009         4.01874 
       0.681124         4.56012         3.93936 
       0.687237         4.49376         3.86197 
       0.693381         4.41709         3.78621 
       0.699536         4.30082         3.71224 
       0.705665         4.24072         3.64048 
       0.711789         4.17149         3.57066 
       0.717957         4.09381         3.50219 
        0.72409         4.02276         3.43595 
       0.730186         3.95505         3.37192 
       0.736317          3.9148         3.30924 
       0.742472         3.84753         3.24799 
       0.748622         3.77163         3.18838 
        0.75476         3.69906         3.13042 
       0.760888         3.64187         3.07399 
       0.767043         3.59935         3.01871 
       0.773185         3.52385          2.9649 
       0.779291         3.48226          2.9127 
       0.785407         3.42219         2.86168 
       0.791564         3.37325         2.81157 
       0.797719         3.32179          2.7627 
       0.803834          3.2813         2.71533 
       0.809972         3.23186         2.66892 
       0.816124         3.17097         2.62351 
       0.822261         3.11308         2.57931 
       0.828378         3.07391         2.53627 
       0.834502         3.04488         2.49419 
       0.840667         2.97761         2.45281 
       0.846816         2.93282         2.41249 
       0.852925         2.90761         2.37333 
       0.859047         2.86506         2.33496 
       0.865192         2.82431         2.29733 
       0.871341          2.7892          2.2605 
       0.877463         2.75141         2.22465 
       0.883569         2.70084         2.18967 
       0.889708         2.66249         2.15527 
       0.895864         2.62806         2.12153 
       0.902008         2.58707         2.08859 
       0.908149         2.55983         2.05637 
       0.914301         2.51069         2.02479 
       0.920448         2.48112          1.9939 
       0.926574         2.44527         1.96377 
       0.932687         2.41474         1.93434 
       0.938823         2.39105         1.90541 
       0.944975         2.35772         1.87701 
       0.951105         2.32979         1.84929 
       0.957225         2.31115         1.82219 
       0.963368         2.27624         1.79554 
       0.969511         2.24216         1.76943 
       0.975621         2.20831         1.74398 
       0.981748         2.18903         1.71898 
       0.987916         2.15848         1.69431 
        0.99406         2.12364         1.67022 
        1.00019         2.10557         1.64665 
        1.00632         2.07676         1.62356 
        1.01246          2.0532         1.60089 
        1.01859         2.02932         1.57869 
        1.02471         2.00184         1.55694 
        1.03085         1.98156         1.53553 
        1.03698         1.95346         1.51457 
        1.04314         1.93521         1.49392 
        1.04929         1.90923          1.4737 
        1.05541         1.88899         1.45394 
        1.06154         1.86606          1.4345 
        1.06769         1.84777         1.41539 
        1.07382         1.82281         1.39669 
        1.07993         1.79652         1.37837 
        1.08607         1.78748         1.36031 
        1.09222         1.76179         1.34256 
        1.09836         1.74801         1.32515 
        1.10449         1.72777         1.30806 
        1.11063         1.70278         1.29127 
        1.11677         1.68389         1.27477 
         1.1229         1.66682         1.25859 
        1.12903         1.64685         1.24269 
        1.13518         1.63316         1.22704 
        1.14131         1.61016         1.21168 
        1.14745         1.58417         1.19659 
        1.15359          1.5761         1.18175 
        1.15973         1.55224         1.16716 
        1.16584         1.54579         1.15289 
        1.17197          1.5274         1.13883 
        1.17811         1.51323         1.12497 
        1.18424         1.49965         1.11138 
        1.19038         1.48049         1.09797 
        1.19652         1.46374          1.0848 
        1.20267         1.45351         1.07184 
        1.20881         1.43358          1.0591 
        1.21495         1.42276         1.04658 
        1.22108         1.40876         1.03427 
         1.2272         1.39832         1.02219 
        1.23334            1.38         1.01028 
        1.23949         1.36462        0.998528 
        1.24562         1.35484        0.986998 
        1.25174         1.33994        0.975668 
        1.25789         1.32778        0.964484 
        1.26402         1.31069        0.953496 
        1.27014         1.29889        0.942707 
        1.27628         1.29298        0.932054 
        1.28244         1.27347        0.921546 
        1.28858         1.26344        0.911216 
        1.29471         1.25144        0.901068 
        1.30084         1.23783        0.891085 
        1.30697         1.22847        0.881239 
        1.31312         1.21086        0.871529 
        1.31925         1.20467        0.861996 
        1.32537         1.19327        0.852617 
        1.33151         1.18408        0.843344 
        1.33765         1.17061        0.834216 
        1.34378         1.15788        0.825241 
        1.34992         1.15196        0.816393 
        1.35606         1.13684        0.807656 
         1.3622         1.12988        0.799063 
        1.36833         1.11842        0.790616 
        1.37445         1.10559        0.782296 
        1.38059         1.09792        0.774071 
        1.38675         1.09428        0.765945 
        1.39288          1.0796        0.757968 
        1.39901         1.06963         0.75011 
        1.40515         1.06141        0.742345 
         1.4113         1.05154        0.734694 
        1.41742         1.04206        0.727181 
        1.42355         1.03831        0.719759 
         1.4297         1.02369        0.712419 
        1.43585         1.01633        0.705185 
        1.44198         1.01189        0.698079 
        1.44809        0.998289        0.691086 
        1.45423        0.990724        0.684162 
        1.46036        0.982449        0.677347 
        1.46649        0.974302        0.670622 
        1.47263        0.965938        0.663984 
        1.47877        0.956525        0.657439 
        1.48491        0.948929        0.650973 
        1.49104        0.940918        0.644607 
        1.49718        0.935908        0.638323 
        1.50333        0.925861        0.632113 
        1.50947        0.920455        0.625998 
         1.5156        0.911353        0.619974 
        1.52172        0.904046        0.614029 
        1.52787        0.895862        0.608152 
          1.534        0.890496        0.602358 
        1.54013        0.880965        0.596646 
        1.54627        0.874041        0.590999 
        1.55241        0.866517        0.585424 
        1.55855        0.860438        0.579929 
        1.56467        0.855896         0.57452 
         1.5708        0.845667        0.569166 
        1.57695         0.84206        0.563871 
        1.58308        0.835511        0.558657 
        1.58922        0.827917        0.553505 
        1.59535        0.821984         0.54842 
         1.6015         0.81562        0.543393 
        1.60764        0.810189        0.538431 
        1.61376          0.8027        0.533545 
        1.61989        0.797655        0.528716 
        1.62604        0.790308        0.523936 
        1.63218        0.787026        0.519218 
        1.63831        0.778969         0.51457 
        1.64444        0.773007        0.509977 
        1.65059        0.768553         0.50543 
        1.65673        0.760894        0.500943 
        1.66285        0.755953        0.496524 
        1.66898         0.75302        0.492156 
        1.67512        0.744234        0.487833 
        1.68127        0.738481        0.483558 
         1.6874        0.736004        0.479344 
        1.69353        0.728485        0.475183 
        1.69967        0.722906        0.471062 
        1.70581        0.719411        0.466991 
        1.71193        0.713273        0.462984 
        1.71806        0.709313        0.459016 
        1.72421        0.703454        0.455086 
        1.73035        0.697451        0.451208 
        1.73649        0.694316        0.447375 
        1.74262        0.689084        0.443591 
        1.74876        0.683329        0.439847 
        1.75489        0.677661        0.436155 
        1.76101        0.673604        0.432507 
        1.76715        0.669229        0.428895 
        1.77329        0.665178         0.42532 
        1.77943         0.65925        0.421785 
        1.78557        0.654682        0.418296 
        1.79171        0.651561        0.414845 
        1.79785        0.646294        0.411433 
        1.80399        0.642119         0.40806 
        1.81012        0.638637        0.404729 
        1.81625          0.6334        0.401438 
        1.82239        0.629906        0.398178 
        1.82853        0.622928        0.394956 
        1.83466        0.620354        0.391773 
        1.84078         0.61512        0.388628 
        1.84692        0.612801        0.385513 
        1.85306        0.608596        0.382429 
         1.8592        0.605141        0.379383 
        1.86533        0.600761        0.376373 
        1.87147        0.596679        0.373391 
        1.87761        0.592761        0.370441 
        1.88375        0.587156        0.367526 
        1.88988         0.58526        0.364646 
        1.89601         0.58043        0.361795 
        1.90215        0.577296        0.358973 
        1.90829        0.572798        0.356182 
        1.91442        0.569218        0.353421 
        1.92056        0.566415        0.350692 
         1.9267        0.561629        0.347988 
        1.93284          0.5595        0.345312 
        1.93897        0.555194        0.342669 
        1.94509        0.552009         0.34006 
        1.95123        0.547887        0.337471 
        1.95737        0.545028        0.334907 
        1.96349        0.540548        0.332377 
        1.96964        0.538138        0.329865 
        1.97578        0.534283        0.327379 
        1.98192        0.532152        0.324923 
        1.98805        0.527665        0.322492 
        1.99419        0.525021        0.320086 
        2.00033        0.522874        0.317703 
        2.00647        0.518582        0.315346 
         2.0126        0.515377        0.313016 
        2.01874        0.512627        0.310707 
        2.02488        0.510119        0.308419 
        2.03101        0.505309        0.306158 
        2.03714        0.501962        0.303922 
        2.04328        0.500699        0.301706 
        2.04941        0.497083        0.299514 
        2.05554        0.493862        0.297345 
        2.06167        0.491064        0.295195 
        2.06781        0.487247        0.293066 
        2.07396        0.484072        0.290955 
        2.08009        0.481806        0.288869 
        2.08622        0.478929        0.286805 
        2.09237        0.477257        0.284758 
        2.09851         0.47434         0.28273 
        2.10464        0.471589        0.280726 
        2.11077        0.468598        0.278743 
        2.11691        0.465415        0.276775 
        2.12305        0.462806        0.274827 
        2.12918        0.460497        0.272901 
        2.13531        0.457299        0.270994 
        2.14145        0.455265        0.269101 
         2.1476          0.4521        0.267224 
        2.15372        0.450665        0.265374 
        2.15985        0.446817         0.26354 
        2.16599        0.443848        0.261718 
        2.17213        0.442058        0.259916 
        2.17827        0.440415        0.258131 
         2.1844        0.438213        0.256364 
        2.19054          0.4355        0.254613 
        2.19666        0.432182        0.252881 
         2.2028        0.430095        0.251164 
        2.20893        0.428026        0.249462 
        2.21508        0.425804        0.247774 
        2.22122        0.421878        0.246101 
        2.22736        0.420224        0.244446 
        2.23349        0.419087        0.242808 
        2.23962        0.416509        0.241184 
        2.24577        0.412996        0.239573 
         2.2519        0.411653        0.237979 
        2.25802        0.409035        0.236402 
        2.26417        0.406547        0.234836 
        2.27031        0.404351        0.233282 
        2.27644        0.402757        0.231746 
        2.28257        0.400546        0.230225 
        2.28872        0.398236        0.228714 
        2.29486        0.395937        0.227218 
        2.30099        0.393779        0.225738 
        2.30712        0.392099         0.22427 
        2.31326        0.389807        0.222813 
         2.3194        0.388975         0.22137 
        2.32553        0.386596        0.219942 
        2.33166        0.384599        0.218527 
         2.3378        0.382424        0.217123 
        2.34394        0.379117        0.215731 
        2.35007        0.377939        0.214353 
        2.35619        0.376115        0.212989 
        2.36233        0.373202        0.211633 
        2.36848        0.372164        0.210287 
        2.37462         0.36956        0.208955 
        2.38075        0.368879        0.207636 
        2.38689         0.36633        0.206327 
        2.39303        0.365193         0.20503 
        2.39916        0.362139        0.203745 
        2.40529        0.360889        0.202472 
        2.41143        0.359322        0.201208 
        2.41757        0.357378        0.199955 
         2.4237        0.355624        0.198714 
        2.42983        0.353879        0.197485 
        2.43598        0.352312        0.196262 
        2.44211        0.350837        0.195052 
        2.44823        0.349068        0.193855 
        2.45437        0.346544        0.192665 
        2.46052        0.345843        0.191483 
        2.46665        0.343453        0.190314 
        2.47279        0.341676        0.189155 
        2.47892        0.339764        0.188005 
        2.48507        0.338477        0.186863 
         2.4912        0.337041        0.185733 
