# k  (h/Mpc)    P(k)  (Mpc/h)^3    P_linear(k)  (Mpc/h)^3
     0.00783031          2267.6         2298.49 
       0.013688         2674.61         2678.31 
       0.019231         2546.71         2545.99 
      0.0249154         2173.53         2188.07 
      0.0312784         1739.07         1738.69 
      0.0375637         1379.47         1372.36 
      0.0433917         1138.17         1137.98 
      0.0492413         996.938          993.84 
      0.0555754         902.497         907.204 
      0.0619321         858.075         852.843 
       0.067871         797.707         801.432 
      0.0738098         730.199          733.77 
      0.0800417         640.371         644.994 
      0.0862327           550.4         550.707 
      0.0921407         471.648         469.105 
      0.0982031         404.841         403.721 
       0.104506         364.077         358.553 
       0.110769          337.77         333.393 
       0.116806          322.69         320.989 
       0.122832         315.085         312.496 
       0.129052         300.688          300.88 
       0.135211         282.669         282.733 
       0.141259         260.913         258.751 
       0.147318         235.556          231.85 
       0.153489         209.046         205.801 
       0.159709         188.566         184.369 
       0.165845         175.151         169.413 
       0.171974         164.139         160.168 
       0.178125         158.962         154.861 
       0.184229         155.115         151.219 
        0.19034         148.636         147.042 
       0.196428         143.955         140.996 
       0.202534         137.177         132.793 
       0.208729         126.896         123.045 
       0.214876         116.799         113.234 
       0.220989         109.335         104.534 
       0.227147         101.679         97.5664 
        0.23329         96.6664         92.5552 
       0.239377         93.6348         89.1408 
       0.245482         89.6143         86.6084 
       0.251667          88.156         84.2299 
       0.257832         85.2309         81.4767 
       0.263955         81.8206         78.1046 
       0.270079         77.9405         74.1852 
        0.27624         74.6726         70.0048 
       0.282372         70.8936         66.0001 
        0.28843         67.0787         62.5096 
       0.294538         64.0445         59.6073 
       0.300721         62.3044         57.2914 
        0.30691         59.7574         55.4288 
       0.313033         58.0724         53.8201 
       0.319153         55.6305         52.2249 
       0.325316         54.7415          50.499 
        0.33145         52.5321         48.6105 
       0.337538         50.8426         46.6286 
       0.343633         48.6648         44.6335 
       0.349808         46.9748         42.7212 
       0.355968         45.3934         41.0055 
       0.362074         43.7976          39.524 
       0.368217         42.4357         38.2387 
       0.374374         41.1326         37.0932 
       0.380519         40.1601         36.0274 
       0.386598          39.087         34.9863 
       0.392688         38.1994         33.9191 
        0.39888         36.9607         32.8088 
       0.405048         35.9259         31.6904 
       0.411186         34.9127         30.6014 
       0.417313         33.7118         29.5724 
       0.423458         32.7606         28.6153 
       0.429607         31.8422         27.7413 
       0.435692         30.8404         26.9516 
       0.441815         30.2435         26.2096 
       0.447964         29.6905         25.4972 
       0.454126         28.5298         24.8012 
       0.460267         28.0155         24.1128 
       0.466387         27.1486         23.4297 
        0.47254         26.6456         22.7548 
       0.478662         26.1426         22.1042 
       0.484765         25.2852          21.483 
       0.490885         24.6884         20.8925 
       0.497035          24.355         20.3352 
       0.503198         23.6675         19.8088 
       0.509342         23.0601         19.3083 
       0.515458         22.5458         18.8274 
       0.521598         22.1241         18.3582 
       0.527764         21.6112         17.8984 
       0.533884         21.2482         17.4514 
           0.54         20.7298         17.0148 
       0.546137         20.3741         16.5899 
       0.552299         20.0006         16.1794 
       0.558452         19.3801         15.7874 
       0.564573         19.0753         15.4137 
       0.570708         18.7259         15.0536 
       0.576825         18.2625         14.7075 
       0.582926         17.8951         14.3736 
       0.589034         17.4279         14.0495 
       0.595184         17.1886         13.7323 
       0.601379         16.8151          13.421 
       0.607522         16.5271         13.1202 
       0.613639         16.3222         12.8292 
       0.619772         15.8818         12.5464 
       0.625918         15.7685         12.2726 
       0.632068         15.5122         12.0083 
       0.638161         15.1418         11.7551 
         0.6443          14.835          11.508 
       0.650464         14.5436         11.2671 
       0.656582         14.4423         11.0345 
       0.662703         14.1621         10.8079 
       0.668861         13.8812          10.586 
       0.675024          13.619         10.3701 
       0.681124          13.382         10.1624 
       0.687237           13.16         9.96025 
       0.693381         13.0095          9.7629 
       0.699536         12.6568         9.57076 
       0.705665         12.5675         9.38477 
       0.711789         12.3073         9.20399 
       0.717957         12.1114         9.02675 
        0.72409         11.9206         8.85515 
       0.730186         11.7558         8.68903 
       0.736317         11.6161         8.52627 
       0.742472         11.4212          8.3671 
       0.748622         11.2672         8.21218 
        0.75476         11.0496         8.06157 
       0.760888         10.8841         7.91505 
       0.767043         10.7428         7.77167 
       0.773185         10.5401         7.63221 
       0.779291         10.4671         7.49702 
       0.785407         10.3237         7.36495 
       0.791564         10.1485         7.23527 
       0.797719          9.9246          7.1088 
       0.803834         9.89444         6.98616 
       0.809972         9.78935         6.86599 
       0.816124         9.57378         6.74839 
       0.822261          9.4361         6.63388 
       0.828378         9.32834         6.52239 
       0.834502         9.25047         6.41339 
       0.840667         9.08909          6.3062 
       0.846816         8.92222         6.20179 
       0.852925          8.8387         6.10043 
       0.859047         8.72947         6.00114 
       0.865192         8.65077         5.90377 
       0.871341         8.55884         5.80852 
       0.877463         8.41348         5.71582 
       0.883569         8.28942         5.62541 
       0.889708         8.15147          5.5365 
       0.895864         8.06758         5.44931 
       0.902008         8.00185          5.3642 
       0.908149         7.91426         5.28097 
       0.914301         7.82352         5.19939 
       0.920448         7.69447         5.11962 
       0.926574         7.60388         5.04181 
       0.932687          7.5162         4.96581 
       0.938823         7.41872         4.89111 
       0.944975         7.32765         4.81779 
       0.951105         7.24926         4.74625 
       0.957225         7.20505          4.6763 
       0.963368         7.11952         4.60753 
       0.969511         7.03503         4.54016 
       0.975621         6.95197         4.47451 
       0.981748         6.86603            4.41 
       0.987916         6.81463         4.34636 
        0.99406         6.70231         4.28424 
        1.00019         6.60478         4.22346 
        1.00632         6.58309         4.16392 
        1.01246          6.5059         4.10546 
        1.01859         6.40338         4.04822 
        1.02471         6.36307         3.99215 
        1.03085           6.288         3.93696 
        1.03698         6.19846         3.88294 
        1.04314          6.1561         3.82971 
        1.04929          6.0803          3.7776 
        1.05541         6.00724         3.72669 
        1.06154         5.96092         3.67659 
        1.06769          5.9322         3.62735 
        1.07382          5.8352         3.57918 
        1.07993         5.77522         3.53199 
        1.08607         5.73673         3.48547 
        1.09222         5.67686         3.43975 
        1.09836         5.60941         3.39491 
        1.10449         5.56251         3.35092 
        1.11063         5.49553         3.30767 
        1.11677         5.46461         3.26521 
         1.1229         5.42106         3.22356 
        1.12903         5.34722         3.18262 
        1.13518         5.28556         3.14235 
        1.14131         5.24163         3.10281 
        1.14745         5.18298         3.06398 
        1.15359         5.15072          3.0258 
        1.15973          5.0929         2.98827 
        1.16584         5.02934         2.95155 
        1.17197         4.99015          2.9154 
        1.17811         4.96799         2.87974 
        1.18424         4.91341         2.84479 
        1.19038         4.89009         2.81033 
        1.19652         4.82914         2.77645 
        1.20267         4.78064         2.74314 
        1.20881         4.75955         2.71038 
        1.21495         4.71259         2.67821 
        1.22108         4.65876         2.64658 
         1.2272         4.62579         2.61553 
        1.23334         4.57207         2.58491 
        1.23949         4.52977         2.55472 
        1.24562          4.5051         2.52509 
        1.25174         4.46265         2.49598 
        1.25789         4.42872         2.46725 
        1.26402         4.39936         2.43902 
        1.27014         4.35866          2.4113 
        1.27628         4.31403         2.38394 
        1.28244         4.26591         2.35694 
        1.28858          4.2593         2.33041 
        1.29471         4.20382         2.30434 
        1.30084          4.1632          2.2787 
        1.30697         4.16067         2.25342 
        1.31312          4.0891         2.22848 
        1.31925         4.06004           2.204 
        1.32537         4.02997         2.17992 
        1.33151         4.01585         2.15611 
        1.33765           3.966         2.13267 
        1.34378         3.94224         2.10963 
        1.34992         3.91554         2.08691 
        1.35606         3.86957         2.06449 
         1.3622         3.85276         2.04243 
        1.36833         3.81547         2.02075 
        1.37445         3.78825          1.9994 
        1.38059          3.7774          1.9783 
        1.38675         3.74407         1.95745 
        1.39288         3.71914         1.93698 
        1.39901         3.67113         1.91682 
        1.40515         3.65125          1.8969 
         1.4113         3.62583         1.87727 
        1.41742         3.59784           1.858 
        1.42355         3.56591         1.83896 
         1.4297         3.54564         1.82014 
        1.43585         3.52606         1.80159 
        1.44198         3.50659         1.78337 
        1.44809         3.47232         1.76543 
        1.45423         3.44439         1.74768 
        1.46036         3.41334         1.73021 
        1.46649         3.39647         1.71296 
        1.47263         3.36568         1.69595 
        1.47877         3.34198         1.67917 
        1.48491         3.32093         1.66259 
        1.49104         3.29997         1.64628 
        1.49718         3.27697         1.63017 
        1.50333         3.25838         1.61425 
        1.50947          3.2269         1.59858 
         1.5156         3.20859         1.58314 
        1.52172         3.18888         1.56791 
        1.52787          3.1679         1.55284 
          1.534         3.13955           1.538 
        1.54013         3.12507         1.52336 
        1.54627         3.09821         1.50889 
        1.55241         3.07532         1.49461 
        1.55855         3.06181         1.48053 
        1.56467         3.04133         1.46668 
         1.5708         3.02139         1.45296 
        1.57695         2.99668          1.4394 
        1.58308         2.97012         1.42604 
        1.58922         2.96413         1.41284 
        1.59535         2.94543         1.39982 
         1.6015         2.91824         1.38694 
        1.60764         2.90009         1.37423 
        1.61376         2.88615         1.36172 
        1.61989         2.86555         1.34935 
        1.62604         2.84648         1.33711 
        1.63218         2.83974         1.32503 
        1.63831         2.81101         1.31313 
        1.64444         2.79794         1.30137 
        1.65059         2.77028         1.28973 
        1.65673         2.76674         1.27824 
        1.66285         2.73977         1.26693 
        1.66898          2.7256         1.25574 
        1.67512         2.70678         1.24468 
        1.68127         2.69069         1.23373 
         1.6874         2.68127         1.22295 
        1.69353         2.65172          1.2123 
        1.69967         2.64444         1.20175 
        1.70581         2.63096         1.19133 
        1.71193         2.61021         1.18108 
        1.71806         2.59898         1.17092 
        1.72421         2.58182         1.16087 
        1.73035         2.56912         1.15094 
        1.73649         2.55208         1.14114 
        1.74262         2.53474         1.13145 
        1.74876         2.52607         1.12188 
        1.75489         2.50751         1.11243 
        1.76101         2.48828          1.1031 
        1.76715          2.4811         1.09386 
        1.77329         2.46774         1.08472 
        1.77943         2.44335         1.07567 
        1.78557         2.43348         1.06675 
        1.79171         2.42407         1.05792 
        1.79785         2.40755         1.04919 
        1.80399         2.39445         1.04057 
        1.81012         2.37934         1.03205 
        1.81625         2.36998         1.02363 
        1.82239         2.35495         1.01529 
        1.82853         2.33655         1.00706 
        1.83466         2.32873        0.998916 
        1.84078         2.31922        0.990875 
        1.84692         2.30844         0.98291 
        1.85306         2.28855        0.975023 
         1.8592         2.27376        0.967235 
        1.86533         2.26331        0.959537 
        1.87147         2.25441        0.951914 
        1.87761         2.23948        0.944371 
        1.88375         2.22768        0.936919 
        1.88988         2.21762        0.929556 
        1.89601         2.20235        0.922268 
        1.90215          2.1884        0.915053 
        1.90829         2.17629        0.907919 
        1.91442         2.16972         0.90086 
        1.92056         2.15526        0.893883 
         1.9267         2.14298        0.886974 
        1.93284         2.13669        0.880133 
        1.93897         2.12491        0.873378 
        1.94509         2.11313        0.866709 
        1.95123         2.10093        0.860092 
        1.95737         2.08573         0.85354 
        1.96349         2.08111        0.847074 
        1.96964         2.07299        0.840656 
        1.97578         2.05388        0.834302 
        1.98192         2.04857        0.828027 
        1.98805         2.03788        0.821815 
        1.99419         2.02805        0.815668 
        2.00033         2.02005         0.80958 
        2.00647         2.00737        0.803557 
         2.0126         2.00195        0.797605 
        2.01874          1.9837        0.791705 
        2.02488         1.97802        0.785859 
        2.03101         1.96355        0.780084 
        2.03714         1.95606        0.774372 
        2.04328         1.94636        0.768711 
        2.04941         1.93297        0.763112 
        2.05554         1.92714        0.757573 
        2.06167         1.91894        0.752081 
        2.06781         1.91065        0.746643 
        2.07396         1.90239        0.741252 
        2.08009         1.89248        0.735923 
        2.08622         1.88284        0.730653 
        2.09237         1.86959        0.725424 
        2.09851         1.86517        0.720246 
        2.10464         1.85933        0.715127 
        2.11077          1.8452        0.710065 
        2.11691         1.83701         0.70504 
        2.12305          1.8307        0.700063 
        2.12918         1.82407        0.695147 
        2.13531         1.81294        0.690278 
        2.14145         1.80537        0.685444 
         2.1476         1.79359        0.680651 
        2.15372          1.7852        0.675928 
        2.15985         1.78097        0.671246 
        2.16599         1.76994        0.666594 
        2.17213         1.75867        0.661992 
        2.17827         1.75534        0.657434 
         2.1844         1.74679        0.652924 
        2.19054         1.73914        0.648454 
        2.19666         1.72985        0.644033 
         2.2028         1.72153         0.63965 
        2.20893         1.71494        0.635305 
        2.21508         1.70641        0.630995 
        2.22122         1.69714        0.626725 
        2.22736         1.69122        0.622503 
        2.23349         1.68413        0.618321 
        2.23962         1.67404        0.614175 
        2.24577         1.67066        0.610064 
         2.2519          1.6641        0.605996 
        2.25802         1.65649        0.601972 
        2.26417         1.64999        0.597974 
        2.27031         1.64122        0.594008 
        2.27644         1.63306        0.590089 
        2.28257          1.6228        0.586207 
        2.28872         1.62154        0.582352 
        2.29486         1.61003        0.578533 
        2.30099         1.60308        0.574755 
        2.30712         1.59636         0.57101 
        2.31326         1.58992        0.567292 
         2.3194         1.58518         0.56361 
        2.32553         1.57963        0.559966 
        2.33166         1.57149        0.556357 
         2.3378         1.56403        0.552774 
        2.34394          1.5561        0.549222 
        2.35007         1.55061        0.545706 
        2.35619         1.54531        0.542225 
        2.36233         1.53731        0.538767 
        2.36848         1.53108        0.535332 
        2.37462         1.52667        0.531934 
        2.38075         1.51842        0.528568 
        2.38689         1.51511         0.52523 
        2.39303         1.50548        0.521921 
        2.39916         1.50103        0.518643 
        2.40529         1.49416        0.515395 
        2.41143         1.48734        0.512172 
        2.41757         1.48233        0.508975 
         2.4237         1.47832        0.505811 
        2.42983         1.46865        0.502675 
        2.43598         1.46481        0.499557 
        2.44211         1.45722         0.49647 
        2.44823         1.45261        0.493417 
        2.45437         1.44661        0.490381 
        2.46052         1.44292        0.487368 
        2.46665         1.43577        0.484386 
        2.47279         1.42852         0.48143 
        2.47892         1.42378        0.478497 
        2.48507         1.41983        0.475585 
         2.4912         1.40891        0.472703 
