#  k  (h/Mpc)          P(k)  (Mpc/h)^3     P_linear(k) (Mpc/h)^3
     0.00783031         5241.87         5269.89 
       0.013688         6577.78         6691.57 
       0.019231          6916.6         6979.88 
      0.0249154         6665.82         6660.45 
      0.0312784         5929.41         5963.58 
      0.0375637         5161.53         5215.82 
      0.0433917         4603.77         4614.27 
      0.0492413         4111.04         4145.83 
      0.0555754         3771.75          3778.5 
      0.0619321         3426.28         3507.35 
       0.067871         3251.58         3291.01 
      0.0738098         3046.08         3072.42 
      0.0800417         2805.62         2821.65 
      0.0862327         2529.49         2554.52 
      0.0921407         2283.57          2300.7 
      0.0982031         2068.17         2062.98 
       0.104506         1844.04         1857.34 
       0.110769         1696.68         1701.05 
       0.116806         1611.58         1591.04 
       0.122832         1512.37         1509.45 
       0.129052         1447.08         1439.88 
       0.135211         1394.04         1372.05 
       0.141259          1306.1         1298.19 
       0.147318         1210.42         1215.15 
       0.153489         1133.74         1125.08 
       0.159709         1065.47         1035.85 
       0.165845         968.437         956.368 
       0.171974         932.204          890.01 
       0.178125         885.655         837.644 
       0.184229         827.565         797.837 
        0.19034         808.129          766.17 
       0.196428         781.743         738.172 
       0.202534         735.419         709.695 
       0.208729          719.11         677.995 
       0.214876         689.727           643.4 
       0.220989          642.47         607.269 
       0.227147         624.036         571.438 
        0.23329         596.649         538.522 
       0.239377         579.212         510.191 
       0.245482         548.874         486.515 
       0.251667         526.515         466.819 
       0.257832         520.364         450.197 
       0.263955         493.232         435.163 
       0.270079         477.041          420.27 
        0.27624         457.264         404.602 
       0.282372         445.428          388.16 
        0.28843         440.993         371.426 
       0.294538         418.712         354.758 
       0.300721         402.568         338.831 
        0.30691         395.445         324.397 
       0.313033         378.381         311.824 
       0.319153         371.588         300.836 
       0.325316         361.567         291.001 
        0.33145         352.473         281.952 
       0.337538         340.846         273.254 
       0.343633         330.558          264.53 
       0.349808         321.395         255.545 
       0.355968         314.158         246.517 
       0.362074          306.27         237.683 
       0.368217         301.331         229.155 
       0.374374         294.323         221.148 
       0.380519         282.186         213.803 
       0.386598         277.484         207.168 
       0.392688         270.732         201.044 
        0.39888         264.689         195.221 
       0.405048         259.693         189.659 
       0.411186         256.635         184.238 
       0.417313         251.184         178.889 
       0.423458         244.599         173.571 
       0.429607         239.379         168.345 
       0.435692         235.032         163.341 
       0.441815         229.905         158.525 
       0.447964         223.617          153.95 
       0.454126         219.927          149.65 
       0.460267         217.625         145.614 
       0.466387         213.208         141.797 
        0.47254           210.7          138.12 
       0.478662         204.119         134.579 
       0.484765         201.586         131.126 
       0.490885         198.205         127.735 
       0.497035         196.297         124.409 
       0.503198         192.951         121.171 
       0.509342          187.89         118.051 
       0.515458         185.906         115.068 
       0.521598         181.546         112.207 
       0.527764         179.589         109.463 
       0.533884         178.928          106.85 
           0.54         174.392         104.336 
       0.546137         170.532         101.897 
       0.552299         168.826         99.5205 
       0.558452         165.835         97.2094 
       0.564573         165.037         94.9663 
       0.570708         160.847         92.7787 
       0.576825         158.921         90.6638 
       0.582926          157.22         88.6242 
       0.589034         154.945         86.6517 
       0.595184         153.497         84.7329 
       0.601379         149.923          82.866 
       0.607522         147.644         81.0764 
       0.613639          146.45         79.3508 
       0.619772         144.485         77.6719 
       0.625918         143.334         76.0357 
       0.632068         140.384         74.4408 
       0.638161         138.533         72.9013 
         0.6443         137.901         71.3922 
       0.650464         135.316         69.9204 
       0.656582         134.725         68.5026 
       0.662703         133.157         67.1268 
       0.668861         130.405         65.7834 
       0.675024          130.45         64.4773 
       0.681124         128.313         63.2205 
       0.687237         126.105         61.9948 
       0.693381         125.507         60.7955 
       0.699536         123.914         59.6255 
       0.705665         122.198         58.4913 
       0.711789         120.738         57.3875 
       0.717957         119.428         56.3047 
        0.72409         118.626         55.2559 
       0.730186         117.936         54.2404 
       0.736317         115.824         53.2451 
       0.742472         114.512         52.2713 
       0.748622         112.837          51.323 
        0.75476          112.56         50.4006 
       0.760888          111.81         49.5027 
       0.767043         109.816         48.6233 
       0.773185         108.591         47.7673 
       0.779291         107.408         46.9371 
       0.785407         106.197         46.1255 
       0.791564         106.002         45.3281 
       0.797719         104.731           44.55 
       0.803834         103.913         43.7952 
       0.809972         103.262         43.0553 
       0.816124         102.015         42.3309 
       0.822261          100.77         41.6252 
       0.828378         100.556         40.9379 
       0.834502         98.9826         40.2655 
       0.840667         98.5125          39.604 
       0.846816          97.604         38.9594 
       0.852925         96.5745         38.3332 
       0.859047         96.1848         37.7196 
       0.865192         94.8795         37.1174 
       0.871341         93.8734         36.5282 
       0.877463         93.3274         35.9544 
       0.883569         93.0765         35.3945 
       0.889708          92.259         34.8438 
       0.895864         91.4046         34.3034 
       0.902008         90.6154         33.7757 
       0.908149         89.5342         33.2595 
       0.914301         89.3208         32.7532 
       0.920448         88.8773         32.2581 
       0.926574         87.2245          31.775 
       0.932687         86.9903         31.3029 
       0.938823         86.2862         30.8387 
       0.944975         85.3063         30.3829 
       0.951105         84.6714          29.938 
       0.957225         84.5832         29.5028 
       0.963368         83.6662         29.0749 
       0.969511         82.9483         28.6555 
       0.975621         82.3833         28.2466 
       0.981748         81.5855         27.8447 
       0.987916          81.052         27.4481 
        0.99406          80.659         27.0608 
        1.00019         79.7566         26.6818 
        1.00632         79.2721         26.3104 
        1.01246         78.7411         25.9456 
        1.01859         78.4278         25.5882 
        1.02471         77.5474         25.2381 
        1.03085         77.0402         24.8934 
        1.03698         76.5964         24.5559 
        1.04314         76.0592         24.2232 
        1.04929         75.5485         23.8975 
        1.05541         75.0739         23.5791 
        1.06154          74.668         23.2657 
        1.06769         73.8045         22.9576 
        1.07382         73.3641         22.6561 
        1.07993          73.079         22.3607 
        1.08607         72.4778         22.0694 
        1.09222         72.2454          21.783 
        1.09836         71.5617          21.502 
        1.10449          71.174         21.2264 
        1.11063         70.6044         20.9553 
        1.11677         70.3964          20.689 
         1.1229         69.6879         20.4278 
        1.12903         69.5235          20.171 
        1.13518         69.3053         19.9183 
        1.14131         68.5718         19.6702 
        1.14745         67.9875         19.4264 
        1.15359         67.3622         19.1867 
        1.15973         67.3034          18.951 
        1.16584         66.8281         18.7203 
        1.17197         66.1446         18.4932 
        1.17811          65.908         18.2691 
        1.18424         65.1457         18.0494 
        1.19038         65.1041         17.8327 
        1.19652         64.7992         17.6196 
        1.20267         64.3164         17.4101 
        1.20881         63.8888          17.204 
        1.21495         63.6349         17.0016 
        1.22108         63.3589         16.8025 
         1.2272         62.7936          16.607 
        1.23334         62.4843         16.4142 
        1.23949         62.1279          16.224 
        1.24562         61.6563         16.0374 
        1.25174         61.2914          15.854 
        1.25789         61.3257         15.6729 
        1.26402         60.7629          15.495 
        1.27014         60.4638         15.3203 
        1.27628         59.9108         15.1477 
        1.28244         59.7773         14.9775 
        1.28858         59.3936         14.8101 
        1.29471         59.1115         14.6457 
        1.30084          58.595         14.4839 
        1.30697         58.5658         14.3244 
        1.31312         58.0164          14.167 
        1.31925         57.6185         14.0125 
        1.32537         57.3861         13.8604 
        1.33151         57.0713         13.7101 
        1.33765         56.7996          13.562 
        1.34378         56.5794         13.4165 
        1.34992         56.1733          13.273 
        1.35606         55.8318         13.1313 
         1.3622         55.5224         12.9919 
        1.36833         55.2223         12.8549 
        1.37445         54.7759         12.7199 
        1.38059         54.7084         12.5865 
        1.38675         54.1201         12.4546 
        1.39288         54.1369         12.3252 
        1.39901         53.7005         12.1976 
        1.40515         53.4803         12.0716 
         1.4113         53.4277         11.9475 
        1.41742         53.0586         11.8255 
        1.42355         52.6132         11.7051 
         1.4297          52.359         11.5859 
        1.43585         52.0226         11.4685 
        1.44198         51.7468         11.3531 
        1.44809          51.486         11.2395 
        1.45423         51.3106         11.1271 
        1.46036         51.0488         11.0164 
        1.46649         50.8639         10.9072 
        1.47263         50.5012         10.7994 
        1.47877         50.3321         10.6931 
        1.48491         50.1281         10.5881 
        1.49104         49.7087         10.4847 
        1.49718         49.5297         10.3826 
        1.50333         49.3637         10.2817 
        1.50947         49.0025         10.1823 
         1.5156         48.8169         10.0845 
        1.52172         48.4577         9.98786 
        1.52787          48.266         9.89234 
          1.534         48.0452         9.79818 
        1.54013         47.9262         9.70534 
        1.54627         47.4724         9.61353 
        1.55241         47.2776          9.5229 
        1.55855         47.1994         9.43357 
        1.56467         46.8906         9.34563 
         1.5708         46.7434         9.25856 
        1.57695         46.4642         9.17247 
        1.58308         46.1087         9.08768 
        1.58922         45.9311          9.0039 
        1.59535          45.784         8.92121 
         1.6015         45.6919         8.83944 
        1.60764         45.4008         8.75874 
        1.61376         45.1041         8.67927 
        1.61989         44.8562         8.60072 
        1.62604         44.6797         8.52297 
        1.63218         44.4406         8.44623 
        1.63831         44.3418         8.37061 
        1.64444         44.0569         8.29589 
        1.65059         43.8727         8.22191 
        1.65673         43.6089         8.14891 
        1.66285         43.5498           8.077 
        1.66898         43.1227         8.00594 
        1.67512         43.0831         7.93559 
        1.68127         42.8457         7.86603 
         1.6874         42.6158         7.79745 
        1.69353         42.5289         7.72974 
        1.69967         42.3438         7.66267 
        1.70581         41.9625         7.59642 
        1.71193         41.7924         7.53121 
        1.71806         41.6836         7.46663 
        1.72421         41.5006         7.40268 
        1.73035         41.2708         7.33955 
        1.73649         40.9913         7.27717 
        1.74262         40.7496         7.21556 
        1.74876         40.6461         7.15463 
        1.75489         40.4545         7.09453 
        1.76101         40.3203         7.03513 
        1.76715         40.1913         6.97633 
        1.77329         39.8588         6.91814 
        1.77943         39.8431         6.86058 
        1.78557          39.619         6.80376 
        1.79171         39.4599         6.74757 
        1.79785         39.2392           6.692 
        1.80399         39.0843         6.63708 
        1.81012         38.9454         6.58284 
        1.81625         38.6111         6.52924 
        1.82239         38.4983         6.47615 
        1.82853         38.3728         6.42367 
        1.83466         38.1577         6.37183 
        1.84078         37.9833         6.32062 
        1.84692         37.8267         6.26988 
        1.85306         37.5919         6.21965 
         1.8592         37.5246         6.17004 
        1.86533         37.3289           6.121 
        1.87147         37.1552         6.07243 
        1.87761         36.9347         6.02437 
        1.88375         36.8986         5.97689 
        1.88988         36.6659         5.92998 
        1.89601         36.4379         5.88353 
        1.90215         36.3593         5.83756 
        1.90829         36.1895         5.79209 
        1.91442         35.9847          5.7471 
        1.92056         35.8507         5.70263 
         1.9267         35.7569         5.65859 
        1.93284          35.534         5.61499 
        1.93897         35.4282         5.57193 
        1.94509         35.2605         5.52941 
        1.95123         35.1257         5.48723 
        1.95737         34.9164         5.44545 
        1.96349         34.7875         5.40423 
        1.96964          34.735          5.3633 
        1.97578         34.4541         5.32279 
        1.98192         34.3268         5.28277 
        1.98805           34.11         5.24316 
        1.99419         34.0657         5.20396 
        2.00033          33.863         5.16514 
        2.00647         33.7831         5.12672 
         2.0126         33.5765         5.08876 
        2.01874         33.4094         5.05113 
        2.02488         33.2891         5.01384 
        2.03101          33.093           4.977 
        2.03714         33.0022         4.94056 
        2.04328         32.8803         4.90445 
        2.04941         32.7047         4.86872 
        2.05554         32.6186         4.83338 
        2.06167         32.4129         4.79834 
        2.06781         32.3371         4.76364 
        2.07396         32.2206         4.72924 
        2.08009         32.0457         4.69523 
        2.08622         31.8837          4.6616 
        2.09237         31.8053         4.62823 
        2.09851         31.5687         4.59518 
        2.10464         31.4262         4.56251 
        2.11077         31.4183          4.5302 
        2.11691         31.2186         4.49812 
        2.12305         31.0807         4.46636 
        2.12918         30.9556         4.43498 
        2.13531         30.8408         4.40389 
        2.14145         30.7046         4.37304 
         2.1476         30.5152         4.34244 
        2.15372         30.4364         4.31229 
        2.15985         30.3146         4.28239 
        2.16599         30.1284          4.2527 
        2.17213         30.0745         4.22331 
        2.17827         29.8878         4.19422 
         2.1844         29.8106         4.16542 
        2.19054         29.7107         4.13688 
        2.19666         29.5192         4.10865 
         2.2028         29.4684         4.08065 
        2.20893         29.2897          4.0529 
        2.21508         29.1966         4.02538 
        2.22122         29.0477         3.99811 
        2.22736         28.9409         3.97115 
        2.23349           28.77         3.94444 
        2.23962         28.7275         3.91796 
        2.24577          28.573          3.8917 
         2.2519         28.4731         3.86572 
        2.25802          28.302         3.84001 
        2.26417          28.171         3.81447 
        2.27031         28.1273         3.78914 
        2.27644          28.058         3.76411 
        2.28257          27.901         3.73931 
        2.28872         27.8017         3.71469 
        2.29486         27.6468         3.69029 
        2.30099         27.5018         3.66616 
        2.30712         27.4487         3.64224 
        2.31326         27.2849         3.61848 
         2.3194         27.2109         3.59496 
        2.32553         27.0932         3.57168 
        2.33166         26.9561         3.54862 
         2.3378         26.9178         3.52573 
        2.34394         26.7615         3.50303 
        2.35007         26.6989         3.48057 
        2.35619         26.5614         3.45833 
        2.36233         26.4199         3.43623 
        2.36848         26.2993         3.41428 
        2.37462         26.2407         3.39257 
        2.38075          26.099         3.37107 
        2.38689         25.9738         3.34973 
        2.39303         25.9518         3.32858 
        2.39916          25.772         3.30764 
        2.40529         25.6478         3.28688 
        2.41143         25.5917         3.26628 
        2.41757         25.4256         3.24585 
         2.4237          25.355         3.22563 
        2.42983         25.2699         3.20559 
        2.43598         25.1465         3.18566 
        2.44211         25.0777         3.16593 
        2.44823         24.9467         3.14642 
        2.45437         24.9053         3.12701 
        2.46052         24.7459         3.10776 
        2.46665         24.6929          3.0887 
        2.47279         24.5266          3.0698 
        2.47892         24.4584         3.05105 
        2.48507         24.3722         3.03244 
         2.4912         24.2882         3.01403 
