# k  (h/Mpc)    P(k)  (Mpc/h)^3    P_linear(k)  (Mpc/h)^3
     0.00783031         1158.29         1167.18 
       0.013688         1523.16         1541.17 
       0.019231         1633.61         1642.38 
      0.0249154         1590.33         1591.17 
      0.0312784         1441.96         1445.22 
      0.0375637         1278.03         1283.07 
      0.0433917         1154.04         1153.14 
      0.0492413         1050.66         1053.39 
      0.0555754         976.504          975.38 
      0.0619321         905.894         915.019 
       0.067871         858.521         861.931 
      0.0738098         801.744         803.903 
      0.0800417         735.526         735.711 
      0.0862327         662.877         664.524 
      0.0921407         598.153         599.735 
      0.0982031         543.209         542.205 
       0.104506          492.91         495.238 
       0.110769         459.475         461.226 
       0.116806         438.946         437.416 
       0.122832         416.769         418.271 
       0.129052         399.069         399.168 
       0.135211         379.678         378.088 
       0.141259         354.512         354.566 
       0.147318         327.477         329.295 
       0.153489         304.144         303.946 
       0.159709         283.039         281.005 
       0.165845         261.405          262.31 
       0.171974         250.758         247.801 
       0.178125         239.601         236.688 
       0.184229         228.615         227.756 
        0.19034         222.113         219.471 
       0.196428         213.262         210.759 
       0.202534          201.22         201.046 
       0.208729         192.838         190.328 
       0.214876         183.478         179.445 
       0.220989         170.725         169.139 
       0.227147         164.481         159.914 
        0.23329         157.226         152.172 
       0.239377         151.493         145.881 
       0.245482         145.322          140.62 
       0.251667         139.704         135.878 
       0.257832         136.742         131.273 
       0.263955         130.512         126.515 
       0.270079         125.591         121.476 
        0.27624         119.683         116.226 
       0.282372         115.066         111.052 
        0.28843         112.154         106.223 
       0.294538         107.274         101.821 
       0.300721         102.607         97.9069 
        0.30691         100.339         94.4906 
       0.313033         96.7582         91.4732 
       0.319153         95.0467         88.6591 
       0.325316         90.8962         85.8824 
        0.33145         88.0497          83.094 
       0.337538          85.457         80.2789 
       0.343633         82.9032          77.459 
       0.349808         80.0358         74.6695 
       0.355968         77.3854         72.0342 
       0.362074         75.6863         69.6144 
       0.368217         73.4283         67.3912 
       0.374374         71.9628          65.353 
       0.380519         69.0599         63.4618 
       0.386598         67.1594         61.6827 
       0.392688         65.2956         59.9447 
        0.39888         63.9907         58.1975 
       0.405048         62.4087         56.4745 
       0.411186         60.7153         54.7859 
       0.417313         59.0298         53.1517 
       0.423458         57.2891         51.5867 
       0.429607         56.2985         50.1057 
       0.435692         55.2469         48.7301 
       0.441815         53.2501         47.4278 
       0.447964         51.7302         46.1853 
       0.454126         50.8632         44.9896 
       0.460267         50.3242         43.8343 
       0.466387         48.8814         42.7082 
        0.47254          48.111         41.5986 
       0.478662         46.6715         40.5227 
       0.484765         45.6952         39.4836 
       0.490885         44.4211         38.4796 
       0.497035         43.6318         37.5125 
       0.503198         42.6751         36.5883 
       0.509342         41.5849         35.7075 
       0.515458         41.0616         34.8649 
       0.521598          40.125         34.0475 
       0.527764         39.6004         33.2516 
       0.533884         38.5973         32.4837 
           0.54         37.8685          31.736 
       0.546137          36.766         31.0051 
       0.552299         36.1732         30.2927 
       0.558452         35.4581         29.6049 
       0.564573         35.0694         28.9449 
       0.570708         34.1905         28.3067 
       0.576825         33.6923         27.6918 
       0.582926         33.0916         27.0985 
       0.589034         32.4797         26.5227 
       0.595184         32.0661         25.9602 
       0.601379         31.2146         25.4097 
       0.607522         30.7548         24.8785 
       0.613639           30.19         24.3633 
       0.619772         29.7393         23.8608 
       0.625918         29.1323         23.3717 
       0.632068         28.8786         22.8968 
       0.638161         28.2957         22.4407 
         0.6443         27.8395         21.9949 
       0.650464         27.1627         21.5602 
       0.656582         27.0074         21.1407 
       0.662703         26.6858         20.7322 
       0.668861         25.9805         20.3319 
       0.675024         25.6541         19.9417 
       0.681124         25.5233         19.5656 
       0.687237         25.0106         19.1986 
       0.693381         24.4477         18.8395 
       0.699536         24.3549         18.4893 
       0.705665         23.9088         18.1498 
       0.711789         23.4651         17.8193 
       0.717957         23.0072         17.4949 
        0.72409          22.822         17.1806 
       0.730186         22.6834          16.876 
       0.736317         22.2214         16.5772 
       0.742472         21.9492         16.2846 
       0.748622         21.6124         15.9995 
        0.75476         21.0828         15.7219 
       0.760888         20.9883         15.4513 
       0.767043         20.6275         15.1863 
       0.773185         20.4055          14.928 
       0.779291         20.2654         14.6774 
       0.785407         19.8895         14.4323 
       0.791564         19.7193         14.1913 
       0.797719         19.3241         13.9561 
       0.803834         19.2165         13.7277 
       0.809972          18.865         13.5037 
       0.816124         18.6591         13.2843 
       0.822261         18.4531         13.0704 
       0.828378         18.2228         12.8619 
       0.834502         18.0491         12.6579 
       0.840667         17.8677          12.457 
       0.846816         17.4975         12.2612 
       0.852925         17.3987         12.0708 
       0.859047         17.1909         11.8841 
       0.865192         16.9599         11.7009 
       0.871341          16.729         11.5214 
       0.877463         16.5662         11.3466 
       0.883569         16.4497          11.176 
       0.889708         16.1876          11.008 
       0.895864          15.996         10.8431 
       0.902008         15.8014         10.6819 
       0.908149         15.6042         10.5242 
       0.914301         15.5176         10.3695 
       0.920448         15.2909          10.218 
       0.926574         15.2084         10.0702 
       0.932687         14.9782         9.92562 
       0.938823         14.7918         9.78341 
       0.944975           14.67          9.6437 
       0.951105         14.4865         9.50726 
       0.957225         14.4074         9.37373 
       0.963368         14.2178         9.24235 
       0.969511         14.0668         9.11351 
       0.975621         13.9221         8.98785 
       0.981748         13.7281         8.86427 
       0.987916         13.6255         8.74226 
        0.99406         13.5303         8.62304 
        1.00019         13.4024          8.5063 
        1.00632         13.2792         8.39186 
        1.01246         13.1326         8.27939 
        1.01859          12.984         8.16918 
        1.02471         12.8225         8.06114 
        1.03085         12.7865         7.95471 
        1.03698         12.6547         7.85045 
        1.04314         12.5191         7.74764 
        1.04929         12.3465         7.64693 
        1.05541         12.2861         7.54844 
        1.06154         12.1781         7.45147 
        1.06769         12.1203         7.35607 
        1.07382         11.9112         7.26268 
        1.07993         11.8026         7.17114 
        1.08607         11.7533         7.08083 
        1.09222          11.601           6.992 
        1.09836         11.5805         6.90481 
        1.10449          11.368         6.81924 
        1.11063         11.3408         6.73504 
        1.11677         11.2546         6.65231 
         1.1229         11.1529         6.57113 
        1.12903         11.0766         6.49126 
        1.13518         10.9059         6.41266 
        1.14131         10.8382         6.33542 
        1.14745         10.7043         6.25952 
        1.15359         10.6339         6.18486 
        1.15973         10.5389          6.1114 
        1.16584         10.4627         6.03948 
        1.17197          10.371         5.96862 
        1.17811         10.2786         5.89871 
        1.18424         10.2054         5.83012 
        1.19038         10.1383         5.76244 
        1.19652         10.0654         5.69588 
        1.20267         9.98053         5.63037 
        1.20881         9.88319         5.56592 
        1.21495          9.8033         5.50259 
        1.22108         9.75058         5.44027 
         1.2272         9.65112         5.37907 
        1.23334          9.6322         5.31868 
        1.23949         9.51909         5.25908 
        1.24562         9.44624         5.20058 
        1.25174         9.39117         5.14306 
        1.25789         9.26372         5.08624 
        1.26402         9.23453          5.0304 
        1.27014         9.17859         4.97554 
        1.27628         9.06874         4.92134 
        1.28244         9.05039         4.86785 
        1.28858         8.99023         4.81524 
        1.29471         8.86639         4.76354 
        1.30084         8.80393         4.71264 
        1.30697         8.78086         4.66242 
        1.31312         8.69664         4.61287 
        1.31925         8.63721         4.56421 
        1.32537         8.58776          4.5163 
        1.33151         8.51525         4.46892 
        1.33765         8.44887         4.42225 
        1.34378         8.43159         4.37634 
        1.34992         8.34904         4.33107 
        1.35606         8.29247         4.28634 
         1.3622         8.22999         4.24233 
        1.36833         8.16998         4.19906 
        1.37445         8.10686         4.15641 
        1.38059         8.06396         4.11423 
        1.38675         7.99923         4.07255 
        1.39288         7.95008         4.03161 
        1.39901         7.88186         3.99126 
        1.40515         7.84075         3.95138 
         1.4113         7.78143         3.91206 
        1.41742         7.74005         3.87343 
        1.42355         7.67617         3.83526 
         1.4297         7.64289         3.79749 
        1.43585         7.59429         3.76025 
        1.44198         7.53886         3.72366 
        1.44809         7.50525         3.68763 
        1.45423         7.44485         3.65195 
        1.46036         7.40432         3.61681 
        1.46649         7.34791         3.58212 
        1.47263         7.31675         3.54787 
        1.47877         7.26536         3.51408 
        1.48491         7.22807         3.48068 
        1.49104         7.16951         3.44779 
        1.49718         7.14279         3.41531 
        1.50333         7.09084         3.38319 
        1.50947         7.02411         3.35156 
         1.5156          7.0147         3.32038 
        1.52172          6.9727         3.28961 
        1.52787          6.9282         3.25916 
          1.534         6.88571         3.22914 
        1.54013         6.84566         3.19954 
        1.54627         6.80261         3.17025 
        1.55241         6.74979         3.14133 
        1.55855         6.73372         3.11282 
        1.56467         6.68371         3.08474 
         1.5708         6.64755         3.05693 
        1.57695          6.5879         3.02943 
        1.58308         6.55174         3.00233 
        1.58922         6.53201         2.97555 
        1.59535         6.49229          2.9491 
         1.6015         6.44236         2.92295 
        1.60764         6.42004         2.89713 
        1.61376         6.38641         2.87169 
        1.61989         6.32768         2.84654 
        1.62604         6.30332         2.82164 
        1.63218         6.27405         2.79705 
        1.63831         6.25276         2.77282 
        1.64444         6.20057         2.74887 
        1.65059         6.17503         2.72515 
        1.65673         6.14035         2.70173 
        1.66285         6.10799         2.67866 
        1.66898         6.06829         2.65585 
        1.67512         6.03136         2.63327 
        1.68127         5.99648         2.61093 
         1.6874          5.9834          2.5889 
        1.69353         5.92689         2.56715 
        1.69967         5.90935         2.54559 
        1.70581         5.87179         2.52429 
        1.71193         5.84531         2.50332 
        1.71806         5.81768         2.48254 
        1.72421         5.78228         2.46196 
        1.73035         5.75096         2.44164 
        1.73649         5.72325         2.42156 
        1.74262         5.69424         2.40171 
        1.74876         5.67212         2.38208 
        1.75489         5.64191         2.36271 
        1.76101          5.6031         2.34357 
        1.76715          5.5922         2.32461 
        1.77329         5.55929         2.30584 
        1.77943         5.52046         2.28727 
        1.78557         5.50028         2.26893 
        1.79171         5.48185         2.25079 
        1.79785          5.4461         2.23285 
        1.80399          5.4063         2.21512 
        1.81012         5.38848          2.1976 
        1.81625          5.3638         2.18027 
        1.82239         5.33901         2.16311 
        1.82853         5.30925         2.14615 
        1.83466         5.27133         2.12938 
        1.84078         5.25123         2.11282 
        1.84692         5.22978          2.0964 
        1.85306         5.20433         2.08014 
         1.8592         5.18893         2.06408 
        1.86533         5.15811          2.0482 
        1.87147         5.13427         2.03247 
        1.87761         5.12035          2.0169 
        1.88375         5.08823         2.00151 
        1.88988         5.06491          1.9863 
        1.89601         5.03269         1.97124 
        1.90215          5.0019         1.95633 
        1.90829         5.00124         1.94158 
        1.91442         4.96201         1.92698 
        1.92056         4.95279         1.91255 
         1.9267         4.92392         1.89825 
        1.93284         4.91337         1.88409 
        1.93897         4.86982          1.8701 
        1.94509         4.85638         1.85629 
        1.95123         4.83385         1.84258 
        1.95737         4.81594           1.829 
        1.96349         4.78219          1.8156 
        1.96964         4.76402         1.80229 
        1.97578         4.74966         1.78911 
        1.98192         4.71955         1.77608 
        1.98805         4.71025         1.76319 
        1.99419         4.68757         1.75043 
        2.00033         4.65013         1.73778 
        2.00647         4.64945         1.72527 
         2.0126          4.6226          1.7129 
        2.01874         4.61106         1.70064 
        2.02488         4.58112         1.68848 
        2.03101         4.55633         1.67647 
        2.03714         4.54911         1.66459 
        2.04328         4.52453         1.65281 
        2.04941           4.507         1.64115 
        2.05554         4.49222         1.62962 
        2.06167         4.46294         1.61818 
        2.06781         4.45154         1.60685 
        2.07396         4.42608         1.59561 
        2.08009         4.41711          1.5845 
        2.08622         4.39586         1.57351 
        2.09237         4.38865         1.56261 
        2.09851         4.35259         1.55181 
        2.10464         4.34418         1.54112 
        2.11077         4.33443         1.53055 
        2.11691         4.30801         1.52006 
        2.12305         4.28716         1.50967 
        2.12918         4.27331          1.4994 
        2.13531         4.25065         1.48922 
        2.14145         4.24185         1.47912 
         2.1476         4.21225          1.4691 
        2.15372         4.20327         1.45922 
        2.15985         4.18597         1.44943 
        2.16599         4.17257         1.43969 
        2.17213         4.15465         1.43006 
        2.17827         4.13208         1.42052 
         2.1844         4.11345         1.41108 
        2.19054          4.1023         1.40171 
        2.19666         4.08738         1.39245 
         2.2028         4.06018         1.38326 
        2.20893         4.05587         1.37416 
        2.21508         4.04617         1.36512 
        2.22122          4.0167         1.35616 
        2.22736          4.0066         1.34731 
        2.23349         3.98693         1.33853 
        2.23962         3.97938         1.32983 
        2.24577         3.95509          1.3212 
         2.2519         3.94177         1.31266 
        2.25802         3.92812         1.30421 
        2.26417          3.9116         1.29581 
        2.27031         3.89486         1.28748 
        2.27644         3.88582         1.27924 
        2.28257         3.86704         1.27108 
        2.28872         3.85432         1.26297 
        2.29486         3.83493         1.25494 
        2.30099         3.82023         1.24699 
        2.30712           3.812         1.23911 
        2.31326         3.79568         1.23129 
         2.3194         3.78036         1.22353 
        2.32553          3.7716         1.21586 
        2.33166         3.76026         1.20826 
         2.3378         3.74338         1.20071 
        2.34394          3.7264         1.19323 
        2.35007         3.70666         1.18581 
        2.35619          3.7009         1.17848 
        2.36233         3.68703         1.17118 
        2.36848         3.67587         1.16394 
        2.37462          3.6626         1.15677 
        2.38075         3.65118         1.14967 
        2.38689         3.63799         1.14262 
        2.39303         3.62507         1.13564 
        2.39916          3.6062         1.12872 
        2.40529         3.59616         1.12186 
        2.41143         3.59054         1.11505 
        2.41757          3.5785         1.10829 
         2.4237         3.55998         1.10161 
        2.42983         3.55337         1.09498 
        2.43598         3.54015         1.08838 
        2.44211         3.52172         1.08186 
        2.44823         3.51135          1.0754 
        2.45437         3.49686         1.06897 
        2.46052         3.48717          1.0626 
        2.46665         3.47707         1.05629 
        2.47279         3.45404         1.05003 
        2.47892         3.45175         1.04382 
        2.48507         3.43618         1.03765 
         2.4912         3.43199         1.03155 
