# k  (h/Mpc)    P(k)  (Mpc/h)^3    P_linear(k)  (Mpc/h)^3
     0.00783031         2840.86         2865.04 
       0.013688         3450.31         3501.58 
       0.019231            3504          3529.1 
      0.0249154         3251.68         3248.08 
      0.0312784         2783.72         2789.59 
      0.0375637          2333.7         2344.76 
      0.0433917         2013.36         2009.76 
      0.0492413         1760.77         1764.35 
      0.0555754         1591.95         1585.64 
      0.0619321         1447.55         1464.85 
       0.067871         1369.64         1373.89 
      0.0738098          1279.8         1281.33 
      0.0800417         1172.71         1170.67 
      0.0862327         1046.61         1048.29 
      0.0921407         929.695         929.682 
      0.0982031         824.942         818.255 
       0.104506         723.397         723.177 
       0.110769         656.105         653.411 
       0.116806         616.618         607.372 
       0.122832         580.284         576.383 
       0.129052         557.836         552.345 
       0.135211         537.469         529.146 
       0.141259         506.305         502.114 
       0.147318          469.86         469.325 
       0.153489         435.308         431.708 
       0.159709         401.408         393.183 
       0.165845         361.962         358.446 
       0.171974         341.583         329.692 
       0.178125         319.876         307.758 
       0.184229         300.643         292.174 
        0.19034         292.226         280.934 
       0.196428         282.544         271.786 
       0.202534         267.899          262.53 
       0.208729         260.804         251.589 
       0.214876          249.61         238.751 
       0.220989         231.614         224.543 
       0.227147         221.856         209.904 
        0.23329         209.498         196.208 
       0.239377         199.817         184.447 
       0.245482         188.823         174.857 
       0.251667         179.959          167.28 
       0.257832         176.856         161.337 
       0.263955         168.423         156.286 
       0.270079         162.832         151.377 
        0.27624         156.302         146.068 
       0.282372         151.049         140.206 
        0.28843         147.952         133.957 
       0.294538         140.535         127.493 
       0.300721         133.478         121.187 
        0.30691         129.919          115.44 
       0.313033         124.008          110.51 
       0.319153         121.379         106.336 
       0.325316         116.425          102.77 
        0.33145         112.768          99.625 
       0.337538         109.484         96.6766 
       0.343633         106.454         93.6995 
       0.349808         102.958         90.5685 
       0.355968         99.7757         87.3108 
       0.362074         97.5494         84.0373 
       0.368217         94.5395         80.8083 
       0.374374         91.9958         77.7506 
       0.380519         87.9075         74.9637 
       0.386598         85.5028         72.4815 
       0.392688         82.9018         70.2569 
        0.39888         81.3844         68.1945 
       0.405048         79.4888         66.2622 
       0.411186         77.5694         64.3956 
       0.417313         75.4102         62.5349 
       0.423458         73.3282         60.6563 
       0.429607         71.9129         58.7805 
       0.435692         70.6093         56.9517 
       0.441815         67.9534          55.176 
       0.447964         65.8187         53.4928 
       0.454126         64.5979         51.9171 
       0.460267         63.9398         50.4565 
       0.466387         62.1751         49.1009 
        0.47254         61.3184         47.8116 
       0.478662         59.2427          46.576 
       0.484765         58.1032         45.3742 
       0.490885         56.4798         44.1905 
       0.497035         55.7628         43.0159 
       0.503198         54.4407           41.86 
       0.509342         52.9509         40.7408 
       0.515458         52.2468           39.67 
       0.521598         50.9492         38.6427 
       0.527764         50.2453         37.6602 
       0.533884         49.3495         36.7341 
           0.54         48.2286         35.8519 
       0.546137         46.8313         35.0006 
       0.552299          46.022         34.1713 
       0.558452         45.0666         33.3638 
       0.564573         44.7265         32.5799 
       0.570708         43.4458         31.8134 
       0.576825         42.9388         31.0687 
       0.582926         42.2415         30.3472 
       0.589034         41.3905         29.6483 
       0.595184         40.8392         28.9707 
       0.601379         39.7458         28.3154 
       0.607522         39.0998         27.6899 
       0.613639         38.5772         27.0881 
       0.619772         37.8607         26.5029 
       0.625918         37.1828         25.9326 
       0.632068         36.8366         25.3773 
       0.638161         36.0729          24.842 
         0.6443         35.5797          24.317 
       0.650464         34.7107         23.8041 
       0.656582         34.5004         23.3091 
       0.662703         34.0499         22.8279 
       0.668861         33.1769         22.3583 
       0.675024         32.8351         21.9027 
       0.681124         32.5742         21.4658 
       0.687237         31.9023          21.041 
       0.693381         31.3322         20.6263 
       0.699536         31.1369          20.222 
       0.705665          30.564         19.8298 
       0.711789         30.0587         19.4475 
       0.717957          29.484          19.072 
        0.72409         29.2034         18.7081 
       0.730186         29.0529         18.3559 
       0.736317         28.4609         18.0109 
       0.742472         28.1139          17.674 
       0.748622         27.6766         17.3466 
        0.75476         27.0463         17.0284 
       0.760888         26.9837          16.719 
       0.767043         26.4963         16.4162 
       0.773185         26.2157         16.1215 
       0.779291         25.8991         15.8356 
       0.785407         25.5021          15.556 
       0.791564         25.3885         15.2813 
       0.797719         24.8307         15.0133 
       0.803834         24.7145         14.7534 
       0.809972         24.2616         14.4988 
       0.816124         24.0112         14.2496 
       0.822261         23.7367         14.0071 
       0.828378         23.5158          13.771 
       0.834502          23.261         13.5403 
       0.840667          23.014         13.3134 
       0.846816         22.5301         13.0924 
       0.852925         22.4663         12.8779 
       0.859047         22.2355         12.6678 
       0.865192         21.9068         12.4617 
       0.871341         21.6315           12.26 
       0.877463         21.4013         12.0637 
       0.883569         21.2799         11.8721 
       0.889708         20.9564         11.6838 
       0.895864          20.692          11.499 
       0.902008         20.4683         11.3187 
       0.908149         20.2207         11.1423 
       0.914301         20.1083         10.9694 
       0.920448         19.8229         10.8003 
       0.926574         19.6517         10.6355 
       0.932687         19.4106         10.4744 
       0.938823         19.1588         10.3161 
       0.944975          19.028         10.1607 
       0.951105         18.8393         10.0091 
       0.957225         18.7073         9.86082 
       0.963368         18.4224         9.71508 
       0.969511         18.2546         9.57229 
       0.975621         18.0993         9.43315 
       0.981748         17.8709         9.29643 
       0.987916         17.7633         9.16157 
        0.99406         17.5283         9.02989 
        1.00019         17.4207         8.90108 
        1.00632         17.2753          8.7749 
        1.01246         17.0992         8.65099 
        1.01859         16.9065         8.52968 
        1.02471         16.7471         8.41085 
        1.03085         16.6689         8.29389 
        1.03698         16.5244          8.1794 
        1.04314         16.3146         8.06659 
        1.04929         16.1258         7.95618 
        1.05541         16.0562         7.84828 
        1.06154         15.9201         7.74212 
        1.06769         15.7521         7.63777 
        1.07382         15.5681         7.53568 
        1.07993         15.4422          7.4357 
        1.08607         15.3578         7.33713 
        1.09222         15.1831         7.24024 
        1.09836         15.0744         7.14522 
        1.10449         14.9441         7.05202 
        1.11063         14.8547         6.96038 
        1.11677         14.7699         6.87041 
         1.1229         14.6157         6.78218 
        1.12903         14.4895         6.69543 
        1.13518         14.3455         6.61012 
        1.14131         14.2632         6.52634 
        1.14745         14.0684         6.44407 
        1.15359         13.9495          6.3632 
        1.15973         13.8534         6.28369 
        1.16584         13.7373         6.20589 
        1.17197         13.6072          6.1293 
        1.17811          13.525         6.05378 
        1.18424         13.4257         5.97974 
        1.19038         13.3599         5.90673 
        1.19652         13.2158         5.83498 
        1.20267         13.1461         5.76441 
        1.20881         12.9889         5.69503 
        1.21495         12.9105          5.6269 
        1.22108         12.8555          5.5599 
         1.2272          12.744         5.49414 
        1.23334         12.6692         5.42931 
        1.23949         12.5532         5.36536 
        1.24562         12.4357         5.30263 
        1.25174         12.3866         5.24099 
        1.25789         12.2674         5.18015 
        1.26402         12.2098         5.12038 
        1.27014         12.1477          5.0617 
        1.27628         11.9937         5.00377 
        1.28244          11.986         4.94663 
        1.28858         11.8548         4.89046 
        1.29471         11.7179         4.83529 
        1.30084         11.6497         4.78102 
        1.30697         11.6258          4.7275 
        1.31312         11.5139         4.67473 
        1.31925         11.4541         4.62292 
        1.32537          11.359         4.57195 
        1.33151         11.2852         4.52157 
        1.33765         11.2169         4.47198 
        1.34378         11.1783         4.42323 
        1.34992         11.0715         4.37517 
        1.35606         10.9644         4.32772 
         1.3622         10.8906         4.28106 
        1.36833         10.8642          4.2352 
        1.37445         10.7921         4.19003 
        1.38059         10.7131         4.14539 
        1.38675         10.6517         4.10129 
        1.39288         10.5489           4.058 
        1.39901         10.4923         4.01536 
        1.40515         10.4251         3.97324 
         1.4113         10.3518         3.93173 
        1.41742         10.3123         3.89098 
        1.42355          10.213         3.85073 
         1.4297         10.1655         3.81092 
        1.43585          10.114          3.7717 
        1.44198         10.0664         3.73317 
        1.44809          9.9868         3.69526 
        1.45423         9.91726         3.65773 
        1.46036         9.85838          3.6208 
        1.46649         9.79568         3.58436 
        1.47263         9.75364         3.54839 
        1.47877         9.68454         3.51293 
        1.48491         9.64154          3.4779 
        1.49104         9.56491         3.44342 
        1.49718         9.52663         3.40938 
        1.50333          9.4699         3.37575 
        1.50947          9.4101         3.34264 
         1.5156         9.37004         3.31002 
        1.52172         9.29698         3.27784 
        1.52787         9.26736         3.24603 
          1.534         9.20304         3.21467 
        1.54013         9.16083         3.18376 
        1.54627         9.09213          3.1532 
        1.55241         9.02116         3.12303 
        1.55855         9.00332          3.0933 
        1.56467         8.95969         3.06404 
         1.5708         8.90594         3.03508 
        1.57695         8.84405         3.00645 
        1.58308         8.78674         2.97825 
        1.58922         8.75656         2.95039 
        1.59535         8.70899          2.9229 
         1.6015         8.62165         2.89572 
        1.60764          8.5913          2.8689 
        1.61376         8.56671         2.84249 
        1.61989         8.49455          2.8164 
        1.62604          8.4769         2.79057 
        1.63218         8.43354         2.76508 
        1.63831         8.37103         2.73996 
        1.64444         8.30946         2.71515 
        1.65059         8.26882         2.69059 
        1.65673          8.2516         2.66636 
        1.66285         8.19534         2.64249 
        1.66898         8.17186         2.61891 
        1.67512         8.12683         2.59556 
        1.68127          8.0514         2.57249 
         1.6874          8.0379         2.54974 
        1.69353          7.9693         2.52728 
        1.69967         7.95025         2.50504 
        1.70581         7.90132         2.48307 
        1.71193         7.87001         2.46146 
        1.71806         7.82831         2.44005 
        1.72421         7.78077         2.41885 
        1.73035         7.75459         2.39793 
        1.73649         7.72267         2.37727 
        1.74262         7.64157         2.35686 
        1.74876         7.64926         2.33667 
        1.75489          7.6055         2.31677 
        1.76101         7.54117          2.2971 
        1.76715         7.53417         2.27763 
        1.77329         7.48753         2.25837 
        1.77943         7.43231         2.23932 
        1.78557         7.43441         2.22052 
        1.79171         7.38509         2.20193 
        1.79785         7.36043         2.18354 
        1.80399         7.30078         2.16538 
        1.81012         7.27928         2.14744 
        1.81625         7.22834         2.12971 
        1.82239         7.20508         2.11216 
        1.82853         7.15526         2.09481 
        1.83466         7.11094         2.07767 
        1.84078         7.09745         2.06075 
        1.84692         7.07026         2.04398 
        1.85306         7.03716         2.02738 
         1.8592         7.01104         2.01099 
        1.86533         6.97648         1.99479 
        1.87147         6.94225         1.97875 
        1.87761         6.91567         1.96288 
        1.88375         6.87885         1.94719 
        1.88988         6.84321          1.9317 
        1.89601         6.82135         1.91637 
        1.90215         6.77857         1.90119 
        1.90829         6.75527         1.88618 
        1.91442         6.71854         1.87134 
        1.92056         6.71605         1.85666 
         1.9267         6.66363         1.84213 
        1.93284         6.65112         1.82774 
        1.93897         6.60308         1.81354 
        1.94509         6.56163         1.79952 
        1.95123         6.55781         1.78561 
        1.95737         6.53238         1.77183 
        1.96349         6.48012         1.75824 
        1.96964         6.45169         1.74475 
        1.97578         6.43568         1.73139 
        1.98192         6.40596          1.7182 
        1.98805         6.38143         1.70515 
        1.99419         6.35881         1.69223 
        2.00033         6.32265         1.67944 
        2.00647         6.30432         1.66678 
         2.0126         6.27895         1.65428 
        2.01874         6.23798         1.64188 
        2.02488         6.22399          1.6296 
        2.03101         6.19237         1.61747 
        2.03714         6.15647         1.60547 
        2.04328         6.13482         1.59358 
        2.04941         6.10585         1.58182 
        2.05554         6.09149         1.57019 
        2.06167         6.07452         1.55866 
        2.06781         6.03591         1.54724 
        2.07396           6.013         1.53592 
        2.08009         5.97764         1.52474 
        2.08622         5.97723         1.51367 
        2.09237         5.95026          1.5027 
        2.09851         5.91078         1.49183 
        2.10464          5.8989         1.48109 
        2.11077         5.86354         1.47046 
        2.11691         5.85504         1.45992 
        2.12305         5.82162         1.44948 
        2.12918         5.79818         1.43916 
        2.13531         5.77757         1.42895 
        2.14145         5.75469         1.41881 
         2.1476         5.73638         1.40875 
        2.15372         5.70538         1.39884 
        2.15985         5.68977         1.38902 
        2.16599          5.6701         1.37927 
        2.17213         5.66296         1.36962 
        2.17827         5.62199         1.36006 
         2.1844         5.60757          1.3506 
        2.19054         5.59013         1.34123 
        2.19666         5.56038         1.33196 
         2.2028         5.53427         1.32277 
        2.20893         5.52272         1.31367 
        2.21508         5.49744         1.30463 
        2.22122         5.46215         1.29568 
        2.22736         5.44634         1.28683 
        2.23349         5.42676         1.27807 
        2.23962         5.41575         1.26938 
        2.24577         5.39021         1.26077 
         2.2519         5.38918         1.25225 
        2.25802         5.32714         1.24382 
        2.26417         5.32775         1.23544 
        2.27031         5.30727         1.22713 
        2.27644         5.29135         1.21893 
        2.28257         5.26057          1.2108 
        2.28872         5.24782         1.20272 
        2.29486         5.22738         1.19472 
        2.30099         5.21656         1.18682 
        2.30712         5.18589         1.17897 
        2.31326         5.17137         1.17119 
         2.3194         5.14785         1.16348 
        2.32553         5.13018         1.15586 
        2.33166          5.1114          1.1483 
         2.3378         5.09802          1.1408 
        2.34394         5.07457         1.13337 
        2.35007         5.05571         1.12601 
        2.35619         5.04601         1.11873 
        2.36233          5.0151         1.11149 
        2.36848         5.00406          1.1043 
        2.37462         4.98742         1.09719 
        2.38075         4.97341         1.09015 
        2.38689         4.96046         1.08317 
        2.39303         4.92757         1.07625 
        2.39916         4.92067         1.06939 
        2.40529         4.89707          1.0626 
        2.41143         4.88662         1.05586 
        2.41757         4.86461         1.04917 
         2.4237         4.85125         1.04256 
        2.42983         4.83483           1.036 
        2.43598         4.82148         1.02948 
        2.44211         4.79979         1.02303 
        2.44823         4.77714         1.01665 
        2.45437         4.76413          1.0103 
        2.46052         4.75456         1.00401 
        2.46665         4.73503        0.997776 
        2.47279         4.71663        0.991599 
        2.47892          4.6963        0.985469 
        2.48507         4.68462        0.979386 
         2.4912         4.66623        0.973366 
