# k  (h/Mpc)    P(k)  (Mpc/h)^3    P_linear(k)  (Mpc/h)^3
     0.00783031         4944.51         4998.73 
       0.013688         5365.83         5459.69 
       0.019231         4900.67         4940.19 
      0.0249154         4093.45         4073.58 
      0.0312784         3143.86          3138.6 
      0.0375637          2450.7         2455.59 
      0.0433917         2065.36         2055.72 
      0.0492413         1823.47         1823.47 
      0.0555754         1684.74         1675.61 
      0.0619321         1533.11         1551.94 
       0.067871         1409.78         1411.96 
      0.0738098         1243.64          1240.5 
      0.0800417          1058.5         1048.69 
      0.0862327         884.921         877.821 
      0.0921407         762.388         753.315 
      0.0982031         683.356          669.31 
       0.104506         624.131         620.148 
       0.110769         597.955         593.202 
       0.116806         579.934         571.091 
       0.122832         544.629         540.854 
       0.129052         503.707         496.994 
       0.135211         457.254         445.045 
       0.141259         404.239         394.058 
       0.147318         358.944         350.502 
       0.153489         328.306          317.86 
       0.159709         309.624          296.73 
       0.165845         290.658         284.138 
       0.171974         286.817         275.075 
       0.178125         275.434         265.176 
       0.184229         259.035         252.023 
        0.19034         245.595         235.357 
       0.196428         228.727         216.969 
       0.202534         207.493         199.156 
       0.208729         196.772         183.759 
       0.214876         186.073         172.052 
       0.220989          174.14         163.684 
       0.227147         170.121         157.489 
        0.23329           164.2         152.166 
       0.239377          159.67         146.582 
       0.245482         151.595         140.084 
       0.251667         143.295         132.633 
       0.257832         138.721         124.859 
       0.263955         129.235         117.493 
       0.270079         122.501         111.009 
        0.27624         116.748         105.607 
       0.282372          112.71         101.257 
        0.28843         110.877         97.6395 
       0.294538         106.093         94.2999 
       0.300721         101.641         90.8948 
        0.30691         99.2604          87.307 
       0.313033          94.632         83.5847 
       0.319153         92.1719         79.8484 
       0.325316         88.0246         76.2472 
        0.33145         84.5291         72.9832 
       0.337538         81.3606          70.109 
       0.343633         78.9138         67.5812 
       0.349808         76.2183         65.2754 
       0.355968         73.9943         63.1195 
       0.362074         72.3757          61.033 
       0.368217         70.1962         58.9276 
       0.374374         68.1815         56.8202 
       0.380519         65.2213         54.7478 
       0.386598         63.3249         52.7795 
       0.392688         61.1177         50.9327 
        0.39888         59.9801         49.1935 
       0.405048         58.3806         47.5992 
       0.411186         56.8323         46.1224 
       0.417313         55.2035         44.7211 
       0.423458         53.5873         43.3638 
       0.429607         52.4575         42.0386 
       0.435692         51.5881         40.7517 
       0.441815         49.6019         39.4914 
       0.447964         47.9357         38.2744 
       0.454126         47.0313         37.1116 
       0.460267         46.4754         36.0128 
       0.466387         45.0946         34.9787 
        0.47254         44.4307         33.9924 
       0.478662         42.8481         33.0529 
       0.484765         41.9507         32.1487 
       0.490885         40.7075         31.2708 
       0.497035         40.1835         30.4153 
       0.503198         39.2791         29.5839 
       0.509342          38.128         28.7829 
       0.515458         37.4814         28.0158 
       0.521598          36.538         27.2783 
       0.527764           35.99          26.569 
       0.533884         35.3787         25.8927 
           0.54         34.5079         25.2417 
       0.546137         33.4979         24.6109 
       0.552299         32.8236         23.9986 
       0.558452         32.1125         23.4069 
       0.564573          31.825         22.8365 
       0.570708          30.946         22.2827 
       0.576825         30.5494         21.7485 
       0.582926         30.0262         21.2339 
       0.589034         29.3758         20.7366 
       0.595184         28.9648         20.2534 
       0.601379         28.2077          19.783 
       0.607522         27.6186         19.3316 
       0.613639         27.2865         18.8959 
       0.619772         26.6922          18.472 
       0.625918         26.2753         18.0599 
       0.632068         25.9517           17.66 
       0.638161         25.3995         17.2759 
         0.6443         25.0631         16.9008 
       0.650464         24.3932         16.5358 
       0.656582         24.2574         16.1844 
       0.662703          23.859         15.8432 
       0.668861         23.2687         15.5101 
       0.675024         22.9903         15.1862 
       0.681124         22.8114         14.8749 
       0.687237         22.3444         14.5716 
       0.693381         21.8996         14.2754 
       0.699536         21.7303         13.9869 
       0.705665         21.3031         13.7078 
       0.711789         20.9704         13.4366 
       0.717957         20.5459          13.171 
        0.72409         20.3146         12.9141 
       0.730186         20.1857         12.6656 
       0.736317         19.7625         12.4225 
       0.742472         19.5318         12.1848 
       0.748622          19.204         11.9536 
        0.75476         18.7676         11.7289 
       0.760888         18.7209         11.5103 
       0.767043         18.3407         11.2964 
       0.773185         18.0954         11.0885 
       0.779291         17.8726         10.8869 
       0.785407         17.6428         10.6901 
       0.791564         17.5286          10.497 
       0.797719         17.0838         10.3088 
       0.803834         17.0301         10.1264 
       0.809972         16.6937         9.94775 
       0.816124          16.518         9.77308 
       0.822261         16.3042          9.6031 
       0.828378         16.1534         9.43769 
       0.834502         15.9642         9.27607 
       0.840667         15.7729          9.1172 
       0.846816         15.4597         8.96251 
       0.852925          15.388          8.8124 
       0.859047         15.2069         8.66543 
       0.865192         14.9832         8.52134 
       0.871341         14.8047         8.38045 
       0.877463         14.6076          8.2434 
       0.883569          14.503         8.10977 
       0.889708         14.2781         7.97843 
       0.895864         14.0884         7.84968 
       0.902008         13.9579         7.72406 
       0.908149         13.7399         7.60127 
       0.914301         13.6356         7.48096 
       0.920448         13.4781         7.36338 
       0.926574         13.3631         7.24875 
       0.932687         13.1614         7.13681 
       0.938823         12.9711         7.02685 
       0.944975         12.8955         6.91896 
       0.951105         12.7684         6.81374 
       0.957225         12.6467         6.71088 
       0.963368         12.4605         6.60982 
       0.969511          12.333         6.51083 
       0.975621         12.2345         6.41441 
       0.981748         12.0657         6.31971 
       0.987916         11.9871         6.22632 
        0.99406          11.813         6.13518 
        1.00019         11.7352         6.04605 
        1.00632         11.6535         5.95878 
        1.01246         11.4831          5.8731 
        1.01859         11.3814         5.78926 
        1.02471         11.2619         5.70715 
        1.03085         11.1888         5.62636 
        1.03698         11.0956         5.54731 
        1.04314         10.9455         5.46944 
        1.04929         10.8087         5.39325 
        1.05541         10.7422         5.31882 
        1.06154         10.6465         5.24562 
        1.06769         10.5336         5.17368 
        1.07382         10.4169         5.10334 
        1.07993         10.3281         5.03447 
        1.08607         10.2458         4.96658 
        1.09222         10.1318         4.89989 
        1.09836         10.0399          4.8345 
        1.10449         9.97846         4.77038 
        1.11063         9.90282         4.70736 
        1.11677          9.8355         4.64551 
         1.1229         9.71771         4.58487 
        1.12903         9.62655         4.52527 
        1.13518         9.54859         4.46668 
        1.14131         9.48183         4.40916 
        1.14745         9.34123         4.35269 
        1.15359         9.24657          4.2972 
        1.15973         9.20462         4.24266 
        1.16584         9.10071         4.18932 
        1.17197         9.00983         4.13681 
        1.17811         8.95785         4.08505 
        1.18424         8.88638         4.03433 
        1.19038         8.85023         3.98432 
        1.19652         8.72845         3.93518 
        1.20267         8.69774         3.88687 
        1.20881         8.57515         3.83938 
        1.21495         8.53043         3.79277 
        1.22108         8.46601         3.74693 
         1.2272         8.38563         3.70196 
        1.23334         8.34768         3.65763 
        1.23949         8.26854         3.61392 
        1.24562         8.18459         3.57105 
        1.25174         8.15453         3.52894 
        1.25789          8.0809         3.48737 
        1.26402         8.01124         3.44656 
        1.27014          7.9734         3.40649 
        1.27628         7.88502         3.36695 
        1.28244         7.85777         3.32795 
        1.28858         7.76732         3.28963 
        1.29471           7.698         3.25199 
        1.30084         7.63767         3.21498 
        1.30697         7.59628         3.17848 
        1.31312         7.54684         3.14251 
        1.31925         7.50032          3.1072 
        1.32537         7.42224         3.07247 
        1.33151         7.36945         3.03815 
        1.33765         7.33441         3.00437 
        1.34378         7.29223         2.97117 
        1.34992         7.22644         2.93846 
        1.35606          7.1537         2.90616 
         1.3622          7.1085         2.87441 
        1.36833         7.08209         2.84322 
        1.37445          7.0221          2.8125 
        1.38059          6.9583         2.78214 
        1.38675         6.93295         2.75216 
        1.39288         6.87508         2.72274 
        1.39901         6.81153         2.69376 
        1.40515         6.77672         2.66514 
         1.4113         6.72913         2.63695 
        1.41742         6.69128         2.60927 
        1.42355         6.63095         2.58194 
         1.4297         6.58672         2.55492 
        1.43585          6.5484          2.5283 
        1.44198         6.53003         2.50216 
        1.44809         6.47162         2.47644 
        1.45423         6.42182         2.45098 
        1.46036         6.37986         2.42593 
        1.46649         6.34241         2.40122 
        1.47263         6.30005         2.37683 
        1.47877         6.24291          2.3528 
        1.48491          6.2304         2.32905 
        1.49104         6.18672         2.30569 
        1.49718         6.14978         2.28262 
        1.50333         6.11232         2.25984 
        1.50947         6.06981         2.23741 
         1.5156         6.03875         2.21532 
        1.52172         5.98442         2.19353 
        1.52787         5.97982         2.17199 
          1.534         5.91825         2.15076 
        1.54013         5.89461         2.12984 
        1.54627         5.84872         2.10916 
        1.55241         5.79785         2.08875 
        1.55855         5.78349         2.06865 
        1.56467         5.76377         2.04886 
         1.5708         5.71088         2.02927 
        1.57695         5.67684         2.00991 
        1.58308         5.64403         1.99085 
        1.58922         5.61449         1.97202 
        1.59535         5.58987         1.95344 
         1.6015          5.5253         1.93508 
        1.60764         5.50203         1.91696 
        1.61376         5.47786         1.89912 
        1.61989         5.44518          1.8815 
        1.62604         5.42732         1.86406 
        1.63218         5.38808         1.84685 
        1.63831         5.35626          1.8299 
        1.64444         5.31943         1.81315 
        1.65059         5.28425         1.79658 
        1.65673         5.26854         1.78023 
        1.66285         5.23231         1.76413 
        1.66898         5.21882         1.74822 
        1.67512         5.19132         1.73248 
        1.68127         5.13613         1.71692 
         1.6874         5.13121         1.70158 
        1.69353         5.07887         1.68644 
        1.69967         5.06262         1.67145 
        1.70581         5.03374         1.65665 
        1.71193         5.00106         1.64208 
        1.71806         4.97709         1.62765 
        1.72421         4.94893         1.61337 
        1.73035         4.93782         1.59928 
        1.73649         4.91075         1.58536 
        1.74262         4.86568         1.57161 
        1.74876         4.85376         1.55802 
        1.75489         4.83331         1.54462 
        1.76101         4.78609         1.53138 
        1.76715         4.78936         1.51828 
        1.77329         4.74814         1.50531 
        1.77943         4.71447         1.49249 
        1.78557         4.71462         1.47984 
        1.79171         4.67801         1.46733 
        1.79785         4.65934         1.45496 
        1.80399         4.63826         1.44274 
        1.81012         4.60189         1.43068 
        1.81625         4.58439         1.41876 
        1.82239         4.56075         1.40695 
        1.82853         4.52507         1.39529 
        1.83466         4.50423         1.38377 
        1.84078         4.47911         1.37239 
        1.84692         4.47071         1.36112 
        1.85306         4.44596         1.34997 
         1.8592         4.42872         1.33895 
        1.86533         4.39838         1.32807 
        1.87147         4.38419         1.31729 
        1.87761          4.3613         1.30663 
        1.88375         4.34364          1.2961 
        1.88988         4.32076          1.2857 
        1.89601         4.28875         1.27541 
        1.90215         4.27654         1.26522 
        1.90829         4.25977         1.25514 
        1.91442           4.241         1.24518 
        1.92056         4.22411         1.23533 
         1.9267          4.2027         1.22558 
        1.93284         4.17656         1.21592 
        1.93897          4.1526         1.20639 
        1.94509         4.12253         1.19699 
        1.95123           4.122         1.18765 
        1.95737         4.10289         1.17842 
        1.96349         4.07901          1.1693 
        1.96964         4.05265         1.16025 
        1.97578         4.04022          1.1513 
        1.98192         4.02654         1.14245 
        1.98805         4.00326          1.1337 
        1.99419         3.98977         1.12504 
        2.00033         3.96346         1.11647 
        2.00647         3.95584         1.10799 
         2.0126         3.93437         1.09961 
        2.01874         3.91231          1.0913 
        2.02488         3.90276         1.08307 
        2.03101         3.88188         1.07494 
        2.03714         3.85568         1.06691 
        2.04328         3.84104         1.05894 
        2.04941         3.82269         1.05107 
        2.05554         3.81031         1.04328 
        2.06167         3.79917         1.03555 
        2.06781         3.78058         1.02791 
        2.07396         3.76008         1.02033 
        2.08009         3.73977         1.01284 
        2.08622         3.73399         1.00543 
        2.09237         3.71458        0.998088 
        2.09851         3.69485        0.990814 
        2.10464         3.68461        0.983624 
        2.11077         3.65682        0.976514 
        2.11691         3.65091        0.969459 
        2.12305         3.63856        0.962472 
        2.12918         3.61425        0.955571 
        2.13531         3.60665        0.948738 
        2.14145         3.58591        0.941955 
         2.1476         3.57306        0.935231 
        2.15372         3.55712        0.928605 
        2.15985         3.54337        0.922038 
        2.16599         3.53109        0.915515 
        2.17213         3.52545        0.909062 
        2.17827         3.50156        0.902673 
         2.1844         3.49729         0.89635 
        2.19054         3.47759        0.890087 
        2.19666         3.45995        0.883891 
         2.2028         3.44081         0.87775 
        2.20893          3.4381        0.871663 
        2.21508         3.41439        0.865628 
        2.22122         3.40233        0.859647 
        2.22736         3.38428        0.853735 
        2.23349         3.36971        0.847881 
        2.23962         3.35894        0.842078 
        2.24577         3.35036        0.836324 
         2.2519         3.34248        0.830632 
        2.25802         3.31538        0.825002 
        2.26417         3.30383        0.819408 
        2.27031         3.28958        0.813861 
        2.27644         3.28711        0.808381 
        2.28257         3.26461        0.802952 
        2.28872         3.25203        0.797563 
        2.29486         3.24204        0.792224 
        2.30099         3.23133        0.786944 
        2.30712          3.2139        0.781711 
        2.31326         3.20425        0.776516 
         2.3194         3.18936        0.771371 
        2.32553         3.18032        0.766281 
        2.33166         3.16306         0.76124 
         2.3378         3.15474        0.756236 
        2.34394         3.13871        0.751277 
        2.35007         3.13196        0.746368 
        2.35619         3.12107        0.741509 
        2.36233         3.10948        0.736683 
        2.36848         3.09361        0.731889 
        2.37462         3.08677        0.727147 
        2.38075         3.07112        0.722452 
        2.38689         3.06324        0.717795 
        2.39303         3.05086         0.71318 
        2.39916          3.0404         0.70861 
        2.40529         3.02578         0.70408 
        2.41143         3.02603        0.699586 
        2.41757         3.00598         0.69513 
         2.4237         2.99721         0.69072 
        2.42983          2.9823        0.686349 
        2.43598         2.97649        0.682005 
        2.44211         2.95904        0.677705 
        2.44823         2.94761        0.673451 
        2.45437         2.94207        0.669223 
        2.46052         2.93588        0.665027 
        2.46665         2.92104        0.660874 
        2.47279         2.90785        0.656759 
        2.47892         2.89692        0.652675 
        2.48507         2.88838        0.648622 
         2.4912         2.87704        0.644612 
