# k  (h/Mpc)    Pcb(k)  (Mpc/h)^3    Pcb_linear(k)  (Mpc/h)^3
     0.00783031         16055.1         16145.8 
       0.013688         18563.9         19053.5 
       0.019231         18239.8         18513.6 
      0.0249154         16476.1         16410.8 
      0.0312784           13496         13596.7 
      0.0375637         11029.4         11185.9 
      0.0433917          9533.3          9552.8 
      0.0492413         8386.26         8461.94 
      0.0555754         7698.78         7707.33 
      0.0619321         6927.82         7152.52 
       0.067871         6527.46         6638.28 
      0.0738098         6001.41         6043.13 
      0.0800417         5337.79         5339.91 
      0.0862327         4635.05         4636.77 
      0.0921407         4096.51         4042.77 
      0.0982031         3683.66         3564.42 
       0.104506         3282.09         3219.11 
       0.110769         3078.19         3001.29 
       0.116806         2971.06         2861.75 
       0.122832         2810.15         2741.43 
       0.129052         2652.56         2597.25 
       0.135211         2537.94         2417.56 
       0.141259         2309.35         2213.03 
       0.147318         2100.97         2002.81 
       0.153489         1942.98         1808.62 
       0.159709         1843.29         1650.97 
       0.165845         1686.56         1537.67 
       0.171974         1649.31         1459.85 
       0.178125         1596.16         1403.69 
       0.184229         1482.13          1354.5 
        0.19034         1455.17         1299.66 
       0.196428         1403.85         1233.75 
       0.202534         1303.22         1157.61 
       0.208729         1269.68         1076.57 
       0.214876         1201.27         1000.37 
       0.220989         1130.39         934.939 
       0.227147         1097.95         882.219 
        0.23329         1053.93          841.91 
       0.239377         1046.07         810.548 
       0.245482          993.58         783.056 
       0.251667         957.285         755.074 
       0.257832         940.849         724.491 
       0.263955          892.33         691.049 
       0.270079         861.265         655.974 
        0.27624         824.309         621.319 
       0.282372         809.332         589.639 
        0.28843         796.714         562.392 
       0.294538         756.969         539.193 
       0.300721         739.488         519.365 
        0.30691         722.863         501.803 
       0.313033         691.675          485.32 
       0.319153          682.63         468.652 
       0.325316         671.903         451.274 
        0.33145         655.244         433.496 
       0.337538         631.236         415.965 
       0.343633         614.982         399.168 
       0.349808         600.523         383.474 
       0.355968         589.198         369.397 
       0.362074         567.616         356.899 
       0.368217         565.241         345.499 
       0.374374         556.068         334.786 
       0.380519         533.834         324.436 
       0.386598         529.011         314.287 
       0.392688         515.517         304.122 
        0.39888         502.993          293.91 
       0.405048         492.168         284.019 
       0.411186         491.416         274.634 
       0.417313         485.539          265.87 
       0.423458         471.663         257.687 
       0.429607         457.794         250.055 
       0.435692         452.091         242.955 
       0.441815         443.572         236.117 
       0.447964         435.404         229.445 
       0.454126         430.462         222.914 
       0.460267         423.342         216.544 
       0.466387         414.735          210.35 
        0.47254         409.429         204.334 
       0.478662         401.313         198.611 
       0.484765         395.881          193.18 
       0.490885         392.209         187.997 
       0.497035         383.466         183.041 
       0.503198         383.105         178.292 
       0.509342         374.803         173.728 
       0.515458         367.542         169.317 
       0.521598         363.584         165.009 
       0.527764          357.21         160.808 
       0.533884         354.075         156.767 
           0.54         350.048         152.861 
       0.546137         342.911         149.079 
       0.552299         341.559         145.428 
       0.558452         335.822         141.928 
       0.564573         333.765         138.578 
       0.570708         328.373         135.336 
       0.576825         322.426         132.203 
       0.582926          321.03         129.171 
       0.589034         315.196         126.223 
       0.595184         313.157         123.343 
       0.601379         308.156         120.531 
       0.607522         301.765         117.829 
       0.613639         301.007         115.222 
       0.619772         299.824          112.69 
       0.625918         293.878         110.234 
       0.632068         291.539         107.854 
       0.638161         289.425         105.569 
         0.6443         285.075         103.336 
       0.650464         282.048         101.159 
       0.656582         279.147         99.0591 
       0.662703         277.781         97.0154 
       0.668861         272.307         95.0162 
       0.675024         271.369         93.0712 
       0.681124         267.067         91.2007 
       0.687237         265.916         89.3793 
       0.693381         261.713          87.601 
       0.699536         260.978         85.8698 
       0.705665          257.75         84.1941 
       0.711789         255.267         82.5652 
       0.717957         253.077         80.9686 
        0.72409         249.567         79.4228 
       0.730186         250.917         77.9264 
       0.736317         246.644         76.4601 
       0.742472         244.311          75.026 
       0.748622         242.057         73.6301 
        0.75476         241.118          72.273 
       0.760888         238.255         70.9524 
       0.767043          235.31         69.6601 
       0.773185         233.581         68.4031 
       0.779291         231.272         67.1847 
       0.785407         229.947         65.9945 
       0.791564         228.191         64.8259 
       0.797719         224.399         63.6865 
       0.803834         225.625         62.5818 
       0.809972         222.401         61.4994 
       0.816124         219.376         60.4404 
       0.822261         217.992         59.4093 
       0.828378         217.144         58.4054 
       0.834502          214.39          57.424 
       0.840667         214.491         56.4589 
       0.846816         210.332         55.5188 
       0.852925         210.492         54.6062 
       0.859047         208.344         53.7123 
       0.865192          207.68         52.8356 
       0.871341         205.236          51.978 
       0.877463          203.61         51.1434 
       0.883569         202.948         50.3294 
       0.889708         201.158          49.529 
       0.895864         198.739         48.7441 
       0.902008         197.372         47.9779 
       0.908149         195.737         47.2288 
       0.914301          194.48         46.4946 
       0.920448         193.777         45.7767 
       0.926574         191.785         45.0765 
       0.932687         191.545         44.3926 
       0.938823         189.497         43.7205 
       0.944975         189.003         43.0609 
       0.951105         186.808         42.4173 
       0.957225         185.386          41.788 
       0.963368          185.25         41.1694 
       0.969511         182.469         40.5634 
       0.975621         180.597         39.9729 
       0.981748         180.461         39.3927 
       0.987916          179.47         38.8204 
        0.99406         177.952         38.2617 
        1.00019         176.946         37.7151 
        1.00632         175.859         37.1798 
        1.01246         174.571         36.6541 
        1.01859         172.904         36.1394 
        1.02471         171.728         35.6353 
        1.03085         170.694         35.1391 
        1.03698         170.084         34.6535 
        1.04314         169.353          34.175 
        1.04929         168.252         33.7067 
        1.05541         167.481          33.249 
        1.06154         165.767         32.7988 
        1.06769         164.855         32.3562 
        1.07382         163.669         31.9233 
        1.07993         162.491         31.4994 
        1.08607         162.108         31.0814 
        1.09222          160.46         30.6706 
        1.09836         159.837         30.2677 
        1.10449         158.805         29.8726 
        1.11063         157.523         29.4841 
        1.11677         156.713         29.1027 
         1.1229          155.92         28.7287 
        1.12903         154.437          28.361 
        1.13518         153.673         27.9994 
        1.14131         153.188         27.6444 
        1.14745         151.705         27.2958 
        1.15359         150.808         26.9531 
        1.15973         150.235         26.6162 
        1.16584         149.227         26.2865 
        1.17197         148.624          25.962 
        1.17811         147.317         25.6421 
        1.18424         146.547         25.3284 
        1.19038         145.855         25.0191 
        1.19652         144.542         24.7151 
        1.20267         143.732         24.4162 
        1.20881         142.795         24.1223 
        1.21495         142.697         23.8337 
        1.22108         141.414         23.5499 
         1.2272         140.677         23.2714 
        1.23334         139.742         22.9968 
        1.23949         139.178         22.7259 
        1.24562         138.156         22.4602 
        1.25174         137.862         22.1992 
        1.25789         136.588         21.9415 
        1.26402         136.096         21.6884 
        1.27014         135.302         21.4398 
        1.27628          134.57         21.1945 
        1.28244         133.657         20.9525 
        1.28858         132.912         20.7146 
        1.29471         131.928          20.481 
        1.30084          131.26         20.2512 
        1.30697         130.355         20.0245 
        1.31312         129.861         19.8011 
        1.31925         128.774         19.5817 
        1.32537         128.367         19.3659 
        1.33151         127.717         19.1525 
        1.33765         126.884         18.9425 
        1.34378           126.6         18.7361 
        1.34992         125.597         18.5326 
        1.35606         125.106         18.3318 
         1.3622         124.361         18.1342 
        1.36833         123.464         17.9401 
        1.37445         123.174         17.7489 
        1.38059         122.204         17.5599 
        1.38675         121.594         17.3732 
        1.39288         120.811         17.1899 
        1.39901         120.027         17.0094 
        1.40515         119.666         16.8311 
         1.4113         118.897         16.6555 
        1.41742         118.436          16.483 
        1.42355         117.859         16.3126 
         1.4297         117.035         16.1442 
        1.43585         116.521         15.9781 
        1.44198         115.537         15.8151 
        1.44809         115.218         15.6547 
        1.45423         114.796         15.4958 
        1.46036         113.709         15.3395 
        1.46649         113.156         15.1853 
        1.47263         112.557         15.0331 
        1.47877         112.001          14.883 
        1.48491         111.502         14.7348 
        1.49104         110.581         14.5888 
        1.49718         110.194         14.4448 
        1.50333         109.518         14.3025 
        1.50947         109.247         14.1623 
         1.5156          108.42         14.0243 
        1.52172          107.73         13.8881 
        1.52787          107.49         13.7534 
          1.534         106.864         13.6207 
        1.54013         106.085         13.4899 
        1.54627         105.548         13.3606 
        1.55241         105.272         13.2329 
        1.55855          104.55         13.1071 
        1.56467         104.023         12.9833 
         1.5708         103.051         12.8607 
        1.57695         103.031         12.7395 
        1.58308         102.236         12.6202 
        1.58922         101.812         12.5023 
        1.59535         101.624          12.386 
         1.6015         100.762          12.271 
        1.60764         100.162         12.1575 
        1.61376          99.892         12.0457 
        1.61989         99.3494         11.9353 
        1.62604         98.6999          11.826 
        1.63218         98.2168         11.7182 
        1.63831         97.6363         11.6119 
        1.64444          97.025         11.5069 
        1.65059          96.631          11.403 
        1.65673          96.457         11.3005 
        1.66285         95.9544         11.1995 
        1.66898         95.1291         11.0997 
        1.67512         94.4921          11.001 
        1.68127         94.3645         10.9033 
         1.6874         93.7321         10.8071 
        1.69353         93.2115         10.7121 
        1.69967         92.6678          10.618 
        1.70581          92.406          10.525 
        1.71193         91.8521         10.4336 
        1.71806         91.2371          10.343 
        1.72421         90.7672         10.2533 
        1.73035         90.3222         10.1648 
        1.73649         89.9091         10.0773 
        1.74262         89.4644         9.99098 
        1.74876         88.8305         9.90559 
        1.75489         88.7032         9.82136 
        1.76101         88.2494         9.73814 
        1.76715          87.599         9.65577 
        1.77329         87.1515         9.57426 
        1.77943         86.7587         9.49365 
        1.78557         86.4884         9.41408 
        1.79171         85.8703         9.33542 
        1.79785         85.3568         9.25764 
        1.80399         85.0844         9.18076 
        1.81012         84.3937         9.10486 
        1.81625         84.0795         9.02985 
        1.82239         83.7199         8.95558 
        1.82853         83.1461         8.88218 
        1.83466         82.6719         8.80967 
        1.84078         82.5368         8.73804 
        1.84692         82.1921          8.6671 
        1.85306         81.8575         8.59686 
         1.8592         81.4071          8.5275 
        1.86533         80.8334         8.45896 
        1.87147         80.4916         8.39108 
        1.87761         79.7751         8.32392 
        1.88375         79.5961         8.25758 
        1.88988          79.068         8.19203 
        1.89601         78.9716         8.12715 
        1.90215         78.5343         8.06293 
        1.90829         77.8977         7.99943 
        1.91442          77.461         7.93661 
        1.92056         77.2211         7.87453 
         1.9267         76.8828         7.81304 
        1.93284         76.5948         7.75217 
        1.93897         76.0758         7.69207 
        1.94509         75.7589         7.63273 
        1.95123         75.3623         7.57387 
        1.95737         75.0994         7.51559 
        1.96349         74.8053         7.45807 
        1.96964         74.3688         7.40099 
        1.97578         73.9102         7.34447 
        1.98192         73.5149         7.28867 
        1.98805         73.1138         7.23343 
        1.99419         73.0356         7.17876 
        2.00033          72.402         7.12464 
        2.00647         71.9808         7.07108 
         2.0126         71.7844         7.01816 
        2.01874         71.5221         6.96571 
        2.02488         71.1075         6.91374 
        2.03101         70.6469         6.86241 
        2.03714          70.395         6.81164 
        2.04328         70.1996         6.76132 
        2.04941         69.7698         6.71156 
        2.05554         69.3568         6.66233 
        2.06167         68.9557         6.61353 
        2.06781         68.6514         6.56521 
        2.07396         68.1771         6.51731 
        2.08009         68.0184         6.46996 
        2.08622         67.6117         6.42314 
        2.09237         67.3399         6.37669 
        2.09851          66.874          6.3307 
        2.10464         66.6559         6.28523 
        2.11077         66.3995         6.24026 
        2.11691         66.0864         6.19564 
        2.12305         65.6622         6.15144 
        2.12918         65.3277         6.10779 
        2.13531         65.0726         6.06455 
        2.14145         64.7414         6.02164 
         2.1476         64.5631         5.97909 
        2.15372         64.0419         5.93716 
        2.15985         63.7921         5.89559 
        2.16599         63.5325          5.8543 
        2.17213         63.1074         5.81346 
        2.17827         62.6533         5.77301 
         2.1844         62.5775         5.73298 
        2.19054         62.2632         5.69331 
        2.19666         61.9459         5.65408 
         2.2028         61.7328         5.61519 
        2.20893         61.3833         5.57664 
        2.21508           61.06         5.53841 
        2.22122         60.6624         5.50052 
        2.22736         60.3712         5.46307 
        2.23349         60.1249         5.42597 
        2.23962         59.8887          5.3892 
        2.24577         59.6229         5.35274 
         2.2519         59.2737         5.31667 
        2.25802         58.9836         5.28099 
        2.26417         58.7366         5.24553 
        2.27031         58.4994         5.21037 
        2.27644         58.0584         5.17563 
        2.28257         57.8929         5.14121 
        2.28872         57.5302         5.10704 
        2.29486         57.4261         5.07318 
        2.30099         56.9382          5.0397 
        2.30712         56.8083         5.00651 
        2.31326         56.5227         4.97356 
         2.3194         56.2527         4.94092 
        2.32553         55.9216         4.90864 
        2.33166         55.7011         4.87665 
         2.3378         55.4588         4.84491 
        2.34394         55.2067         4.81343 
        2.35007         54.8618         4.78228 
        2.35619         54.7006         4.75145 
        2.36233         54.4349         4.72081 
        2.36848         54.0954         4.69039 
        2.37462         53.8213         4.66029 
        2.38075         53.5661         4.63048 
        2.38689         53.2584         4.60092 
        2.39303         53.1644         4.57161 
        2.39916         52.8052         4.54259 
        2.40529         52.6838         4.51382 
        2.41143         52.4259         4.48529 
        2.41757         52.0472         4.45698 
         2.4237         51.9819         4.42898 
        2.42983          51.646         4.40121 
        2.43598         51.4134         4.37361 
        2.44211         51.1349         4.34629 
        2.44823         50.9781         4.31927 
        2.45437         50.5662          4.2924 
        2.46052         50.4245         4.26574 
        2.46665         50.1021         4.23935 
        2.47279         49.9282         4.21319 
        2.47892          49.677         4.18724 
        2.48507         49.4925         4.16148 
         2.4912         49.2532         4.13598 
