# k  (h/Mpc)    Pcb(k)  (Mpc/h)^3    Pcb_linear(k)  (Mpc/h)^3
     0.00783031         6220.81         6249.28 
       0.013688         7957.25         8108.02 
       0.019231         8508.08         8597.08 
      0.0249154         8325.97            8326 
      0.0312784         7514.48         7574.46 
      0.0375637         6638.58         6730.24 
      0.0433917         6009.33         6039.87 
      0.0492413         5428.78         5496.62 
      0.0555754         5029.89          5062.5 
      0.0619321         4587.08         4727.98 
       0.067871         4363.03         4445.41 
      0.0738098         4089.76         4149.46 
      0.0800417         3764.09         3808.71 
      0.0862327         3398.45         3452.05 
      0.0921407         3080.25         3121.69 
      0.0982031         2812.17         2820.46 
       0.104506         2531.74         2566.26 
       0.110769         2352.36         2375.96 
       0.116806         2253.39         2240.64 
       0.122832         2120.67         2134.72 
       0.129052         2027.17         2035.86 
       0.135211         1950.99          1932.8 
       0.141259         1819.36         1819.75 
       0.147318         1680.39         1696.71 
       0.153489         1576.99         1569.57 
       0.159709         1491.99            1450 
       0.165845         1363.03         1348.49 
       0.171974         1324.09          1266.8 
       0.178125         1270.66         1203.19 
       0.184229         1187.83          1153.3 
        0.19034         1164.15         1110.05 
       0.196428         1127.17         1067.61 
       0.202534         1057.56         1021.75 
       0.208729            1033         970.824 
       0.214876         989.736         917.555 
       0.220989         924.035          865.07 
       0.227147         900.888         816.075 
        0.23329         865.541         773.424 
       0.239377         847.446         738.046 
       0.245482         806.152         708.683 
       0.251667         776.003         683.341 
       0.257832         768.319         660.194 
       0.263955         728.663         637.348 
       0.270079         705.648         613.495 
        0.27624         675.519         588.282 
       0.282372         660.323         562.652 
        0.28843         654.405          537.85 
       0.294538         621.538         514.447 
       0.300721         601.276         493.139 
        0.30691          591.88         474.417 
       0.313033         567.646         458.183 
       0.319153         558.492         443.579 
       0.325316         546.641         429.766 
        0.33145         534.756         416.255 
       0.337538         516.403         402.713 
       0.343633         501.097         388.964 
       0.349808         488.384         375.041 
       0.355968         478.692         361.518 
       0.362074         465.601         348.808 
       0.368217         460.698         336.979 
       0.374374         451.445         326.131 
       0.380519         433.817         316.233 
       0.386598         428.108         307.139 
       0.392688         419.165         298.469 
        0.39888          408.54         289.903 
       0.405048         401.844          281.47 
       0.411186         398.871         273.143 
       0.417313         392.135         264.963 
       0.423458         381.249         256.981 
       0.429607         372.812         249.326 
       0.435692         366.087         242.174 
       0.441815         360.098         235.403 
       0.447964         351.386          229.01 
       0.454126         346.474         222.954 
       0.460267         341.929         217.178 
       0.466387         336.116         211.593 
        0.47254         331.818          206.11 
       0.478662         322.891         200.772 
       0.484765         319.439         195.564 
       0.490885         315.674         190.483 
       0.497035         311.215         185.561 
       0.503198         308.426         180.838 
       0.509342         300.289         176.335 
       0.515458         297.063         172.051 
       0.521598         290.865         167.933 
       0.527764         287.466         163.955 
       0.533884         286.987         160.131 
           0.54         281.006         156.408 
       0.546137          274.93         152.767 
       0.552299         273.698          149.21 
       0.558452         269.178          145.76 
       0.564573         267.078         142.431 
       0.570708          262.12         139.203 
       0.576825         258.246         136.097 
       0.582926         255.606         133.111 
       0.589034          252.48         130.228 
       0.595184         250.801         127.419 
       0.601379          245.72         124.672 
       0.607522         241.868         122.023 
       0.613639         240.115         119.455 
       0.619772         238.141         116.951 
       0.625918         235.892         114.511 
       0.632068         231.083         112.139 
       0.638161         228.772         109.856 
         0.6443         227.812         107.622 
       0.650464         223.859         105.445 
       0.656582         222.448         103.348 
       0.662703         220.575          101.31 
       0.668861         216.544         99.3189 
       0.675024         216.368         97.3808 
       0.681124         213.314          95.514 
       0.687237         210.629          93.691 
       0.693381         209.243          91.905 
       0.699536         206.672         90.1611 
       0.705665         204.226         88.4693 
       0.711789           202.2         86.8228 
       0.717957         200.111         85.2079 
        0.72409         198.742         83.6448 
       0.730186         198.465         82.1321 
       0.736317          195.09           80.65 
       0.742472         192.692         79.1998 
       0.748622         189.991         77.7871 
        0.75476         190.506          76.412 
       0.760888          188.56         75.0719 
       0.767043         185.804         73.7583 
       0.773185         184.046         72.4786 
       0.779291         181.908         71.2365 
       0.785407         180.623         70.0218 
       0.791564         179.452         68.8281 
       0.797719         177.237         67.6631 
       0.803834         177.068         66.5329 
       0.809972         176.024          65.425 
       0.816124         173.642         64.3403 
       0.822261         171.874         63.2836 
       0.828378          171.85          62.254 
       0.834502         168.857         61.2468 
       0.840667         168.423         60.2555 
       0.846816         166.901         59.2892 
       0.852925         165.319         58.3503 
       0.859047         163.903         57.4298 
       0.865192         162.974         56.5264 
       0.871341         161.054         55.6419 
       0.877463          160.04         54.7804 
       0.883569          159.81         53.9396 
       0.889708         158.544         53.1122 
       0.895864          156.96         52.3002 
       0.902008         155.697         51.5071 
       0.908149         153.798          50.731 
       0.914301         153.984         49.9697 
       0.920448         152.896         49.2249 
       0.926574         150.695         48.4981 
       0.932687         150.394         47.7875 
       0.938823         149.197         47.0888 
       0.944975          147.59         46.4025 
       0.951105          146.64         45.7325 
       0.957225         146.527         45.0769 
       0.963368         144.815         44.4321 
       0.969511         143.557         43.7999 
       0.975621         142.599         43.1835 
       0.981748         141.465         42.5775 
       0.987916         140.736         41.9793 
        0.99406         140.053          41.395 
        1.00019         138.727          40.823 
        1.00632         138.146         40.2624 
        1.01246         137.084         39.7116 
        1.01859         136.278         39.1721 
        1.02471         135.204         38.6433 
        1.03085         134.159         38.1224 
        1.03698         133.372         37.6124 
        1.04314         132.599         37.1096 
        1.04929          132.16         36.6172 
        1.05541         131.254         36.1358 
        1.06154          130.45         35.6619 
        1.06769         129.211         35.1958 
        1.07382         128.371         34.7397 
        1.07993         127.894         34.2928 
        1.08607         126.746         33.8519 
        1.09222         126.465         33.4184 
        1.09836          125.08          32.993 
        1.10449         124.457         32.5756 
        1.11063         123.649          32.165 
        1.11677         122.968         31.7617 
         1.1229         122.078          31.366 
        1.12903         121.738         30.9768 
        1.13518         120.996         30.5939 
        1.14131         120.272         30.2177 
        1.14745          119.33         29.8481 
        1.15359         118.187         29.4846 
        1.15973         117.883         29.1271 
        1.16584         117.143         28.7771 
        1.17197         116.465         28.4324 
        1.17811         115.688         28.0924 
        1.18424         114.879         27.7589 
        1.19038         114.796         27.4299 
        1.19652          113.86         27.1063 
        1.20267         113.074         26.7881 
        1.20881         112.428          26.475 
        1.21495         112.002         26.1674 
        1.22108         111.272         25.8648 
         1.2272         110.365         25.5677 
        1.23334         110.037         25.2746 
        1.23949         109.453         24.9855 
        1.24562         108.524         24.7017 
        1.25174         107.824         24.4227 
        1.25789         107.878         24.1472 
        1.26402         106.921         23.8765 
        1.27014         106.432         23.6106 
        1.27628         105.421          23.348 
        1.28244         105.196         23.0889 
        1.28858         104.482         22.8341 
        1.29471         103.915         22.5837 
        1.30084         103.206         22.3373 
        1.30697         103.205         22.0943 
        1.31312         102.276         21.8545 
        1.31925         101.733          21.619 
        1.32537         101.157         21.3873 
        1.33151         101.005         21.1582 
        1.33765         100.041         20.9326 
        1.34378         99.8877         20.7107 
        1.34992         99.3056         20.4919 
        1.35606         98.6203         20.2758 
         1.3622         98.2736         20.0632 
        1.36833          97.425         19.8542 
        1.37445         96.7971         19.6483 
        1.38059         96.5762         19.4447 
        1.38675         95.7151         19.2435 
        1.39288          95.635         19.0459 
        1.39901         94.6499         18.8513 
        1.40515         94.4852         18.6589 
         1.4113         94.0578         18.4693 
        1.41742         93.4828         18.2831 
        1.42355         92.9173         18.0991 
         1.4297         92.4383          17.917 
        1.43585         91.8494         17.7376 
        1.44198         91.4404         17.5613 
        1.44809         90.8943         17.3878 
        1.45423         90.4211          17.216 
        1.46036          89.768         17.0468 
        1.46649         89.5852         16.8798 
        1.47263          89.115         16.7149 
        1.47877         88.7446         16.5523 
        1.48491         88.1887         16.3917 
        1.49104         87.5089         16.2335 
        1.49718         87.2825         16.0772 
        1.50333         86.8276         15.9228 
        1.50947         86.4896         15.7708 
         1.5156         86.0564         15.6209 
        1.52172         85.4783         15.4731 
        1.52787         84.9642         15.3268 
          1.534         84.7459         15.1826 
        1.54013         84.3696         15.0404 
        1.54627          83.631         14.8998 
        1.55241          83.187          14.761 
        1.55855         83.0052         14.6242 
        1.56467         82.2125         14.4894 
         1.5708         82.0766          14.356 
        1.57695         81.6545         14.2241 
        1.58308         81.1947         14.0941 
        1.58922         80.8331         13.9657 
        1.59535         80.5393          13.839 
         1.6015         80.3731         13.7136 
        1.60764         79.8818         13.5899 
        1.61376         79.3103          13.468 
        1.61989          78.674         13.3475 
        1.62604          78.498         13.2283 
        1.63218         78.2105         13.1105 
        1.63831         77.8623         12.9945 
        1.64444         77.4564         12.8799 
        1.65059         77.1279         12.7663 
        1.65673         76.4759         12.6543 
        1.66285         76.1929         12.5439 
        1.66898         75.6162         12.4348 
        1.67512         75.5742         12.3268 
        1.68127         75.1229           12.22 
         1.6874         74.6509         12.1147 
        1.69353         74.4135         12.0107 
        1.69967         74.0748         11.9076 
        1.70581         73.6684         11.8059 
        1.71193         73.2668         11.7057 
        1.71806         72.8166         11.6064 
        1.72421         72.6252         11.5081 
        1.73035         72.3621         11.4111 
        1.73649         71.9113         11.3152 
        1.74262         71.3238         11.2205 
        1.74876         71.1607         11.1268 
        1.75489          70.627         11.0344 
        1.76101         70.3302          10.943 
        1.76715         70.3649         10.8526 
        1.77329         69.6211         10.7631 
        1.77943         69.5327         10.6745 
        1.78557         69.2703         10.5871 
        1.79171         68.8037         10.5007 
        1.79785         68.5006         10.4152 
        1.80399          68.135         10.3306 
        1.81012         67.8205         10.2472 
        1.81625         67.5507         10.1646 
        1.82239         67.2583         10.0829 
        1.82853         66.9018         10.0021 
        1.83466         66.5527         9.92231 
        1.84078         66.1712         9.84345 
        1.84692         65.9071         9.76532 
        1.85306         65.6074         9.68795 
         1.8592         65.4002         9.61153 
        1.86533         64.9119         9.53599 
        1.87147         64.6644         9.46117 
        1.87761         64.2836         9.38712 
        1.88375         64.0595         9.31396 
        1.88988         63.8089         9.24166 
        1.89601         63.4067         9.17008 
        1.90215         63.1272         9.09921 
        1.90829         62.9051         9.02913 
        1.91442         62.5484         8.95977 
        1.92056         62.2341         8.89121 
         1.9267         61.9667          8.8233 
        1.93284         61.7686         8.75606 
        1.93897         61.4882         8.68965 
        1.94509         61.0027         8.62407 
        1.95123         60.7223           8.559 
        1.95737         60.4037         8.49455 
        1.96349         60.1711         8.43094 
        1.96964          59.894         8.36779 
        1.97578          59.667         8.30527 
        1.98192         59.3838         8.24351 
        1.98805         59.1186         8.18237 
        1.99419         58.8271         8.12186 
        2.00033         58.5631         8.06192 
        2.00647         58.3082         8.00261 
         2.0126         57.9553         7.94399 
        2.01874         57.7037         7.88588 
        2.02488         57.4201         7.82829 
        2.03101          57.184         7.77139 
        2.03714         56.9448         7.71511 
        2.04328         56.6748         7.65932 
        2.04941         56.3536         7.60414 
        2.05554         56.2238         7.54953 
        2.06167         56.0123         7.49539 
        2.06781          55.495         7.44177 
        2.07396         55.3145         7.38861 
        2.08009         55.2011         7.33605 
        2.08622         54.8798         7.28406 
        2.09237         54.6107         7.23248 
        2.09851          54.314         7.18139 
        2.10464         54.0725         7.13088 
        2.11077         53.8841         7.08091 
        2.11691         53.5145         7.03132 
        2.12305          53.337         6.98219 
        2.12918         53.0883         6.93366 
        2.13531         52.9031         6.88558 
        2.14145           52.58         6.83785 
         2.1476          52.345         6.79052 
        2.15372         52.2215         6.74387 
        2.15985         51.8275         6.69762 
        2.16599         51.6887         6.65167 
        2.17213         51.4321          6.6062 
        2.17827         51.1506         6.56116 
         2.1844         50.8817         6.51659 
        2.19054         50.6731         6.47241 
        2.19666         50.4048         6.42871 
         2.2028         50.1862         6.38538 
        2.20893         49.9254         6.34242 
        2.21508         49.7518         6.29981 
        2.22122         49.5237         6.25758 
        2.22736         49.2165         6.21582 
        2.23349         49.0759         6.17445 
        2.23962         48.8042         6.13345 
        2.24577         48.6647         6.09277 
         2.2519         48.3395         6.05252 
        2.25802         48.2151         6.01271 
        2.26417          47.959         5.97313 
        2.27031         47.7827         5.93388 
        2.27644         47.5758          5.8951 
        2.28257         47.1512         5.85666 
        2.28872         47.1851          5.8185 
        2.29486         46.8895         5.78068 
        2.30099         46.5785         5.74328 
        2.30712         46.5008         5.70619 
        2.31326         46.1746         5.66937 
         2.3194         45.9574         5.63289 
        2.32553         45.8291          5.5968 
        2.33166         45.5058         5.56104 
         2.3378         45.3415         5.52554 
        2.34394         45.1768         5.49035 
        2.35007         44.9188          5.4555 
        2.35619         44.8746         5.42101 
        2.36233         44.5133         5.38673 
        2.36848         44.3369         5.35268 
        2.37462         44.1715         5.31899 
        2.38075         44.0439         5.28563 
        2.38689         43.8352         5.25252 
        2.39303         43.6507         5.21971 
        2.39916         43.3162          5.1872 
        2.40529          43.132         5.15498 
        2.41143         42.9823         5.12301 
        2.41757         42.8123          5.0913 
         2.4237         42.6234         5.05991 
        2.42983         42.4087         5.02879 
        2.43598         42.2564         4.99785 
        2.44211         42.0672         4.96722 
        2.44823         41.8211         4.93692 
        2.45437         41.6939         4.90679 
        2.46052         41.4121         4.87688 
        2.46665         41.2536         4.84728 
        2.47279         41.0104         4.81793 
        2.47892         40.9216          4.7888 
        2.48507         40.7408         4.75989 
         2.4912         40.5585         4.73128 
