# k  (h/Mpc)    P(k)  (Mpc/h)^3    P_linear(k)  (Mpc/h)^3
     0.00783031         23587.8         24124.3 
       0.013688         27494.5         27239.1 
       0.019231         25468.1         25402.2 
      0.0249154         21134.2         21631.2 
      0.0312784         17123.1         17285.9 
      0.0375637         14043.6         13956.3 
      0.0433917         11761.4         11910.4 
      0.0492413         10618.2         10641.3 
      0.0555754          9468.8         9753.51 
      0.0619321         9042.46         8979.16 
       0.067871         7962.81         8147.69 
      0.0738098         7066.94         7185.36 
      0.0800417         6030.43         6146.02 
      0.0862327          5260.4         5234.49 
      0.0921407         4732.93         4569.27 
      0.0982031         4227.06         4109.91 
       0.104506         4045.61         3821.09 
       0.110769         3801.26         3636.11 
       0.116806         3610.62          3469.3 
       0.122832         3399.66         3259.12 
       0.129052         3072.99         2983.92 
       0.135211         2821.35         2680.11 
       0.141259         2639.11         2394.51 
       0.147318         2447.45         2156.39 
       0.153489         2236.01         1978.84 
       0.159709          2128.4         1860.35 
       0.165845         2064.36         1782.23 
       0.171974         1973.37         1717.03 
       0.178125          1876.3          1643.2 
       0.184229         1775.56         1551.71 
        0.19034         1665.44         1444.64 
       0.196428         1605.53         1333.68 
       0.202534          1526.8         1230.99 
       0.208729          1446.1         1144.82 
       0.214876         1389.54         1079.84 
       0.220989          1339.2         1031.99 
       0.227147         1291.32         993.586 
        0.23329         1238.96         957.446 
       0.239377         1214.85         918.372 
       0.245482         1135.46         874.053 
       0.251667         1124.31         825.654 
       0.257832         1072.86         777.631 
       0.263955         1033.19         733.867 
       0.270079         994.005         696.396 
        0.27624         979.848         665.363 
       0.282372         940.711          639.75 
        0.28843         931.263          617.41 
       0.294538         882.279          595.62 
       0.300721         875.241          572.88 
        0.30691          841.02         548.972 
       0.313033          821.88         524.877 
       0.319153         804.325         501.395 
       0.325316         779.019         479.467 
        0.33145         759.329          459.93 
       0.337538         742.517         442.856 
       0.343633         726.126         427.596 
       0.349808         698.669         413.296 
       0.355968         693.233         399.544 
       0.362074         685.609         385.941 
       0.368217         662.754         372.251 
       0.374374          636.89         358.657 
       0.380519         636.556         345.543 
       0.386598          616.19         333.334 
       0.392688         612.686         321.983 
        0.39888         594.267         311.364 
       0.405048         586.195         301.566 
       0.411186         577.391         292.343 
       0.417313         565.262         283.471 
       0.423458         551.936         274.795 
       0.429607         546.985         266.263 
       0.435692         532.685         258.031 
       0.441815         526.344         250.048 
       0.447964         516.352         242.399 
       0.454126         510.416         235.134 
       0.460267         497.439         228.309 
       0.466387         490.717         221.868 
        0.47254         487.511         215.675 
       0.478662         481.268         209.727 
       0.484765         465.136         203.984 
       0.490885          461.26         198.396 
       0.497035         451.888         192.942 
       0.503198          447.93         187.659 
       0.509342         444.793         182.595 
       0.515458         440.385         177.774 
       0.521598          427.54         173.141 
       0.527764         422.573         168.675 
       0.533884         418.392         164.407 
           0.54         413.188         160.288 
       0.546137         409.733         156.291 
       0.552299          403.77         152.405 
       0.558452         400.118         148.644 
       0.564573          395.78          145.02 
       0.570708         389.208         141.507 
       0.576825         380.818         138.125 
       0.582926         379.815         134.874 
       0.589034         375.426         131.734 
       0.595184         372.871         128.678 
       0.601379         365.222         125.699 
       0.607522         361.321         122.835 
       0.613639         358.649         120.068 
       0.619772         353.563         117.376 
       0.625918         350.854          114.76 
       0.632068         345.083         112.224 
       0.638161         342.984         109.789 
         0.6443         338.433         107.411 
       0.650464         335.729         105.097 
       0.656582         330.955         102.869 
       0.662703          330.81         100.705 
       0.668861         326.087         98.5903 
       0.675024          322.71         96.5342 
       0.681124          319.38         94.5571 
       0.687237         316.687         92.6314 
       0.693381         311.773         90.7504 
       0.699536         307.825         88.9188 
       0.705665         305.967         87.1462 
       0.711789         304.808         85.4241 
       0.717957         301.916         83.7372 
        0.72409         300.118         82.1056 
       0.730186         295.923         80.5275 
       0.736317          293.31         78.9824 
       0.742472         290.594         77.4721 
       0.748622         288.368         76.0026 
        0.75476         284.464         74.5744 
       0.760888         281.643         73.1849 
       0.767043          281.02         71.8254 
       0.773185         278.644         70.5033 
       0.779291         274.642          69.222 
       0.785407         273.702         67.9709 
       0.791564          270.73         66.7429 
       0.797719         268.549          65.546 
       0.803834         264.917         64.3862 
       0.809972         264.367         63.2505 
       0.816124          263.13         62.1398 
       0.822261         260.937         61.0588 
       0.828378         258.171         60.0069 
       0.834502         255.297          58.979 
       0.840667         253.822         57.9687 
       0.846816         252.594         56.9849 
       0.852925         250.802         56.0302 
       0.859047          248.43         55.0955 
       0.865192         245.497         54.1791 
       0.871341         243.316         53.2829 
       0.877463         243.586         52.4112 
       0.883569         241.055         51.5613 
       0.889708         238.581         50.7259 
       0.895864         238.339         49.9068 
       0.902008          235.61         49.1077 
       0.908149         233.165         48.3265 
       0.914301         231.328         47.5611 
       0.920448         229.749          46.813 
       0.926574         227.242         46.0837 
       0.932687         226.972         45.3714 
       0.938823         224.241         44.6717 
       0.944975         224.035         43.9851 
       0.951105         221.915         43.3154 
       0.957225         220.767         42.6608 
       0.963368         217.531         42.0175 
       0.969511         216.792         41.3875 
       0.975621         215.368         40.7738 
       0.981748         213.957         40.1709 
       0.987916         212.772         39.5764 
        0.99406         210.905         38.9962 
        1.00019         209.116         38.4288 
        1.00632         208.433         37.8732 
        1.01246         206.516         37.3278 
        1.01859         206.203          36.794 
        1.02471         203.267         36.2713 
        1.03085         202.432          35.757 
        1.03698         200.793         35.2537 
        1.04314         199.533          34.758 
        1.04929          198.34          34.273 
        1.05541         197.596         33.7992 
        1.06154          195.17         33.3332 
        1.06769         194.813         32.8753 
        1.07382         193.125         32.4275 
        1.07993          191.95         31.9891 
        1.08607         191.561          31.557 
        1.09222         189.442         31.1325 
        1.09836         187.985         30.7162 
        1.10449         186.604         30.3081 
        1.11063         185.173          29.907 
        1.11677          184.54         29.5132 
         1.1229         182.516         29.1273 
        1.12903         181.973         28.7479 
        1.13518         180.787         28.3749 
        1.14131         179.493         28.0088 
        1.14745         179.464         27.6493 
        1.15359         177.365         27.2961 
        1.15973         175.924         26.9489 
        1.16584         175.241         26.6093 
        1.17197         174.997         26.2751 
        1.17811          172.63         25.9455 
        1.18424         171.972         25.6226 
        1.19038         171.116         25.3042 
        1.19652         169.351         24.9913 
        1.20267           169.5         24.6837 
        1.20881         167.687         24.3814 
        1.21495         166.787         24.0846 
        1.22108         165.604         23.7927 
         1.2272         164.475         23.5064 
        1.23334         164.522         23.2241 
        1.23949         162.285         22.9458 
        1.24562         161.681         22.6729 
        1.25174         160.858         22.4047 
        1.25789         160.034         22.1401 
        1.26402         158.243         21.8803 
        1.27014          157.58         21.6252 
        1.27628         156.389         21.3734 
        1.28244         156.267         21.1252 
        1.28858         154.684         20.8812 
        1.29471         154.156         20.6416 
        1.30084         152.787         20.4061 
        1.30697         151.708         20.1738 
        1.31312         150.676         19.9448 
        1.31925         149.674         19.7201 
        1.32537         149.588          19.499 
        1.33151         148.133         19.2806 
        1.33765         147.228         19.0656 
        1.34378         146.469         18.8544 
        1.34992         145.891         18.6461 
        1.35606         145.308         18.4406 
         1.3622         143.634         18.2385 
        1.36833         143.081           18.04 
        1.37445         142.307         17.8445 
        1.38059         141.316         17.6512 
        1.38675          140.88         17.4604 
        1.39288         139.687         17.2732 
        1.39901         139.014         17.0887 
        1.40515         138.126         16.9066 
         1.4113         137.415         16.7272 
        1.41742         136.154          16.551 
        1.42355         135.835         16.3771 
         1.4297         134.658         16.2051 
        1.43585         133.999         16.0357 
        1.44198         133.789         15.8693 
        1.44809         132.697         15.7056 
        1.45423         132.236         15.5436 
        1.46036         131.096         15.3841 
        1.46649         130.277         15.2269 
        1.47263         129.515         15.0717 
        1.47877         128.518         14.9187 
        1.48491         127.684         14.7677 
        1.49104         127.439          14.619 
        1.49718         126.124         14.4722 
        1.50333         125.444         14.3273 
        1.50947         124.762         14.1846 
         1.5156         124.257          14.044 
        1.52172         123.588         13.9054 
        1.52787         122.471         13.7683 
          1.534          122.13         13.6333 
        1.54013         121.437         13.5002 
        1.54627         120.767         13.3686 
        1.55241         119.806         13.2388 
        1.55855         119.171         13.1109 
        1.56467          118.12          12.985 
         1.5708         117.563         12.8604 
        1.57695         117.472         12.7372 
        1.58308         116.718          12.616 
        1.58922         115.999         12.4962 
        1.59535         115.272          12.378 
         1.6015         114.724         12.2612 
        1.60764         114.309          12.146 
        1.61376         113.388         12.0325 
        1.61989         112.573         11.9204 
        1.62604         111.891         11.8095 
        1.63218          111.65            11.7 
        1.63831         110.941         11.5922 
        1.64444         110.191         11.4857 
        1.65059         109.382         11.3803 
        1.65673         109.065         11.2763 
        1.66285         108.462         11.1739 
        1.66898          107.83         11.0728 
        1.67512         106.881         10.9727 
        1.68127         106.623         10.8737 
         1.6874         106.092         10.7762 
        1.69353         105.512         10.6799 
        1.69967         104.716         10.5845 
        1.70581         103.884         10.4904 
        1.71193         103.351         10.3978 
        1.71806         103.158         10.3061 
        1.72421         102.569         10.2153 
        1.73035         102.153         10.1257 
        1.73649         101.397         10.0372 
        1.74262         100.964         9.94977 
        1.74876         100.347         9.86337 
        1.75489         99.6775         9.77816 
        1.76101         99.0233         9.69399 
        1.76715          98.776         9.61069 
        1.77329         97.9761         9.52826 
        1.77943         97.8321         9.44676 
        1.78557         97.3586         9.36634 
        1.79171         96.3595         9.28683 
        1.79785         96.0106         9.20822 
        1.80399         95.4781         9.13054 
        1.81012         95.0602         9.05386 
        1.81625         94.6118         8.97809 
        1.82239         93.9974         8.90307 
        1.82853         93.3347         8.82894 
        1.83466         92.9913         8.75572 
        1.84078         92.5734         8.68341 
        1.84692         91.7142         8.61179 
        1.85306         91.5982         8.54089 
         1.8592         90.8658          8.4709 
        1.86533         90.4795         8.40173 
        1.87147         89.8668         8.33325 
        1.87761         89.1858          8.2655 
        1.88375         88.9822         8.19859 
        1.88988         88.1904         8.13248 
        1.89601         87.8127         8.06706 
        1.90215         87.4709         8.00231 
        1.90829         86.9176          7.9383 
        1.91442         86.5419         7.87498 
        1.92056         85.9443         7.81241 
         1.9267          85.565         7.75045 
        1.93284         85.0265         7.68912 
        1.93897         84.5312         7.62858 
        1.94509         84.2715         7.56881 
        1.95123         83.8217         7.50953 
        1.95737         83.1913         7.45083 
        1.96349         82.7964         7.39292 
        1.96964         82.2504         7.33545 
        1.97578         81.7394         7.27856 
        1.98192          81.515         7.22239 
        1.98805         81.1012          7.1668 
        1.99419         80.5169          7.1118 
        2.00033         80.2121         7.05734 
        2.00647         79.8052         7.00347 
         2.0126         79.2962         6.95025 
        2.01874         78.9143          6.8975 
        2.02488          78.487         6.84524 
        2.03101         77.9936         6.79363 
        2.03714         77.5339         6.74259 
        2.04328         77.1326         6.69202 
        2.04941          76.773         6.64201 
        2.05554          76.346         6.59254 
        2.06167         75.9786         6.54351 
        2.06781         75.4062         6.49496 
        2.07396          75.261         6.44684 
        2.08009         74.8608         6.39929 
        2.08622         74.3259         6.35227 
        2.09237          74.109         6.30563 
        2.09851          73.591         6.25944 
        2.10464         73.2528          6.2138 
        2.11077         72.6413         6.16866 
        2.11691         72.5108         6.12387 
        2.12305         72.1512         6.07952 
        2.12918         71.7512         6.03571 
        2.13531         71.2879         5.99233 
        2.14145         70.9662         5.94927 
         2.1476         70.6006         5.90659 
        2.15372         70.2002         5.86454 
        2.15985         69.8112         5.82285 
        2.16599         69.4494         5.78145 
        2.17213          69.075         5.74049 
        2.17827         68.5217         5.69994 
         2.1844           68.38         5.65981 
        2.19054         67.9201         5.62006 
        2.19666         67.5475         5.58074 
         2.2028         67.3403         5.54177 
        2.20893         66.8788         5.50314 
        2.21508         66.6516         5.46484 
        2.22122         66.2388         5.42689 
        2.22736         65.7869         5.38938 
        2.23349         65.5968         5.35222 
        2.23962         65.2515          5.3154 
        2.24577         64.9041         5.27889 
         2.2519         64.6445         5.24278 
        2.25802         64.2861         5.20705 
        2.26417         63.9204         5.17156 
        2.27031         63.5524         5.13637 
        2.27644         63.1325          5.1016 
        2.28257         62.9051         5.06716 
        2.28872         62.6767         5.03297 
        2.29486         62.1925          4.9991 
        2.30099         61.8134         4.96561 
        2.30712         61.6337         4.93241 
        2.31326         61.2545         4.89946 
         2.3194         60.9504         4.86682 
        2.32553         60.7865         4.83454 
        2.33166         60.3391         4.80256 
         2.3378         60.0178         4.77083 
        2.34394         59.7914         4.73937 
        2.35007         59.4566         4.70824 
        2.35619         59.1293         4.67743 
        2.36233         58.8359         4.64682 
        2.36848         58.4354         4.61642 
        2.37462          58.285         4.58635 
        2.38075         57.9203         4.55658 
        2.38689         57.6403         4.52705 
        2.39303         57.3444         4.49778 
        2.39916         56.9836          4.4688 
        2.40529         56.8315         4.44008 
        2.41143         56.3291         4.41159 
        2.41757         56.1532         4.38333 
         2.4237         55.9216         4.35537 
        2.42983         55.6389         4.32766 
        2.43598         55.3083         4.30012 
        2.44211         55.0031         4.27286 
        2.44823          54.791         4.24589 
        2.45437         54.5038         4.21909 
        2.46052         54.2429         4.19249 
        2.46665         53.9854         4.16616 
        2.47279         53.6136         4.14007 
        2.47892         53.3382         4.11419 
        2.48507         53.1063          4.0885 
         2.4912         52.8322         4.06308 
