# k  (h/Mpc)    P(k)  (Mpc/h)^3    P_linear(k)  (Mpc/h)^3
     0.00783031         305.828         308.939 
       0.013688         383.616         385.031 
       0.019231          390.44         390.705 
      0.0249154         360.532         361.752 
      0.0312784         315.143         315.057 
      0.0375637          272.53         271.859 
      0.0433917         241.066         240.972 
      0.0492413         219.286         218.969 
      0.0555754         201.639         201.996 
      0.0619321         188.178         187.688 
       0.067871          173.49          173.74 
      0.0738098         157.928         158.192 
      0.0800417         140.562         140.937 
      0.0862327         124.618          124.64 
      0.0921407          111.53         111.416 
      0.0982031          100.93         100.967 
       0.104506         93.5981         93.2667 
       0.110769         88.0741         87.8684 
       0.116806          83.498         83.6178 
       0.122832         79.3927         79.3151 
       0.129052          74.119         74.2531 
       0.135211         68.5014         68.6324 
       0.141259         63.0454         62.9603 
       0.147318         57.9359          57.683 
       0.153489         53.3017         53.1573 
       0.159709         49.7685         49.6226 
       0.165845         47.3714         47.0187 
       0.171974         45.0706         44.9838 
       0.178125         43.2649         43.1477 
       0.184229         41.4309         41.2459 
        0.19034           39.12         39.1344 
       0.196428         36.9953         36.8603 
       0.202534         34.8761         34.5561 
       0.208729         32.5963          32.374 
       0.214876         30.6242         30.4945 
       0.220989         29.2628         28.9507 
       0.227147         27.8053         27.6829 
        0.23329         26.7308         26.6092 
       0.239377         25.7769         25.6237 
       0.245482         24.7013         24.6281 
       0.251667         23.7765         23.5726 
       0.257832         22.6497         22.4821 
       0.263955         21.6037         21.4042 
       0.270079            20.6         20.3838 
        0.27624         19.7616         19.4548 
       0.282372         18.9441         18.6433 
        0.28843         18.1727         17.9414 
       0.294538         17.5341          17.307 
       0.300721         17.0038         16.7061 
        0.30691         16.3341         16.1179 
       0.313033         15.7639         15.5349 
       0.319153         15.0717         14.9511 
       0.325316         14.6554         14.3732 
        0.33145          14.082         13.8227 
       0.337538         13.5725         13.3123 
       0.343633         13.0701         12.8432 
       0.349808         12.6671         12.4078 
       0.355968         12.2675         12.0064 
       0.362074          11.873         11.6304 
       0.368217          11.515         11.2655 
       0.374374         11.1135         10.9078 
       0.380519         10.8044         10.5572 
       0.386598         10.4838         10.2193 
       0.392688         10.1818         9.89302 
        0.39888         9.84694         9.57728 
       0.405048         9.56231         9.28113 
       0.411186         9.29379         9.00366 
       0.417313         8.99939         8.74219 
       0.423458         8.76962         8.49258 
       0.429607         8.50377          8.2522 
       0.435692         8.26884         8.02172 
       0.441815         8.05229         7.79653 
       0.447964         7.86866         7.57693 
       0.454126         7.61182         7.36427 
       0.460267         7.41346         7.16075 
       0.466387         7.19867         6.96676 
        0.47254         7.03138         6.78025 
       0.478662         6.86717         6.60277 
       0.484765         6.67574         6.43312 
       0.490885         6.51283         6.26925 
       0.497035         6.39636          6.1099 
       0.503198         6.21849         5.95519 
       0.509342          6.0753         5.80584 
       0.515458         5.91716           5.662 
       0.521598         5.78368         5.52242 
       0.527764         5.63183         5.38715 
       0.533884         5.52799         5.25777 
           0.54         5.39409         5.13325 
       0.546137         5.28006         5.01269 
       0.552299         5.16267         4.89567 
       0.558452         5.02446         4.78252 
       0.564573         4.93329          4.6734 
       0.570708         4.82601         4.56737 
       0.576825         4.70923         4.46491 
       0.582926         4.62329         4.36587 
       0.589034         4.49454         4.26975 
       0.595184         4.41175         4.17597 
       0.601379         4.31637         4.08447 
       0.607522         4.24478         3.99658 
       0.613639         4.17447         3.91174 
       0.619772         4.06415         3.82924 
       0.625918          3.9971         3.74899 
       0.632068         3.92942           3.671 
       0.638161         3.83799          3.5959 
         0.6443         3.76059         3.52236 
       0.650464         3.67742         3.45062 
       0.656582         3.62435         3.38142 
       0.662703         3.55532         3.31415 
       0.668861         3.49807         3.24838 
       0.675024           3.422          3.1844 
       0.681124         3.35168         3.12282 
       0.687237         3.30282         3.06278 
       0.693381         3.24415         3.00406 
       0.699536         3.16253         2.94679 
       0.705665         3.11262         2.89126 
       0.711789          3.0641         2.83723 
       0.717957         3.00365         2.78422 
        0.72409         2.95354         2.73288 
       0.730186         2.90113         2.68317 
       0.736317         2.86885         2.63444 
       0.742472         2.81669         2.58676 
       0.748622         2.76226         2.54033 
        0.75476         2.70685         2.49515 
       0.760888         2.66368         2.45115 
       0.767043         2.63437         2.40806 
       0.773185         2.57902          2.3661 
       0.779291          2.5428         2.32539 
       0.785407         2.50055          2.2856 
       0.791564         2.46231         2.24649 
       0.797719         2.42711         2.20833 
       0.803834         2.39152         2.17131 
       0.809972         2.35288         2.13502 
       0.816124         2.31023         2.09949 
       0.822261         2.26975         2.06487 
       0.828378         2.24132         2.03115 
       0.834502         2.21424         1.99816 
       0.840667         2.16761          1.9657 
       0.846816         2.13602         1.93406 
       0.852925         2.11457         1.90333 
       0.859047         2.08225         1.87321 
       0.865192         2.04931         1.84365 
       0.871341         2.02015         1.81472 
       0.877463         1.99729         1.78655 
       0.883569         1.96064         1.75906 
       0.889708         1.93154         1.73201 
       0.895864         1.90588         1.70547 
       0.902008         1.87485         1.67954 
       0.908149          1.8511         1.65418 
       0.914301         1.81604         1.62931 
       0.920448         1.79488         1.60498 
       0.926574         1.76871         1.58123 
       0.932687         1.74547         1.55802 
       0.938823         1.72892          1.5352 
       0.944975         1.70307         1.51279 
       0.951105         1.68211         1.49091 
       0.957225         1.66536         1.46951 
       0.963368         1.64041         1.44846 
       0.969511         1.61524         1.42782 
       0.975621          1.5903         1.40771 
       0.981748         1.57674         1.38793 
       0.987916         1.55403         1.36841 
        0.99406         1.53042         1.34934 
        1.00019         1.51645         1.33068 
        1.00632         1.49181         1.31239 
        1.01246         1.47366         1.29443 
        1.01859         1.45797         1.27683 
        1.02471         1.43736         1.25958 
        1.03085         1.42398         1.24259 
        1.03698         1.40248         1.22596 
        1.04314         1.38756         1.20956 
        1.04929         1.36815         1.19351 
        1.05541         1.35426         1.17782 
        1.06154         1.33581         1.16237 
        1.06769         1.31942         1.14718 
        1.07382         1.30471         1.13231 
        1.07993         1.28498         1.11774 
        1.08607         1.27716         1.10337 
        1.09222         1.25815         1.08924 
        1.09836         1.24891         1.07538 
        1.10449         1.23352         1.06178 
        1.11063         1.21476          1.0484 
        1.11677         1.19965         1.03526 
         1.1229         1.18768         1.02237 
        1.12903         1.17247         1.00969 
        1.13518         1.16282        0.997221 
        1.14131         1.14673        0.984968 
        1.14745          1.1276         0.97293 
        1.15359          1.1211        0.961092 
        1.15973         1.10387        0.949449 
        1.16584         1.09941        0.938052 
        1.17197         1.08464        0.926829 
        1.17811         1.07394        0.915756 
        1.18424         1.06549        0.904898 
        1.19038         1.04996        0.894186 
        1.19652         1.03675        0.883653 
        1.20267         1.03011        0.873292 
        1.20881         1.01525          0.8631 
        1.21495         1.00822        0.853088 
        1.22108         0.99692        0.843238 
         1.2272        0.988623        0.833568 
        1.23334        0.976004        0.824029 
        1.23949        0.965566        0.814617 
        1.24562        0.956768        0.805379 
        1.25174        0.947201          0.7963 
        1.25789        0.938228        0.787334 
        1.26402         0.92525        0.778523 
        1.27014        0.916496         0.76987 
        1.27628        0.911171        0.761323 
        1.28244        0.897306        0.752891 
        1.28858        0.889896        0.744599 
        1.29471        0.882946        0.736452 
        1.30084        0.872037        0.728435 
        1.30697        0.863819        0.720526 
        1.31312        0.851736        0.712725 
        1.31925        0.846405        0.705065 
        1.32537        0.839342        0.697526 
        1.33151        0.832303        0.690071 
        1.33765        0.823227         0.68273 
        1.34378        0.812777        0.675512 
        1.34992        0.808164        0.668394 
        1.35606        0.798523        0.661364 
         1.3622        0.792068        0.654449 
        1.36833        0.784082         0.64765 
        1.37445        0.774361        0.640952 
        1.38059        0.767846        0.634329 
        1.38675        0.766198        0.627785 
        1.39288        0.755456        0.621359 
        1.39901        0.748929        0.615028 
        1.40515        0.742586        0.608771 
         1.4113        0.734169        0.602604 
        1.41742        0.727764        0.596546 
        1.42355        0.724783        0.590561 
         1.4297        0.714896        0.584641 
        1.43585        0.709143        0.578805 
        1.44198        0.705986        0.573071 
        1.44809        0.696377        0.567426 
        1.45423        0.690886        0.561837 
        1.46036         0.68485        0.556334 
        1.46649        0.679373        0.550903 
        1.47263         0.67249        0.545541 
        1.47877        0.665844        0.540253 
        1.48491        0.660822        0.535027 
        1.49104         0.65379        0.529882 
        1.49718        0.649858        0.524802 
        1.50333        0.644129         0.51978 
        1.50947         0.63902        0.514835 
         1.5156        0.632721        0.509962 
        1.52172        0.627572        0.505153 
        1.52787          0.6218        0.500396 
          1.534        0.617551        0.495707 
        1.54013        0.610559        0.491083 
        1.54627        0.606424        0.486511 
        1.55241        0.600782        0.481996 
        1.55855          0.5951        0.477545 
        1.56467        0.593112        0.473164 
         1.5708        0.586337        0.468825 
        1.57695        0.582599        0.464535 
        1.58308        0.577328        0.460308 
        1.58922         0.57283        0.456132 
        1.59535        0.567819        0.452009 
         1.6015        0.563471        0.447932 
        1.60764        0.559397        0.443908 
        1.61376         0.55322        0.439944 
        1.61989        0.550361        0.436026 
        1.62604        0.545704        0.432148 
        1.63218         0.54229        0.428319 
        1.63831         0.53748        0.424545 
        1.64444        0.532842        0.420816 
        1.65059        0.529069        0.417124 
        1.65673        0.524607        0.413479 
        1.66285        0.520845        0.409889 
        1.66898        0.517628        0.406341 
        1.67512        0.512212        0.402828 
        1.68127        0.508115        0.399353 
         1.6874        0.505935        0.395928 
        1.69353        0.500937        0.392545 
        1.69967        0.497731        0.389193 
        1.70581         0.49339        0.385883 
        1.71193        0.489985        0.382624 
        1.71806        0.485993        0.379396 
        1.72421        0.482825        0.376199 
        1.73035         0.47855        0.373042 
        1.73649        0.476184        0.369923 
        1.74262        0.472349        0.366842 
        1.74876        0.468325        0.363795 
        1.75489        0.465079        0.360788 
        1.76101         0.46108        0.357817 
        1.76715        0.458062        0.354875 
        1.77329        0.454688        0.351963 
        1.77943        0.451192        0.349083 
        1.78557        0.448509        0.346239 
        1.79171        0.445359        0.343427 
        1.79785         0.44195        0.340646 
        1.80399        0.438587        0.337896 
        1.81012        0.436028         0.33518 
        1.81625         0.43257        0.332496 
        1.82239        0.430167        0.329837 
        1.82853        0.425528        0.327209 
        1.83466        0.423484        0.324612 
        1.84078        0.419965        0.322046 
        1.84692        0.417659        0.319504 
        1.85306        0.415079        0.316987 
         1.8592        0.412066        0.314501 
        1.86533        0.409519        0.312043 
        1.87147         0.40643        0.309608 
        1.87761        0.404233        0.307199 
        1.88375        0.400021        0.304818 
        1.88988        0.398184        0.302465 
        1.89601        0.395032        0.300136 
        1.90215        0.392821         0.29783 
        1.90829        0.389721        0.295549 
        1.91442        0.387512        0.293292 
        1.92056         0.38462        0.291061 
         1.9267        0.381826        0.288851 
        1.93284        0.379447        0.286662 
        1.93897         0.37717        0.284501 
        1.94509        0.374929        0.282366 
        1.95123        0.371724        0.280248 
        1.95737        0.370086        0.278151 
        1.96349        0.367181         0.27608 
        1.96964        0.364628        0.274025 
        1.97578        0.362185         0.27199 
        1.98192        0.360732         0.26998 
        1.98805         0.35826         0.26799 
        1.99419        0.355411         0.26602 
        2.00033         0.35349        0.264069 
        2.00647        0.351486        0.262138 
         2.0126        0.348719         0.26023 
        2.01874        0.346925        0.258338 
        2.02488         0.34492        0.256464 
        2.03101        0.342206        0.254611 
        2.03714        0.339981        0.252779 
        2.04328        0.338189        0.250963 
        2.04941        0.336037        0.249166 
        2.05554        0.333996        0.247388 
        2.06167        0.332266        0.245625 
        2.06781        0.328961        0.243879 
        2.07396        0.327156        0.242148 
        2.08009        0.325309        0.240437 
        2.08622        0.323618        0.238744 
        2.09237        0.322379        0.237065 
        2.09851        0.320228        0.235401 
        2.10464        0.318098        0.233756 
        2.11077         0.31586        0.232129 
        2.11691        0.313949        0.230514 
        2.12305        0.312115        0.228914 
        2.12918        0.310381        0.227334 
        2.13531        0.308356        0.225768 
        2.14145         0.30654        0.224213 
         2.1476        0.304892        0.222672 
        2.15372         0.30357        0.221152 
        2.15985        0.301173        0.219646 
        2.16599        0.299049        0.218149 
        2.17213        0.297894        0.216668 
        2.17827        0.296199        0.215201 
         2.1844        0.294664        0.213749 
        2.19054        0.292718         0.21231 
        2.19666        0.290408        0.210887 
         2.2028        0.289423        0.209475 
        2.20893        0.287939        0.208075 
        2.21508        0.285533        0.206687 
        2.22122        0.283955        0.205311 
        2.22736        0.282664        0.203951 
        2.23349        0.281146        0.202603 
        2.23962          0.2798        0.201267 
        2.24577         0.27746        0.199941 
         2.2519        0.276663         0.19863 
        2.25802        0.274533        0.197332 
        2.26417        0.273094        0.196043 
        2.27031        0.271395        0.194764 
        2.27644        0.270205          0.1935 
        2.28257         0.26853        0.192247 
        2.28872        0.267203        0.191004 
        2.29486        0.265577        0.189771 
        2.30099        0.264317        0.188552 
        2.30712        0.262997        0.187343 
        2.31326        0.260972        0.186143 
         2.3194        0.260864        0.184954 
        2.32553        0.259276        0.183778 
        2.33166        0.257746        0.182612 
         2.3378         0.25636        0.181455 
        2.34394        0.254402        0.180308 
        2.35007        0.253257        0.179172 
        2.35619         0.25169        0.178048 
        2.36233        0.249969         0.17693 
        2.36848        0.249198         0.17582 
        2.37462        0.247594        0.174721 
        2.38075        0.246859        0.173634 
        2.38689        0.245199        0.172554 
        2.39303        0.244506        0.171484 
        2.39916        0.242403        0.170424 
        2.40529        0.241345        0.169374 
        2.41143        0.240301        0.168331 
        2.41757         0.23882        0.167297 
         2.4237        0.237709        0.166273 
        2.42983        0.236417        0.165259 
        2.43598        0.235762         0.16425 
        2.44211        0.234283        0.163251 
        2.44823        0.233466        0.162262 
        2.45437        0.231445         0.16128 
        2.46052        0.230799        0.160304 
        2.46665         0.22942        0.159339 
        2.47279        0.228123        0.158381 
        2.47892        0.226999        0.157431 
        2.48507        0.225834        0.156488 
         2.4912        0.224969        0.155555 
