# k  (h/Mpc)    Pcb(k)  (Mpc/h)^3    Pcb_linear(k)  (Mpc/h)^3
     0.00783031         9806.58          9849.1 
       0.013688         12310.2         12590.4 
       0.019231         13046.9         13220.8 
      0.0249154         12714.2         12718.8 
      0.0312784         11391.8         11520.5 
      0.0375637         10027.3           10217 
      0.0433917         9082.32          9163.5 
      0.0492413         8189.19         8334.71 
      0.0555754         7575.16         7664.46 
      0.0619321         6855.67         7136.12 
       0.067871         6504.65         6683.05 
      0.0738098         6084.15         6211.18 
      0.0800417         5576.29         5678.49 
      0.0862327          5023.1         5133.77 
      0.0921407         4559.19         4639.38 
      0.0982031         4176.93         4195.56 
       0.104506         3763.42         3824.44 
       0.110769         3505.15         3545.96 
       0.116806         3362.55         3343.87 
       0.122832         3159.91         3179.78 
       0.129052         3004.49         3021.63 
       0.135211         2894.95         2856.26 
       0.141259         2686.93         2678.71 
       0.147318         2480.23         2491.08 
       0.153489         2333.92         2302.67 
       0.159709         2226.66         2129.64 
       0.165845         2036.41         1984.97 
       0.171974         1986.39         1868.89 
       0.178125         1917.23         1777.05 
       0.184229         1780.11         1702.31 
        0.19034         1749.31         1634.66 
       0.196428         1695.92         1566.79 
       0.202534         1590.03         1494.13 
       0.208729         1555.88         1415.65 
       0.214876         1488.94         1336.18 
       0.220989         1402.02         1260.11 
       0.227147         1367.47         1190.57 
        0.23329         1315.56         1130.61 
       0.239377         1300.16         1080.62 
       0.245482         1238.23         1038.12 
       0.251667          1192.7         1000.06 
       0.257832         1178.37         964.161 
       0.263955         1121.03         928.309 
       0.270079         1088.64         891.303 
        0.27624            1043         853.191 
       0.282372         1025.88         815.492 
        0.28843         1014.03         779.901 
       0.294538         964.354         746.817 
       0.300721         940.756         716.843 
        0.30691         923.502         690.242 
       0.313033         886.273         666.667 
       0.319153         874.354         644.882 
       0.325316         861.703         623.855 
        0.33145         844.247          603.15 
       0.337538         815.026         582.599 
       0.343633         793.652         562.092 
       0.349808         776.354         541.776 
       0.355968         762.284         522.365 
       0.362074         738.542         504.333 
       0.368217         735.254         487.557 
       0.374374          723.35         472.048 
       0.380519         696.509         457.685 
       0.386598          690.42         444.248 
       0.392688         676.067         431.298 
        0.39888         658.565         418.449 
       0.405048         647.889          405.86 
       0.411186         645.391         393.592 
       0.417313         640.072         381.685 
       0.423458         620.332         370.198 
       0.429607         604.057          359.27 
       0.435692          596.63          349.05 
       0.441815         586.833         339.324 
       0.447964         576.556          330.07 
       0.454126         569.686          321.21 
       0.460267         560.832         312.692 
       0.466387         552.564         304.448 
        0.47254         543.654         296.383 
       0.478662         533.595         288.566 
       0.484765         528.524             281 
       0.490885         523.021         273.679 
       0.497035         513.122         266.615 
       0.503198         512.635         259.829 
       0.509342         501.164         253.347 
       0.515458         492.768         247.158 
       0.521598         486.615         241.179 
       0.527764         478.456         235.374 
       0.533884          476.24         229.782 
           0.54         470.135         224.353 
       0.546137         461.326         219.064 
       0.552299         460.369         213.912 
       0.558452         453.623         208.928 
       0.564573         448.696         204.131 
       0.570708         444.216         199.486 
       0.576825          435.86         195.018 
       0.582926         433.256         190.714 
       0.589034         427.227         186.542 
       0.595184         424.155         182.467 
       0.601379         417.295         178.482 
       0.607522         410.408         174.643 
       0.613639          408.75         170.929 
       0.619772         407.081         167.312 
       0.625918         400.296         163.792 
       0.632068         396.146         160.373 
       0.638161         392.576         157.083 
         0.6443         389.112         153.865 
       0.650464          384.14         150.729 
       0.656582         380.739         147.707 
       0.662703         377.902          144.77 
       0.668861         372.429         141.897 
       0.675024         370.089           139.1 
       0.681124         365.901         136.405 
       0.687237         363.266         133.774 
       0.693381         359.141           131.2 
       0.699536         356.208         128.689 
       0.705665         352.609         126.255 
       0.711789         350.977         123.888 
       0.717957         346.182         121.567 
        0.72409         342.798          119.32 
       0.730186         344.657         117.144 
       0.736317         338.323         115.012 
       0.742472         334.689         112.925 
       0.748622         331.267         110.892 
        0.75476         330.782         108.913 
       0.760888         327.195         106.985 
       0.767043         324.154         105.096 
       0.773185         322.559         103.257 
       0.779291         317.497         101.473 
       0.785407         316.644          99.729 
       0.791564         313.432         98.0152 
       0.797719         308.766         96.3431 
       0.803834         311.281         94.7211 
       0.809972         306.838         93.1311 
       0.816124         303.243         91.5744 
       0.822261         300.462         90.0578 
       0.828378         300.167         88.5804 
       0.834502         295.668         87.1351 
       0.840667         295.609         85.7129 
       0.846816         290.726         84.3266 
       0.852925         290.463         82.9798 
       0.859047          287.55         81.6599 
       0.865192         287.133         80.3645 
       0.871341         283.065         79.0966 
       0.877463         280.722         77.8619 
       0.883569         279.823         76.6569 
       0.889708         277.358         75.4714 
       0.895864         275.258         74.3081 
       0.902008         273.125          73.172 
       0.908149         270.928         72.0604 
       0.914301         269.583         70.9703 
       0.920448         268.199          69.904 
       0.926574         266.005         68.8634 
       0.932687         264.345         67.8463 
       0.938823         262.032         66.8463 
       0.944975         260.842         65.8642 
       0.951105         258.355         64.9055 
       0.957225         256.271         63.9676 
       0.963368          255.83         63.0452 
       0.969511          251.54          62.141 
       0.975621         250.764         61.2595 
       0.981748         249.341          60.393 
       0.987916         248.254         59.5379 
        0.99406          246.04         58.7026 
        1.00019         244.417         57.8851 
        1.00632         243.744         57.0839 
        1.01246         241.807         56.2968 
        1.01859         239.192         55.5259 
        1.02471         237.448         54.7704 
        1.03085         236.629         54.0264 
        1.03698         234.918         53.2979 
        1.04314         234.603         52.5799 
        1.04929         232.838         51.8768 
        1.05541         230.839         51.1894 
        1.06154         229.219         50.5129 
        1.06769         227.259         49.8476 
        1.07382          227.13         49.1966 
        1.07993         224.484         48.5587 
        1.08607         222.912         47.9295 
        1.09222         221.912         47.3109 
        1.09836         220.949          46.704 
        1.10449         218.907         46.1086 
        1.11063         217.509         45.5229 
        1.11677         216.525         44.9476 
         1.1229         214.919         44.3833 
        1.12903         214.092         43.8282 
        1.13518         212.455         43.2823 
        1.14131         211.507          42.746 
        1.14745         209.359         42.2191 
        1.15359         207.593          41.701 
        1.15973         207.262         41.1915 
        1.16584         206.401         40.6927 
        1.17197         204.856         40.2016 
        1.17811         203.055         39.7171 
        1.18424         202.024          39.242 
        1.19038         200.743         38.7734 
        1.19652         199.029         38.3126 
        1.20267         198.268         37.8593 
        1.20881         196.779         37.4135 
        1.21495         196.463         36.9756 
        1.22108         194.894         36.5448 
         1.2272         193.239         36.1219 
        1.23334         192.518         35.7047 
        1.23949         191.903         35.2932 
        1.24562         190.382         34.8893 
        1.25174         189.052         34.4923 
        1.25789         187.671         34.1003 
        1.26402         187.477         33.7151 
        1.27014         186.355         33.3369 
        1.27628         184.107         32.9633 
        1.28244         183.639         32.5947 
        1.28858          182.46         32.2323 
        1.29471         181.551         31.8762 
        1.30084         180.325         31.5259 
        1.30697         179.169         31.1803 
        1.31312         178.083         30.8394 
        1.31925         176.869         30.5047 
        1.32537         176.406         30.1753 
        1.33151         175.237         29.8496 
        1.33765         173.629         29.5289 
        1.34378         173.412         29.2136 
        1.34992          172.38         28.9027 
        1.35606         171.202         28.5956 
         1.3622         170.646         28.2936 
        1.36833         168.718         27.9967 
        1.37445         168.662         27.7042 
        1.38059         167.211          27.415 
        1.38675         166.338         27.1292 
        1.39288         165.214         26.8487 
        1.39901         164.354         26.5722 
        1.40515         163.583         26.2991 
         1.4113         162.577         26.0299 
        1.41742         161.242         25.7655 
        1.42355         161.328         25.5043 
         1.4297         159.747         25.2459 
        1.43585         158.872         24.9912 
        1.44198         157.409         24.7411 
        1.44809         156.624         24.4948 
        1.45423         156.313         24.2509 
        1.46036         155.138         24.0109 
        1.46649         154.139          23.774 
        1.47263         153.662         23.5401 
        1.47877         152.384         23.3094 
        1.48491          151.49         23.0815 
        1.49104         149.886         22.8572 
        1.49718         149.924         22.6356 
        1.50333         149.185         22.4167 
        1.50947         148.172         22.2011 
         1.5156         147.172         21.9886 
        1.52172         146.474          21.779 
        1.52787         145.696         21.5717 
          1.534         144.925         21.3673 
        1.54013          144.16         21.1658 
        1.54627         143.151         20.9665 
        1.55241         142.563         20.7697 
        1.55855         141.798         20.5758 
        1.56467           140.7         20.3849 
         1.5708         139.791         20.1958 
        1.57695         139.347         20.0089 
        1.58308         138.414         19.8248 
        1.58922          138.16         19.6429 
        1.59535         137.295         19.4633 
         1.6015         135.902         19.2857 
        1.60764         135.188         19.1104 
        1.61376         134.587         18.9378 
        1.61989         133.942         18.7672 
        1.62604         133.043         18.5984 
        1.63218          132.53         18.4317 
        1.63831         131.583         18.2674 
        1.64444         130.759         18.1051 
        1.65059          129.98         17.9443 
        1.65673         129.629         17.7857 
        1.66285         129.101         17.6295 
        1.66898         127.897         17.4751 
        1.67512         127.448         17.3222 
        1.68127         126.639          17.171 
         1.6874          125.73          17.022 
        1.69353         125.142         16.8748 
        1.69967         124.515          16.729 
        1.70581         124.101          16.585 
        1.71193           123.1         16.4433 
        1.71806         122.355         16.3029 
        1.72421           121.8         16.1639 
        1.73035         121.226         16.0266 
        1.73649          120.29          15.891 
        1.74262         119.931         15.7571 
        1.74876         118.978         15.6246 
        1.75489         118.565         15.4939 
        1.76101         117.871         15.3648 
        1.76715          116.92         15.2369 
        1.77329         116.585         15.1103 
        1.77943         115.597         14.9852 
        1.78557          115.27         14.8616 
        1.79171         114.766         14.7394 
        1.79785           113.7         14.6185 
        1.80399         113.459         14.4991 
        1.81012         112.515         14.3811 
        1.81625         112.161         14.2645 
        1.82239         111.584          14.149 
        1.82853         111.032         14.0349 
        1.83466         110.087         13.9221 
        1.84078         109.651         13.8107 
        1.84692         109.381         13.7003 
        1.85306         108.543          13.591 
         1.8592         108.124         13.4831 
        1.86533         107.334         13.3764 
        1.87147         106.891         13.2707 
        1.87761         106.109         13.1661 
        1.88375         105.478         13.0628 
        1.88988         104.685         12.9607 
        1.89601         104.598         12.8596 
        1.90215         103.945         12.7595 
        1.90829          103.16         12.6606 
        1.91442         102.703         12.5626 
        1.92056          102.23         12.4658 
         1.9267         101.569           12.37 
        1.93284         101.071          12.275 
        1.93897         100.689         12.1813 
        1.94509         99.8844         12.0887 
        1.95123         99.4425         11.9969 
        1.95737         99.0952         11.9059 
        1.96349         98.4953         11.8162 
        1.96964         97.9692         11.7271 
        1.97578         97.3097         11.6388 
        1.98192         96.7918         11.5517 
        1.98805          96.313         11.4654 
        1.99419         95.7965         11.3801 
        2.00033         95.0996         11.2955 
        2.00647         94.8418         11.2119 
         2.0126         94.3281         11.1292 
        2.01874         94.0746         11.0472 
        2.02488         93.2238          10.966 
        2.03101         92.9323         10.8857 
        2.03714         92.3606         10.8064 
        2.04328         91.8892         10.7277 
        2.04941         91.3865         10.6499 
        2.05554         90.9569         10.5729 
        2.06167         90.1618         10.4965 
        2.06781         89.7139         10.4209 
        2.07396         89.4816          10.346 
        2.08009         88.8464         10.2719 
        2.08622          88.541         10.1986 
        2.09237         88.1593         10.1259 
        2.09851          87.395         10.0539 
        2.10464         87.1843         9.98269 
        2.11077         86.6553         9.91227 
        2.11691         86.3636         9.84238 
        2.12305          85.791         9.77316 
        2.12918         85.3289         9.70477 
        2.13531         84.9012         9.63702 
        2.14145         84.2289         9.56977 
         2.1476         83.9925         9.50308 
        2.15372         83.5243         9.43737 
        2.15985         83.0244          9.3722 
        2.16599         82.6186         9.30747 
        2.17213         82.2874         9.24342 
        2.17827         81.6325         9.17999 
         2.1844         81.2533          9.1172 
        2.19054         81.0275         9.05499 
        2.19666         80.4822         8.99344 
         2.2028         80.0359         8.93241 
        2.20893         79.6014         8.87191 
        2.21508         79.1659         8.81191 
        2.22122         78.7237         8.75244 
        2.22736         78.4265         8.69364 
        2.23349         77.9697          8.6354 
        2.23962         77.6859         8.57766 
        2.24577         77.1448          8.5204 
         2.2519         76.7811         8.46374 
        2.25802         76.3215         8.40768 
        2.26417         75.8736         8.35198 
        2.27031         75.5174         8.29673 
        2.27644         75.1918         8.24214 
        2.28257         74.8211         8.18804 
        2.28872         74.4473         8.13433 
        2.29486         74.0885         8.08111 
        2.30099         73.5321         8.02848 
        2.30712         73.3889         7.97629 
        2.31326         73.0078         7.92448 
         2.3194         72.4363         7.87315 
        2.32553         72.1788         7.82237 
        2.33166         71.6785         7.77206 
         2.3378         71.4857         7.72212 
        2.34394         71.1389          7.6726 
        2.35007         70.7208         7.62359 
        2.35619         70.3316         7.57507 
        2.36233         70.0359         7.52685 
        2.36848         69.5934         7.47895 
        2.37462          69.204         7.43157 
        2.38075          68.922         7.38465 
        2.38689         68.5908         7.33809 
        2.39303         68.1874         7.29194 
        2.39916         67.9155         7.24623 
        2.40529          67.519         7.20092 
        2.41143         67.2183         7.15597 
        2.41757         66.7611         7.11138 
         2.4237         66.5783         7.06724 
        2.42983         66.1303         7.02349 
        2.43598         65.8989            6.98 
        2.44211         65.3794         6.93694 
        2.44823         65.2227         6.89434 
        2.45437         64.8535         6.85199 
        2.46052         64.4457         6.80995 
        2.46665         64.0825         6.76834 
        2.47279         63.8047         6.72709 
        2.47892         63.5048         6.68616 
        2.48507         63.0958         6.64553 
         2.4912         62.8726         6.60532 
