# k  (h/Mpc)    Pcb(k)  (Mpc/h)^3    Pcb_linear(k)  (Mpc/h)^3
     0.00783031         8123.42         8228.12 
       0.013688         9503.58         9453.16 
       0.019231         8957.98         8931.14 
      0.0249154         7575.78         7664.88 
      0.0312784         6111.31         6123.49 
      0.0375637          4927.7         4894.53 
      0.0433917         4104.19         4118.94 
      0.0492413         3646.92         3638.88 
      0.0555754         3286.94         3329.36 
      0.0619321         3125.87         3098.47 
       0.067871         2833.69         2861.61 
      0.0738098         2547.33         2569.95 
      0.0800417          2197.5         2224.34 
      0.0862327         1891.67         1891.05 
      0.0921407         1650.88         1625.76 
      0.0982031         1443.55         1428.47 
       0.104506         1343.06          1300.5 
       0.110769         1261.53         1229.04 
       0.116806         1203.46         1183.94 
       0.122832         1158.22         1136.13 
       0.129052          1072.7         1067.08 
       0.135211         988.602         976.956 
       0.141259         907.631         877.651 
       0.147318          822.21         782.285 
       0.153489         737.923         701.838 
       0.159709         686.233         643.509 
       0.165845         655.334         606.746 
       0.171974         623.606         584.042 
       0.178125         602.807         566.614 
       0.184229         581.113         546.884 
        0.19034         541.721           520.3 
       0.196428         520.728         486.923 
       0.202534             493         449.895 
       0.208729           456.8         413.534 
       0.214876           425.8         382.682 
       0.220989         406.809         359.076 
       0.227147         386.296         342.108 
        0.23329          371.85         329.992 
       0.239377         363.601         320.002 
       0.245482         340.968         309.491 
       0.251667         335.327         296.838 
       0.257832         321.429         282.034 
       0.263955         306.662         266.106 
       0.270079         291.578         250.447 
        0.27624         283.908         236.297 
       0.282372         272.282          224.58 
        0.28843         261.928         215.359 
       0.294538         250.154         207.871 
       0.300721         247.102         201.293 
        0.30691         235.844         194.823 
       0.313033         229.668         187.987 
       0.319153         219.811         180.544 
       0.325316         214.072         172.681 
        0.33145         205.508         164.901 
       0.337538         201.264         157.685 
       0.343633         193.688         151.254 
       0.349808         187.083         145.623 
       0.355968         183.697          140.77 
       0.362074          178.73         136.438 
       0.368217         173.449         132.294 
       0.374374         167.328         128.117 
       0.380519         164.337         123.838 
       0.386598         159.647         119.532 
       0.392688         156.686         115.242 
        0.39888         152.343         111.065 
       0.405048          148.12         107.203 
       0.411186         144.673         103.691 
       0.417313         141.261         100.512 
       0.423458         137.931         97.5716 
       0.429607         134.658          94.776 
       0.435692         130.216         92.0862 
       0.441815         128.923         89.4084 
       0.447964         126.349         86.7259 
       0.454126         120.717          84.079 
       0.460267         119.242         81.5287 
       0.466387         117.363         79.1048 
        0.47254         114.535         76.8032 
       0.478662         113.511         74.6605 
       0.484765         109.797         72.6534 
       0.490885         107.886         70.7354 
       0.497035         106.373         68.8718 
       0.503198         103.288         67.0531 
       0.509342         101.397         65.2828 
       0.515458         99.7622         63.5596 
       0.521598         98.0028         61.8732 
       0.527764         96.5429         60.2376 
       0.533884         95.0071         58.6842 
           0.54         92.9917         57.2054 
       0.546137         92.0042         55.7875 
       0.552299         90.3699         54.4194 
       0.558452         88.4693         53.1008 
       0.564573         86.8762         51.8299 
       0.570708         85.3672         50.5939 
       0.576825         84.2317         49.3962 
       0.582926          82.388         48.2341 
       0.589034          81.014         47.1034 
       0.595184         79.8773         46.0007 
       0.601379          78.672         44.9287 
       0.607522         76.8955         43.9048 
       0.613639         76.5049         42.9227 
       0.619772         74.8451         41.9715 
       0.625918         73.8253         41.0479 
       0.632068          72.971           40.15 
       0.638161         72.0387         39.2838 
         0.6443         71.0272         38.4346 
       0.650464         70.1336         37.6062 
       0.656582         68.9797         36.8079 
       0.662703          67.752         36.0336 
       0.668861         66.8251         35.2787 
       0.675024         66.0262         34.5463 
       0.681124         65.2035         33.8428 
       0.687237         63.9228          33.158 
       0.693381         63.1749         32.4889 
       0.699536         62.4029         31.8365 
       0.705665         62.4406         31.2044 
       0.711789         60.8035         30.5895 
       0.717957         60.3066         29.9868 
        0.72409         59.3672         29.4037 
       0.730186          58.406         28.8397 
       0.736317         58.1983         28.2877 
       0.742472         57.4611         27.7485 
       0.748622         56.7286         27.2242 
        0.75476         56.1078         26.7147 
       0.760888          55.256         26.2192 
       0.767043          54.715         25.7343 
       0.773185         54.0097         25.2628 
       0.779291         53.5196         24.8057 
       0.785407         53.0433         24.3591 
       0.791564         52.4449         23.9207 
       0.797719         51.4582         23.4933 
       0.803834          51.237          23.079 
       0.809972         50.3093         22.6733 
       0.816124         49.9287         22.2764 
       0.822261         49.5094         21.8901 
       0.828378         49.1534         21.5142 
       0.834502         48.5504         21.1469 
       0.840667         48.0095         20.7858 
       0.846816         47.3139         20.4343 
       0.852925         46.9528         20.0931 
       0.859047         46.2998          19.759 
       0.865192         45.9704         19.4315 
       0.871341         45.7059         19.1112 
       0.877463         44.8625         18.7996 
       0.883569         44.5605         18.4958 
       0.889708         44.2421         18.1971 
       0.895864          43.828         17.9043 
       0.902008          43.383         17.6186 
       0.908149         43.0198         17.3392 
       0.914301         42.6472         17.0656 
       0.920448         42.2646          16.798 
       0.926574         41.7519         16.5372 
       0.932687         41.5492         16.2825 
       0.938823         40.8881         16.0322 
       0.944975         40.6498         15.7866 
       0.951105         40.2411         15.5471 
       0.957225         39.7595         15.3129 
       0.963368          39.731         15.0828 
       0.969511         39.3348         14.8574 
       0.975621         39.0522         14.6378 
       0.981748         38.5521         14.4221 
       0.987916         38.2247         14.2094 
        0.99406          38.006         14.0018 
        1.00019         37.5827         13.7988 
        1.00632         37.3523         13.5999 
        1.01246         37.1077         13.4047 
        1.01859         36.5507         13.2137 
        1.02471         36.4909         13.0266 
        1.03085         36.1591         12.8425 
        1.03698         35.7648         12.6623 
        1.04314         35.4915         12.4848 
        1.04929         35.2123         12.3112 
        1.05541          34.838         12.1415 
        1.06154         34.8057         11.9747 
        1.06769         34.4245         11.8107 
        1.07382         34.2287         11.6504 
        1.07993         34.0082         11.4934 
        1.08607         33.6778         11.3386 
        1.09222         33.4783         11.1866 
        1.09836         33.1933         11.0375 
        1.10449         32.9465         10.8913 
        1.11063         32.5622         10.7476 
        1.11677         32.3898         10.6066 
         1.1229         32.1835         10.4683 
        1.12903         31.7574         10.3324 
        1.13518         31.8502         10.1987 
        1.14131         31.6025         10.0676 
        1.14745         31.1557         9.93877 
        1.15359          31.134          9.8122 
        1.15973         30.7448         9.68778 
        1.16584         30.5726         9.56608 
        1.17197         30.4115         9.44629 
        1.17811         30.2077         9.32819 
        1.18424         29.9224         9.21244 
        1.19038         29.7666         9.09833 
        1.19652         29.6892          8.9862 
        1.20267          29.415         8.87595 
        1.20881         29.1959         8.76758 
        1.21495         28.9591         8.66118 
        1.22108         28.8089         8.55657 
         1.2272         28.4896         8.45393 
        1.23334          28.392         8.35274 
        1.23949         28.3446         8.25296 
        1.24562         27.9986         8.15508 
        1.25174         27.9213         8.05894 
        1.25789         27.7301         7.96405 
        1.26402         27.4955         7.87086 
        1.27014          27.244         7.77939 
        1.27628         27.1217         7.68909 
        1.28244         26.9774         7.60006 
        1.28858          26.846         7.51256 
        1.29471         26.7199         7.42662 
        1.30084         26.5587         7.34212 
        1.30697         26.3466          7.2588 
        1.31312          26.129         7.17665 
        1.31925         26.0114         7.09603 
        1.32537         25.8703         7.01673 
        1.33151         25.6699         6.93836 
        1.33765         25.6029         6.86123 
        1.34378         25.4093         6.78543 
        1.34992         25.2106         6.71072 
        1.35606         25.0781         6.63697 
         1.3622         24.9547         6.56447 
        1.36833         24.7461         6.49321 
        1.37445         24.7179         6.42306 
        1.38059         24.5215         6.35372 
        1.38675         24.2695         6.28524 
        1.39288         24.2735         6.21804 
        1.39901         24.0571         6.15186 
        1.40515         23.9331         6.08649 
         1.4113         23.8204         6.02209 
        1.41742         23.6233         5.95886 
        1.42355         23.5457         5.89643 
         1.4297         23.4169          5.8347 
        1.43585         23.3489         5.77387 
        1.44198         23.0961         5.71415 
        1.44809         23.0202         5.65537 
        1.45423         22.8981         5.59721 
        1.46036         22.8339         5.53997 
        1.46649         22.6582          5.4835 
        1.47263         22.5179         5.42778 
        1.47877         22.4537         5.37285 
        1.48491         22.3982          5.3186 
        1.49104         22.1956          5.2652 
        1.49718         22.0014         5.21251 
        1.50333         21.9788         5.16044 
        1.50947         21.8748          5.1092 
         1.5156         21.7437         5.05872 
        1.52172          21.611         5.00893 
        1.52787         21.5477          4.9597 
          1.534         21.4038          4.9112 
        1.54013          21.243         4.86339 
        1.54627         21.1827         4.81614 
        1.55241         21.0021          4.7695 
        1.55855         20.9438         4.72355 
        1.56467         20.7736         4.67832 
         1.5708         20.7918         4.63356 
        1.57695         20.5785         4.58932 
        1.58308          20.528         4.54576 
        1.58922         20.4424         4.50273 
        1.59535         20.3111         4.46027 
         1.6015         20.1907         4.41831 
        1.60764         20.1146          4.3769 
        1.61376         19.9504         4.33613 
        1.61989         19.8637         4.29585 
        1.62604         19.8353         4.25599 
        1.63218          19.732         4.21666 
        1.63831         19.6167         4.17792 
        1.64444         19.5245         4.13965 
        1.65059         19.4104         4.10176 
        1.65673         19.2811         4.06439 
        1.66285         19.2591         4.02759 
        1.66898         19.1535         3.99123 
        1.67512         19.0727         3.95525 
        1.68127         18.9436         3.91967 
         1.6874         18.8568         3.88461 
        1.69353         18.7848         3.85001 
        1.69967         18.6711         3.81573 
        1.70581         18.5793          3.7819 
        1.71193         18.5311         3.74859 
        1.71806         18.3987         3.71562 
        1.72421         18.3135         3.68298 
        1.73035         18.2055         3.65076 
        1.73649          18.186         3.61894 
        1.74262         18.0754         3.58752 
        1.74876         18.0417         3.55645 
        1.75489         17.9208         3.52582 
        1.76101         17.8215         3.49555 
        1.76715         17.7569          3.4656 
        1.77329         17.7041         3.43596 
        1.77943         17.5938         3.40665 
        1.78557         17.5039         3.37773 
        1.79171         17.4292         3.34913 
        1.79785         17.3279         3.32087 
        1.80399         17.2792         3.29293 
        1.81012         17.2227         3.26535 
        1.81625         17.1475          3.2381 
        1.82239         17.0834         3.21112 
        1.82853         16.9605         3.18445 
        1.83466         16.8938         3.15812 
        1.84078         16.7794         3.13211 
        1.84692         16.7448         3.10635 
        1.85306         16.6674         3.08085 
         1.8592         16.5757         3.05568 
        1.86533         16.5083         3.03079 
        1.87147         16.4416         3.00616 
        1.87761          16.403         2.98179 
        1.88375         16.3453         2.95772 
        1.88988         16.2404         2.93394 
        1.89601         16.1484          2.9104 
        1.90215         16.1132         2.88711 
        1.90829          16.059         2.86408 
        1.91442         15.9678          2.8413 
        1.92056         15.8996         2.81878 
         1.9267         15.8192         2.79649 
        1.93284         15.7337         2.77442 
        1.93897         15.7083         2.75263 
        1.94509         15.6231         2.73113 
        1.95123         15.5757         2.70979 
        1.95737         15.4985         2.68867 
        1.96349         15.4253         2.66783 
        1.96964         15.3648         2.64715 
        1.97578         15.2959         2.62667 
        1.98192         15.2223         2.60646 
        1.98805         15.1776         2.58645 
        1.99419         15.1162         2.56666 
        2.00033         14.9961         2.54706 
        2.00647         14.9602         2.52766 
         2.0126         14.9096         2.50851 
        2.01874         14.8352         2.48952 
        2.02488         14.8087         2.47071 
        2.03101         14.7301         2.45213 
        2.03714         14.6788         2.43376 
        2.04328          14.596         2.41555 
        2.04941         14.5314         2.39755 
        2.05554         14.5051         2.37974 
        2.06167         14.4489         2.36209 
        2.06781         14.3833         2.34461 
        2.07396           14.34         2.32729 
        2.08009         14.2914         2.31017 
        2.08622         14.1646         2.29324 
        2.09237         14.1499         2.27644 
        2.09851         14.0948         2.25981 
        2.10464         14.0277         2.24338 
        2.11077         13.9622         2.22712 
        2.11691         13.9162           2.211 
        2.12305         13.8854         2.19503 
        2.12918         13.8148         2.17925 
        2.13531         13.7422         2.16363 
        2.14145         13.7129         2.14813 
         2.1476         13.6569         2.13276 
        2.15372         13.5889         2.11761 
        2.15985         13.5037          2.1026 
        2.16599         13.4906         2.08769 
        2.17213         13.4324         2.07294 
        2.17827         13.3649         2.05834 
         2.1844         13.2981         2.04389 
        2.19054         13.2754         2.02957 
        2.19666         13.2457         2.01541 
         2.2028         13.1804         2.00137 
        2.20893         13.1215         1.98746 
        2.21508         13.0443         1.97366 
        2.22122           12.98         1.95999 
        2.22736         12.9752         1.94648 
        2.23349         12.9029          1.9331 
        2.23962         12.8533         1.91983 
        2.24577         12.7957         1.90668 
         2.2519         12.7684         1.89367 
        2.25802          12.716          1.8808 
        2.26417         12.6906         1.86801 
        2.27031         12.6048         1.85534 
        2.27644         12.5806         1.84281 
        2.28257         12.5121          1.8304 
        2.28872         12.4615         1.81808 
        2.29486         12.4162         1.80588 
        2.30099         12.3703         1.79382 
        2.30712         12.3471         1.78185 
        2.31326         12.2793         1.76998 
         2.3194          12.262         1.75822 
        2.32553         12.1973         1.74659 
        2.33166         12.1349         1.73507 
         2.3378         12.0931         1.72364 
        2.34394         12.0628          1.7123 
        2.35007         12.0012         1.70108 
        2.35619         11.9314         1.68998 
        2.36233         11.9214         1.67895 
        2.36848         11.8814         1.66799 
        2.37462         11.8331         1.65716 
        2.38075         11.7719         1.64643 
        2.38689          11.762         1.63578 
        2.39303          11.696         1.62524 
        2.39916         11.6632         1.61479 
        2.40529         11.6123         1.60444 
        2.41143         11.5731         1.59417 
        2.41757         11.5339         1.58399 
         2.4237         11.4932         1.57391 
        2.42983         11.4458         1.56392 
        2.43598         11.4172         1.55399 
        2.44211         11.3644         1.54417 
        2.44823         11.3173         1.53445 
        2.45437         11.2866         1.52478 
        2.46052         11.2344          1.5152 
        2.46665         11.2104         1.50571 
        2.47279          11.143          1.4963 
        2.47892         11.1201         1.48697 
        2.48507         11.0814         1.47771 
         2.4912         11.0523         1.46855 
