# k  (h/Mpc)    P(k)  (Mpc/h)^3    P_linear(k)  (Mpc/h)^3
     0.00783031         11280.5         11409.2 
       0.013688         12309.6         12603.8 
       0.019231           11324         11464.1 
      0.0249154         9497.53         9441.88 
      0.0312784         7186.56          7189.9 
      0.0375637         5476.29         5502.63 
      0.0433917         4524.94         4499.89 
      0.0492413         3926.48         3926.63 
      0.0555754         3631.94         3603.37 
      0.0619321         3328.67         3390.46 
       0.067871         3143.62         3157.97 
      0.0738098         2842.65         2838.87 
      0.0800417         2457.08         2433.21 
      0.0862327         2049.17         2027.99 
      0.0921407         1740.74         1702.15 
      0.0982031         1522.33         1462.45 
       0.104506         1347.04         1314.16 
       0.110769         1277.65         1242.72 
       0.116806         1252.51         1209.77 
       0.122832         1201.11         1177.42 
       0.129052         1141.41          1119.2 
       0.135211            1072         1029.54 
       0.141259         956.642         920.963 
       0.147318         847.037         810.716 
       0.153489         761.885         714.664 
       0.159709         706.655         644.292 
       0.165845         646.534         601.265 
       0.171974          637.05         578.021 
       0.178125         617.758         564.498 
       0.184229         585.355         550.728 
        0.19034         570.767         529.534 
       0.196428         544.775          498.93 
       0.202534           496.7         461.366 
       0.208729         475.885         421.718 
       0.214876         445.148         386.312 
       0.220989         411.126          358.39 
       0.227147         398.411         338.392 
        0.23329         382.487         325.099 
       0.239377         377.229         315.714 
       0.245482         359.115         307.022 
       0.251667         344.935         296.583 
       0.257832         338.836         283.522 
       0.263955          317.37         268.316 
       0.270079         301.408         252.289 
        0.27624         287.062         236.973 
       0.282372          277.63         223.769 
        0.28843         273.496         213.253 
       0.294538         259.367         204.956 
       0.300721         250.613         198.224 
        0.30691         246.103         192.182 
       0.313033         234.552         186.111 
       0.319153         230.297          179.45 
       0.325316         223.806         172.145 
        0.33145         216.492         164.543 
       0.337538         207.572         157.151 
       0.343633         200.841         150.298 
       0.349808         194.404         144.183 
       0.355968         190.077         138.934 
       0.362074         184.074         134.419 
       0.368217         181.104         130.316 
       0.374374         176.385         126.358 
       0.380519         168.962         122.389 
       0.386598         165.956         118.358 
       0.392688         160.567          114.25 
        0.39888         157.365         110.126 
       0.405048         153.203         106.187 
       0.411186         151.268         102.537 
       0.417313         147.826          99.217 
       0.423458         143.843         96.1718 
       0.429607         139.726          93.355 
       0.435692         137.601         90.7202 
       0.441815         134.096         88.1415 
       0.447964         130.148          85.579 
       0.454126         127.908         83.0419 
       0.460267         126.366         80.5546 
       0.466387         122.784         78.1448 
        0.47254          121.43         75.8279 
       0.478662         117.559         73.6551 
       0.484765         115.578         71.6143 
       0.490885         113.253          69.679 
       0.497035         111.916         67.8302 
       0.503198         110.157         66.0522 
       0.509342         107.337         64.3313 
       0.515458         105.364         62.6541 
       0.521598          102.63         61.0102 
       0.527764         101.781         59.4076 
       0.533884          100.83         57.8719 
           0.54           98.19         56.3954 
       0.546137         95.8709          54.973 
       0.552299          94.204         53.6057 
       0.558452         92.6923         52.2991 
       0.564573         92.2369         51.0485 
       0.570708         89.5566         49.8361 
       0.576825          88.497         48.6609 
       0.582926         87.5032           47.52 
       0.589034          85.903         46.4101 
       0.595184         84.7433         45.3268 
       0.601379         83.1434         44.2718 
       0.607522         81.1096         43.2607 
       0.613639          80.592         42.2873 
       0.619772         79.1373         41.3432 
       0.625918         78.6534         40.4277 
       0.632068         76.6344         39.5408 
       0.638161         75.9518         38.6891 
         0.6443         75.2997         37.8566 
       0.650464         73.5633         37.0452 
       0.656582         73.1805         36.2625 
       0.662703         72.2706         35.5012 
       0.668861         70.6923         34.7569 
       0.675024         70.5459         34.0332 
       0.681124         69.2858         33.3378 
       0.687237          68.386         32.6611 
       0.693381         67.2684         32.0009 
       0.699536         66.6839         31.3585 
       0.705665         65.8956          30.737 
       0.711789         64.8579         30.1332 
       0.717957         64.0079         29.5416 
        0.72409         63.2534          28.969 
       0.730186         62.9284         28.4149 
       0.736317         62.0587         27.8721 
       0.742472         60.9034         27.3415 
       0.748622         60.0803         26.8251 
        0.75476         59.9753         26.3234 
       0.760888         59.3561         25.8353 
       0.767043         58.1398         25.3578 
       0.773185         57.3055         24.8936 
       0.779291         56.8043         24.4439 
       0.785407         56.3739         24.0047 
       0.791564         55.8983         23.5737 
       0.797719          54.895         23.1535 
       0.803834         54.7051         22.7464 
       0.809972         54.1607         22.3476 
       0.816124         53.2739         21.9576 
       0.822261         52.6518          21.578 
       0.828378         52.4819         21.2085 
       0.834502         51.9152         20.8475 
       0.840667         51.4228         20.4925 
       0.846816          50.845         20.1469 
       0.852925         50.2479         19.8115 
       0.859047         49.9448          19.483 
       0.865192         49.3358         19.1609 
       0.871341         48.8633          18.846 
       0.877463          48.288         18.5396 
       0.883569         48.2724         18.2408 
       0.889708         47.6617         17.9471 
       0.895864         47.3103         17.6592 
       0.902008         46.7314         17.3782 
       0.908149         46.1335         17.1035 
       0.914301         45.9201         16.8344 
       0.920448         45.8335         16.5713 
       0.926574         44.8839         16.3149 
       0.932687         44.6637         16.0644 
       0.938823         44.3085         15.8183 
       0.944975         43.7674         15.5768 
       0.951105         43.3968         15.3413 
       0.957225         43.1631         15.1111 
       0.963368         42.7732         14.8849 
       0.969511          42.447         14.6633 
       0.975621         41.9569         14.4474 
       0.981748         41.7029         14.2354 
       0.987916         41.2301         14.0263 
        0.99406         41.0867         13.8222 
        1.00019         40.5804         13.6226 
        1.00632         40.2586         13.4271 
        1.01246          40.029         13.2352 
        1.01859         39.7337         13.0474 
        1.02471         39.4286         12.8635 
        1.03085         39.0326         12.6825 
        1.03698         38.8447         12.5054 
        1.04314         38.5001          12.331 
        1.04929         38.1617         12.1603 
        1.05541         37.9318         11.9935 
        1.06154          37.594         11.8294 
        1.06769         37.2987         11.6682 
        1.07382         36.9283         11.5105 
        1.07993         36.8145         11.3562 
        1.08607          36.454          11.204 
        1.09222         36.2897         11.0544 
        1.09836         36.0214         10.9078 
        1.10449         35.7776          10.764 
        1.11063         35.4691         10.6227 
        1.11677         35.4029          10.484 
         1.1229         34.9881          10.348 
        1.12903         34.7851         10.2143 
        1.13518         34.5774         10.0828 
        1.14131         34.3253         9.95376 
        1.14745         34.1276         9.82705 
        1.15359         33.6875         9.70253 
        1.15973         33.7033         9.58012 
        1.16584          33.408         9.46039 
        1.17197         33.1164         9.34254 
        1.17811         32.9028         9.22634 
        1.18424          32.505         9.11247 
        1.19038         32.3294          9.0002 
        1.19652          32.255         8.88987 
        1.20267         31.9448          8.7814 
        1.20881         31.7651         8.67477 
        1.21495          31.655         8.57009 
        1.22108         31.5686         8.46715 
         1.2272         31.1761         8.36616 
        1.23334         31.0829         8.26659 
        1.23949         30.8226         8.16841 
        1.24562         30.6448          8.0721 
        1.25174         30.4842          7.9775 
        1.25789         30.2671         7.88413 
        1.26402         30.0817         7.79243 
        1.27014         29.9707         7.70242 
        1.27628         29.7152         7.61356 
        1.28244         29.7296         7.52594 
        1.28858         29.3855         7.43982 
        1.29471         29.1328         7.35523 
        1.30084         28.9488         7.27205 
        1.30697         28.9187         7.19002 
        1.31312         28.7289         7.10915 
        1.31925         28.4819         7.02978 
        1.32537          28.281          6.9517 
        1.33151         28.1433         6.87453 
        1.33765         28.0687         6.79858 
        1.34378         27.9038         6.72393 
        1.34992         27.6797         6.65036 
        1.35606          27.405         6.57772 
         1.3622         27.3917         6.50631 
        1.36833         27.3037         6.43613 
        1.37445         27.0087         6.36703 
        1.38059         26.8514         6.29873 
        1.38675         26.7891         6.23127 
        1.39288         26.6411         6.16507 
        1.39901         26.4243         6.09986 
        1.40515         26.2999         6.03546 
         1.4113         26.2396         5.97201 
        1.41742         26.0536         5.90972 
        1.42355         25.8352          5.8482 
         1.4297         25.8173         5.78738 
        1.43585         25.6712         5.72744 
        1.44198         25.4525         5.66859 
        1.44809         25.2891         5.61068 
        1.45423          25.252         5.55337 
        1.46036         25.1489         5.49696 
        1.46649         24.9374         5.44132 
        1.47263         24.8187          5.3864 
        1.47877         24.6632         5.33227 
        1.48491         24.5067          5.2788 
        1.49104         24.4269         5.22618 
        1.49718         24.3434         5.17424 
        1.50333         24.2359         5.12292 
        1.50947         24.0029          5.0724 
         1.5156         23.9882         5.02264 
        1.52172         23.7954         4.97355 
        1.52787         23.7911         4.92502 
          1.534         23.5373          4.8772 
        1.54013         23.5727         4.83006 
        1.54627         23.3524         4.78346 
        1.55241         23.2805         4.73747 
        1.55855          23.133         4.69215 
        1.56467         22.9372         4.64755 
         1.5708         22.9563         4.60341 
        1.57695         22.8148         4.55977 
        1.58308         22.6549          4.5168 
        1.58922         22.5642         4.47436 
        1.59535         22.5001         4.43247 
         1.6015         22.4334         4.39107 
        1.60764         22.2344         4.35021 
        1.61376         22.1136         4.30999 
        1.61989         22.0207         4.27025 
        1.62604         21.8988         4.23091 
        1.63218         21.7029          4.1921 
        1.63831         21.7052         4.15387 
        1.64444         21.6228          4.1161 
        1.65059         21.4766          4.0787 
        1.65673         21.4239         4.04182 
        1.66285         21.3325         4.00549 
        1.66898         21.2399         3.96961 
        1.67512         21.0845         3.93409 
        1.68127         21.0386         3.89897 
         1.6874         20.9635         3.86436 
        1.69353         20.8015          3.8302 
        1.69967         20.7234         3.79636 
        1.70581         20.6522         3.76295 
        1.71193         20.5448         3.73007 
        1.71806         20.4745         3.69752 
        1.72421         20.3662         3.66529 
        1.73035         20.2968         3.63347 
        1.73649         20.1575         3.60205 
        1.74262         20.0545         3.57102 
        1.74876          20.095         3.54034 
        1.75489         19.8866         3.51008 
        1.76101         19.8647         3.48018 
        1.76715         19.6625         3.45059 
        1.77329         19.6065         3.42131 
        1.77943         19.5741         3.39236 
        1.78557         19.5168         3.36379 
        1.79171         19.4038         3.33554 
        1.79785         19.3112         3.30761 
        1.80399          19.193         3.28001 
        1.81012         19.1399         3.25276 
        1.81625         18.9995         3.22583 
        1.82239         18.9466         3.19917 
        1.82853         18.8835         3.17282 
        1.83466          18.771         3.14679 
        1.84078         18.7012         3.12108 
        1.84692           18.59         3.09562 
        1.85306         18.5385         3.07042 
         1.8592          18.501         3.04553 
        1.86533         18.4093         3.02093 
        1.87147         18.3043         2.99658 
        1.87761          18.245         2.97248 
        1.88375         18.1487         2.94868 
        1.88988         18.0377         2.92516 
        1.89601         18.0109         2.90189 
        1.90215         17.9518         2.87885 
        1.90829         17.8489         2.85608 
        1.91442         17.7587         2.83355 
        1.92056         17.7283         2.81128 
         1.9267         17.6678         2.78923 
        1.93284         17.5879          2.7674 
        1.93897            17.5         2.74585 
        1.94509         17.4516         2.72457 
        1.95123         17.3379         2.70347 
        1.95737         17.2778         2.68257 
        1.96349         17.2276         2.66195 
        1.96964         17.1251         2.64149 
        1.97578         17.0796         2.62123 
        1.98192         16.9954         2.60123 
        1.98805         16.9348         2.58143 
        1.99419          16.832         2.56184 
        2.00033         16.7745         2.54245 
        2.00647         16.7238         2.52325 
         2.0126         16.6284         2.50429 
        2.01874         16.5804          2.4855 
        2.02488           16.49         2.46688 
        2.03101         16.4448         2.44849 
        2.03714         16.3789          2.4303 
        2.04328         16.2898         2.41227 
        2.04941         16.2226         2.39445 
        2.05554         16.1939         2.37682 
        2.06167           16.14         2.35934 
        2.06781         16.0386         2.34203 
        2.07396         16.0053         2.32488 
        2.08009         15.9158         2.30792 
        2.08622         15.8693         2.29116 
        2.09237          15.789         2.27452 
        2.09851         15.7708         2.25805 
        2.10464          15.673         2.24177 
        2.11077         15.6147         2.22568 
        2.11691         15.5346          2.2097 
        2.12305         15.5097         2.19388 
        2.12918         15.4394         2.17825 
        2.13531         15.3752         2.16278 
        2.14145         15.3303         2.14741 
         2.1476         15.2523         2.13218 
        2.15372         15.2153         2.11718 
        2.15985          15.151          2.1023 
        2.16599         15.0617         2.08753 
        2.17213         15.0303         2.07291 
        2.17827         14.9609         2.05843 
         2.1844         14.8773         2.04411 
        2.19054         14.8673         2.02992 
        2.19666         14.7899         2.01588 
         2.2028         14.7674         2.00196 
        2.20893         14.6891         1.98817 
        2.21508         14.6257          1.9745 
        2.22122         14.5681         1.96094 
        2.22736         14.5295         1.94755 
        2.23349         14.4784         1.93428 
        2.23962         14.4243         1.92112 
        2.24577         14.3497         1.90808 
         2.2519         14.2883         1.89518 
        2.25802         14.2199         1.88242 
        2.26417         14.1905         1.86974 
        2.27031         14.1213         1.85716 
        2.27644         14.0796         1.84474 
        2.28257         14.0462         1.83243 
        2.28872          13.985         1.82021 
        2.29486         13.9545         1.80811 
        2.30099         13.8755         1.79614 
        2.30712         13.8344         1.78427 
        2.31326         13.7686         1.77249 
         2.3194         13.7343         1.76082 
        2.32553         13.6642         1.74928 
        2.33166         13.6223         1.73785 
         2.3378         13.5742          1.7265 
        2.34394         13.5201         1.71525 
        2.35007         13.4685         1.70412 
        2.35619         13.4415         1.69309 
        2.36233         13.3569         1.68214 
        2.36848         13.3291         1.67127 
        2.37462         13.2944         1.66051 
        2.38075          13.219         1.64986 
        2.38689         13.1724          1.6393 
        2.39303         13.1269         1.62882 
        2.39916         13.0699         1.61845 
        2.40529         13.0271         1.60817 
        2.41143         12.9822         1.59798 
        2.41757         12.9009         1.58787 
         2.4237         12.8695         1.57786 
        2.42983         12.8455         1.56794 
        2.43598         12.8099         1.55808 
        2.44211         12.7509         1.54832 
        2.44823         12.6786         1.53867 
        2.45437         12.6644         1.52907 
        2.46052         12.6153         1.51954 
        2.46665         12.5764         1.51012 
        2.47279         12.5046         1.50077 
        2.47892         12.4863          1.4915 
        2.48507         12.4478          1.4823 
         2.4912         12.3874          1.4732 
