# k  (h/Mpc)    P(k)  (Mpc/h)^3    P_linear(k)  (Mpc/h)^3
     0.00783031         2694.66         2721.41 
       0.013688         3121.51         3167.54 
       0.019231         3005.39         3025.13 
      0.0249154         2641.32          2634.5 
      0.0312784          2153.6         2152.88 
      0.0375637         1763.44         1767.88 
      0.0433917         1527.98         1523.39 
      0.0492413         1366.08         1367.61 
      0.0555754         1261.63         1257.31 
      0.0619321         1150.21         1162.71 
       0.067871         1060.39         1062.76 
      0.0738098         947.315         946.681 
      0.0800417         823.737          819.17 
      0.0862327         707.055         704.489 
      0.0921407         621.399         618.217 
      0.0982031         562.904         556.494 
       0.104506         516.504         516.213 
       0.110769         491.162         490.283 
       0.116806         472.744         468.324 
       0.122832         443.046         442.141 
       0.129052         411.365         408.152 
       0.135211         376.325         369.958 
       0.141259         337.799         332.973 
       0.147318         304.158         300.985 
       0.153489         280.921         276.083 
       0.159709         265.193         258.705 
       0.165845         249.247          247.02 
       0.171974         243.968          237.75 
       0.178125          233.63         228.101 
       0.184229         220.026         216.609 
        0.19034          208.93         203.113 
       0.196428         195.226         188.765 
       0.202534         179.053         174.996 
       0.208729         170.018         162.939 
       0.214876          161.49         153.442 
       0.220989         151.585         146.238 
       0.227147         147.916         140.507 
        0.23329         142.689         135.401 
       0.239377         138.129         130.202 
       0.245482         131.448          124.47 
       0.251667          124.46         118.181 
       0.257832         120.351         111.793 
       0.263955         112.795         105.777 
       0.270079         107.406         100.427 
        0.27624         102.365          95.861 
       0.282372         98.7953         92.0378 
        0.28843         97.0061         88.7532 
       0.294538         93.0712         85.6654 
       0.300721         89.0918         82.5587 
        0.30691         86.9571         79.3557 
       0.313033         83.1473         76.1181 
       0.319153         81.0287         72.9118 
       0.325316         77.1374         69.8416 
        0.33145         74.1854          67.034 
       0.337538         71.6715         64.5342 
       0.343633          69.591          62.284 
       0.349808         67.2041         60.2016 
       0.355968         65.1488         58.2354 
       0.362074         63.8099         56.3354 
       0.368217         61.8001         54.4419 
       0.374374         60.2041         52.5606 
       0.380519         57.6203         50.7306 
       0.386598         55.8341         48.9963 
       0.392688         54.0042         47.3605 
        0.39888         52.9277         45.8147 
       0.405048         51.5638         44.3798 
       0.411186         50.1329         43.0386 
       0.417313         48.6969         41.7632 
       0.423458         47.2419         40.5251 
       0.429607         46.3645         39.3175 
       0.435692         45.5298         38.1541 
       0.441815         43.7595         37.0175 
       0.447964         42.3347         35.9188 
       0.454126         41.5694         34.8691 
       0.460267          41.052         33.8761 
       0.466387         39.8536         32.9348 
        0.47254         39.2167         32.0319 
       0.478662         37.9059         31.1709 
       0.484765         37.0932         30.3428 
       0.490885          35.989         29.5372 
       0.497035         35.4077         28.7516 
       0.503198         34.6398         27.9904 
       0.509342         33.6261         27.2584 
       0.515458         33.1339         26.5568 
       0.521598         32.3393         25.8793 
       0.527764         31.8374         25.2259 
       0.533884         31.1246         24.6027 
           0.54         30.4821         24.0026 
       0.546137         29.5557         23.4203 
       0.552299         29.0158         22.8536 
       0.558452         28.3712         22.3052 
       0.564573         28.0768         21.7769 
       0.570708          27.341         21.2645 
       0.576825         26.9522         20.7707 
       0.582926         26.4564         20.2943 
       0.589034         25.9025          19.833 
       0.595184          25.568         19.3835 
       0.601379         24.8697         18.9453 
       0.607522         24.4213         18.5246 
       0.613639         24.0382         18.1186 
       0.619772         23.5867         17.7239 
       0.625918         23.1299         17.3399 
       0.632068         22.9027          16.967 
       0.638161         22.4162         16.6083 
         0.6443         22.0592         16.2575 
       0.650464         21.4962         15.9157 
       0.656582         21.3513         15.5865 
       0.662703         21.0554         15.2667 
       0.668861         20.4994         14.9544 
       0.675024         20.2148         14.6507 
       0.681124         20.1156         14.3586 
       0.687237          19.685         14.0739 
       0.693381         19.2564         13.7956 
       0.699536         19.1419         13.5244 
       0.705665         18.7616         13.2617 
       0.711789         18.4354         13.0062 
       0.717957         18.0505         12.7558 
        0.72409         17.8782         12.5134 
       0.730186         17.7821         12.2789 
       0.736317         17.3911         12.0492 
       0.742472         17.1784         11.8246 
       0.748622         16.8987          11.606 
        0.75476         16.4694         11.3934 
       0.760888         16.4145         11.1866 
       0.767043         16.1102         10.9841 
       0.773185          15.916         10.7871 
       0.779291         15.7521          10.596 
       0.785407          15.495         10.4094 
       0.791564         15.3656         10.2261 
       0.797719         15.0139         10.0474 
       0.803834         14.9492         9.87409 
       0.809972         14.6501          9.7043 
       0.816124         14.4865         9.53817 
       0.822261         14.3203          9.3764 
       0.828378         14.1589         9.21891 
       0.834502          13.999         9.06493 
       0.840667         13.8397         8.91351 
       0.846816         13.5311         8.76601 
       0.852925          13.487         8.62281 
       0.859047         13.3067         8.48253 
       0.865192         13.1152         8.34495 
       0.871341         12.9484         8.21035 
       0.877463         12.7835         8.07936 
       0.883569         12.7009         7.95158 
       0.889708          12.487         7.82595 
       0.895864          12.326         7.70272 
       0.902008         12.1881         7.58244 
       0.908149         12.0121         7.46481 
       0.914301         11.9329         7.34951 
       0.920448         11.7709         7.23678 
       0.926574         11.6894         7.12682 
       0.932687         11.5037          7.0194 
       0.938823          11.345         6.91382 
       0.944975         11.2782         6.81019 
       0.951105         11.1332         6.70907 
       0.957225         11.0568         6.61019 
       0.963368         10.8796         6.51299 
       0.969511         10.7677         6.41775 
       0.975621         10.6666         6.32494 
       0.981748         10.5223         6.23374 
       0.987916         10.4439         6.14377 
        0.99406         10.3212         6.05593 
        1.00019         10.2404         5.96999 
        1.00632         10.1595          5.8858 
        1.01246         10.0254         5.80312 
        1.01859         9.91901         5.72218 
        1.02471         9.79729         5.64288 
        1.03085         9.75055         5.56483 
        1.03698         9.65475         5.48843 
        1.04314         9.53148         5.41315 
        1.04929         9.40905         5.33947 
        1.05541         9.34961         5.26746 
        1.06154          9.2619         5.19661 
        1.06769         9.19547         5.12697 
        1.07382         9.05188         5.05884 
        1.07993         8.97641         4.99212 
        1.08607         8.92595         4.92633 
        1.09222         8.80986         4.86167 
        1.09836         8.76362         4.79825 
        1.10449         8.64397         4.73604 
        1.11063         8.60885         4.67488 
        1.11677         8.53855         4.61483 
         1.1229         8.45225         4.55595 
        1.12903         8.37743         4.49804 
        1.13518         8.27159         4.44111 
        1.14131          8.2141         4.38519 
        1.14745         8.09671         4.33028 
        1.15359         8.02814          4.2763 
        1.15973         7.96687         4.22323 
        1.16584         7.90146          4.1713 
        1.17197         7.82363         4.12018 
        1.17811         7.76222         4.06976 
        1.18424         7.70664         4.02033 
        1.19038          7.6591         3.97159 
        1.19652          7.5827         3.92368 
        1.20267         7.53143         3.87656 
        1.20881         7.43343         3.83024 
        1.21495         7.38593         3.78474 
        1.22108         7.32827         3.73999 
         1.2272         7.26088         3.69608 
        1.23334         7.23484         3.65277 
        1.23949         7.15292         3.61006 
        1.24562         7.09854         3.56815 
        1.25174         7.05633         3.52697 
        1.25789         6.96169         3.48632 
        1.26402         6.93202         3.44638 
        1.27014         6.89453         3.40718 
        1.27628         6.80697         3.36846 
        1.28244          6.7899         3.33028 
        1.28858         6.72511         3.29274 
        1.29471         6.64487         3.25587 
        1.30084         6.59235          3.2196 
        1.30697         6.57916         3.18384 
        1.31312         6.50918         3.14856 
        1.31925         6.46687         3.11394 
        1.32537         6.41652         3.07987 
        1.33151         6.36542          3.0462 
        1.33765         6.31513         3.01305 
        1.34378         6.30403         2.98046 
        1.34992         6.23639         2.94833 
        1.35606         6.18556         2.91661 
         1.3622         6.13285         2.88542 
        1.36833         6.10293         2.85476 
        1.37445         6.05292         2.82456 
        1.38059         6.00066         2.79471 
        1.38675         5.96648         2.76522 
        1.39288         5.92137         2.73628 
        1.39901         5.86911         2.70776 
        1.40515         5.83515         2.67959 
         1.4113         5.79014         2.65184 
        1.41742         5.76575         2.62458 
        1.42355         5.70848         2.59766 
         1.4297         5.67212         2.57103 
        1.43585         5.64631         2.54479 
        1.44198         5.60563         2.51902 
        1.44809         5.56473         2.49365 
        1.45423          5.5221         2.46854 
        1.46036         5.49159         2.44382 
        1.46649         5.45418         2.41944 
        1.47263         5.42249         2.39537 
        1.47877         5.38218         2.37164 
        1.48491         5.36101         2.34819 
        1.49104         5.31381         2.32511 
        1.49718         5.29021         2.30233 
        1.50333         5.24676         2.27981 
        1.50947          5.2076         2.25765 
         1.5156         5.18703         2.23581 
        1.52172          5.1481         2.21427 
        1.52787         5.12448         2.19296 
          1.534         5.08421         2.17196 
        1.54013         5.06499         2.15126 
        1.54627         5.02117          2.1308 
        1.55241         4.98188         2.11059 
        1.55855         4.96987         2.09068 
        1.56467         4.94435         2.07108 
         1.5708         4.89883         2.05168 
        1.57695         4.86215          2.0325 
        1.58308         4.83016         2.01361 
        1.58922         4.81765         1.99495 
        1.59535         4.79019         1.97653 
         1.6015          4.7404         1.95832 
        1.60764         4.72341         1.94035 
        1.61376         4.69934         1.92265 
        1.61989         4.65818         1.90516 
        1.62604         4.64365         1.88785 
        1.63218         4.61788         1.87077 
        1.63831         4.59043         1.85394 
        1.64444         4.55369         1.83731 
        1.65059         4.53376         1.82085 
        1.65673         4.51401          1.8046 
        1.66285         4.48527          1.7886 
        1.66898         4.46142         1.77279 
        1.67512         4.43354         1.75714 
        1.68127         4.39802         1.74166 
         1.6874         4.38086         1.72641 
        1.69353          4.3485         1.71135 
        1.69967         4.33252         1.69643 
        1.70581          4.3016          1.6817 
        1.71193         4.28171          1.6672 
        1.71806         4.25579         1.65284 
        1.72421         4.23304         1.63863 
        1.73035         4.21315         1.62459 
        1.73649         4.19051         1.61073 
        1.74262          4.1601         1.59703 
        1.74876         4.15184         1.58349 
        1.75489         4.12306         1.57013 
        1.76101         4.09014         1.55694 
        1.76715          4.0869         1.54387 
        1.77329         4.06003         1.53094 
        1.77943          4.0254         1.51815 
        1.78557         4.02222         1.50553 
        1.79171         3.99535         1.49305 
        1.79785         3.98183         1.48071 
        1.80399         3.94483         1.46851 
        1.81012         3.93397         1.45647 
        1.81625         3.90726         1.44457 
        1.82239         3.89431         1.43278 
        1.82853         3.86721         1.42113 
        1.83466         3.83702         1.40962 
        1.84078         3.82339         1.39825 
        1.84692         3.80539         1.38699 
        1.85306         3.78591         1.37584 
         1.8592         3.77393         1.36483 
        1.86533         3.75558         1.35395 
        1.87147         3.73903         1.34317 
        1.87761         3.72003         1.33251 
        1.88375         3.69637         1.32198 
        1.88988         3.67869         1.31157 
        1.89601         3.65766         1.30126 
        1.90215         3.63707         1.29106 
        1.90829         3.62896         1.28098 
        1.91442         3.60664           1.271 
        1.92056         3.59926         1.26114 
         1.9267         3.57096         1.25137 
        1.93284         3.56259          1.2417 
        1.93897         3.53633         1.23215 
        1.94509         3.50773         1.22272 
        1.95123         3.50759         1.21337 
        1.95737         3.49049          1.2041 
        1.96349         3.46796         1.19496 
        1.96964          3.4509         1.18589 
        1.97578         3.43846         1.17691 
        1.98192          3.4176         1.16804 
        1.98805         3.40675         1.15926 
        1.99419         3.39113         1.15057 
        2.00033         3.36472         1.14196 
        2.00647         3.36038         1.13345 
         2.0126         3.34495         1.12504 
        2.01874         3.32754          1.1167 
        2.02488         3.31726         1.10844 
        2.03101         3.29021         1.10027 
        2.03714         3.27741          1.0922 
        2.04328         3.26754          1.0842 
        2.04941         3.24833         1.07628 
        2.05554         3.23903         1.06845 
        2.06167         3.22616         1.06069 
        2.06781         3.20788         1.05301 
        2.07396         3.19201         1.04539 
        2.08009         3.18201         1.03785 
        2.08622         3.17235         1.03041 
        2.09237         3.15991         1.02302 
        2.09851         3.13596          1.0157 
        2.10464         3.12518         1.00846 
        2.11077           3.116         1.00131 
        2.11691         3.10033        0.994206 
        2.12305         3.08335        0.987173 
        2.12918         3.07386        0.980225 
        2.13531         3.06077        0.973344 
        2.14145         3.04618        0.966513 
         2.1476         3.02915         0.95974 
        2.15372         3.01518        0.953066 
        2.15985         3.01013        0.946449 
        2.16599         2.99739        0.939876 
        2.17213         2.99085        0.933373 
        2.17827         2.96406        0.926933 
         2.1844         2.95666        0.920559 
        2.19054         2.94771        0.914243 
        2.19666           2.936        0.907996 
         2.2028         2.91163        0.901801 
        2.20893          2.9162        0.895662 
        2.21508         2.89556        0.889572 
        2.22122         2.87798        0.883538 
        2.22736         2.86813        0.877572 
        2.23349         2.85792        0.871662 
        2.23962         2.85036        0.865804 
        2.24577         2.83159        0.859995 
         2.2519         2.83189        0.854248 
        2.25802          2.8038        0.848562 
        2.26417          2.7998        0.842912 
        2.27031         2.78952        0.837309 
        2.27644         2.77697        0.831773 
        2.28257         2.76734        0.826288 
        2.28872         2.75508        0.820841 
        2.29486         2.74104        0.815445 
        2.30099          2.7343        0.810109 
        2.30712         2.72242        0.804818 
        2.31326         2.71473        0.799566 
         2.3194         2.69817        0.794364 
        2.32553         2.69129        0.789216 
        2.33166         2.68293        0.784117 
         2.3378         2.67357        0.779056 
        2.34394         2.65591        0.774038 
        2.35007         2.64788        0.769071 
        2.35619         2.64281        0.764154 
        2.36233         2.62722        0.759268 
        2.36848         2.61954        0.754415 
        2.37462          2.6115        0.749615 
        2.38075         2.60219        0.744861 
        2.38689         2.59299        0.740145 
        2.39303         2.58031         0.73547 
        2.39916         2.57187        0.730841 
        2.40529         2.55916        0.726252 
        2.41143         2.55488        0.721699 
        2.41757         2.54695        0.717183 
         2.4237         2.53324        0.712714 
        2.42983         2.52643        0.708284 
        2.43598         2.51836         0.70388 
        2.44211         2.50308        0.699521 
        2.44823         2.49754        0.695208 
        2.45437         2.48424         0.69092 
        2.46052         2.47897        0.686665 
        2.46665         2.46907        0.682453 
        2.47279          2.4578        0.678278 
        2.47892         2.45285        0.674135 
        2.48507         2.44372        0.670023 
         2.4912         2.43449        0.665953 
