# k  (h/Mpc)    P(k)  (Mpc/h)^3    P_linear(k)  (Mpc/h)^3
     0.00783031         1838.91         1859.68 
       0.013688         2510.43         2511.68 
       0.019231         2737.82         2740.12 
      0.0249154         2698.74         2723.09 
      0.0312784         2531.36          2541.8 
      0.0375637          2306.3         2306.28 
      0.0433917         2085.19          2099.5 
      0.0492413         1923.81         1928.66 
      0.0555754          1768.1         1787.44 
      0.0619321         1681.07         1677.91 
       0.067871         1572.19         1587.51 
      0.0738098         1478.33         1494.97 
      0.0800417         1365.52         1388.47 
      0.0862327         1259.18         1274.49 
      0.0921407         1155.59         1165.08 
      0.0982031         1048.72          1060.9 
       0.104506         969.075         968.603 
       0.110769         896.194         896.164 
       0.116806         836.818           843.1 
       0.122832         800.862         802.093 
       0.129052         758.064         766.265 
       0.135211         723.065         731.662 
       0.141259         691.511         695.009 
       0.147318         654.941         654.737 
       0.153489         608.474         611.519 
       0.159709         569.344         568.642 
       0.165845         538.471         529.978 
       0.171974         501.301         496.979 
       0.178125         475.762         470.099 
       0.184229         456.851         448.861 
        0.19034          432.17         431.374 
       0.196428         422.017         415.741 
       0.202534         410.145         400.127 
       0.208729         391.068         383.274 
       0.214876         370.291          365.34 
       0.220989         358.425          346.85 
       0.227147         335.606         328.524 
        0.23329         320.368         311.517 
       0.239377         308.959           296.6 
       0.245482         291.781         283.797 
       0.251667         285.807         272.809 
       0.257832         276.272         263.307 
       0.263955          267.17         254.649 
       0.270079         259.041         246.169 
        0.27624         253.639         237.455 
       0.282372         243.864         228.488 
        0.28843         234.304         219.478 
       0.294538         225.348          210.53 
       0.300721         220.406         201.925 
        0.30691          210.56         194.019 
       0.313033         204.442         186.988 
       0.319153         195.539          180.72 
       0.325316         192.317         175.006 
        0.33145         186.141         169.716 
       0.337538         182.614         164.651 
       0.343633         177.003         159.633 
       0.349808         172.138         154.537 
       0.355968         167.778         149.466 
       0.362074         162.829         144.528 
       0.368217         158.608         139.741 
       0.374374         153.974         135.216 
       0.380519          150.23         131.007 
       0.386598         146.445         127.153 
       0.392688         143.856         123.558 
        0.39888         140.129         120.111 
       0.405048         137.318         116.822 
       0.411186          134.56         113.634 
       0.417313         130.538         110.505 
       0.423458         127.814         107.421 
       0.429607         124.545         104.399 
       0.435692         120.751         101.501 
       0.441815          119.52         98.7037 
       0.447964         117.746         96.0288 
       0.454126         113.118          93.487 
       0.460267          111.41         91.0876 
       0.466387         108.898         88.8073 
        0.47254         107.485          86.603 
       0.478662         105.771         84.4807 
       0.484765         103.188         82.4225 
       0.490885         101.117          80.406 
       0.497035         99.8625         78.4293 
       0.503198         97.4393         76.5065 
       0.509342         95.1741         74.6528 
       0.515458         93.6993         72.8739 
       0.521598         92.5032         71.1567 
       0.527764          90.872         69.5021 
       0.533884         89.3082         67.9232 
           0.54         87.8814         66.4003 
       0.546137           86.75         64.9195 
       0.552299         85.5862         63.4757 
       0.558452         83.1662         62.0747 
       0.564573         81.9381         60.7179 
       0.570708         81.0901         59.3941 
       0.576825         79.3157         58.1118 
       0.582926         78.0685         56.8718 
       0.589034          76.189         55.6702 
       0.595184         75.4127         54.4997 
       0.601379         74.5395         53.3583 
       0.607522          72.925          52.261 
       0.613639         72.6815         51.2003 
       0.619772         70.8529          50.167 
       0.625918          70.626         49.1601 
       0.632068         69.5349         48.1796 
       0.638161         68.4191         47.2336 
         0.6443         67.2994         46.3051 
       0.650464         66.3109         45.3981 
       0.656582         65.9035         44.5223 
       0.662703         64.6568         43.6706 
       0.668861         63.8435         42.8379 
       0.675024         62.9245         42.0277 
       0.681124         61.9297         41.2475 
       0.687237         61.0046          40.486 
       0.693381         60.5496         39.7403 
       0.699536         59.3232         39.0117 
       0.705665         59.4162         38.3045 
       0.711789         58.1043         37.6155 
       0.717957         57.5656         36.9389 
        0.72409         56.7421          36.283 
       0.730186         56.0075         35.6475 
       0.736317         55.6529         35.0242 
       0.742472         54.6982          34.414 
       0.748622         54.3185         33.8191 
        0.75476         53.5418         33.2399 
       0.760888         52.9063         32.6753 
       0.767043          52.385         32.1218 
       0.773185         51.5935         31.5824 
       0.779291         51.3612         31.0586 
       0.785407         50.8073         30.5461 
       0.791564          49.949         30.0421 
       0.797719         49.1873         29.5499 
       0.803834         49.1232         29.0721 
       0.809972         48.5788         28.6034 
       0.816124         47.5611         28.1441 
       0.822261         47.4825         27.6964 
       0.828378         46.9758           27.26 
       0.834502         46.4354         26.8327 
       0.840667         46.0461          26.412 
       0.846816         45.4057         26.0016 
       0.852925         45.0585         25.6026 
       0.859047           44.51         25.2113 
       0.865192          44.254          24.827 
       0.871341         43.9909         24.4506 
       0.877463         43.1877         24.0838 
       0.883569         42.8127         23.7255 
       0.889708         42.4426         23.3728 
       0.895864         42.1545         23.0265 
       0.902008         41.8267         22.6881 
       0.908149          41.453         22.3568 
       0.914301          41.251         22.0316 
       0.920448         40.4327         21.7133 
       0.926574         40.3047         21.4026 
       0.932687         39.9043         21.0986 
       0.938823         39.4433         20.7996 
       0.944975          39.144         20.5057 
       0.951105         38.8981         20.2187 
       0.957225         38.4474         19.9378 
       0.963368         38.1816         19.6613 
       0.969511          37.934         19.3901 
       0.975621         37.6812         19.1256 
       0.981748         37.2095         18.8654 
       0.987916         37.0151         18.6084 
        0.99406         36.6499         18.3573 
        1.00019         36.2055         18.1114 
        1.00632         36.1684         17.8703 
        1.01246         35.7987         17.6333 
        1.01859         35.3891          17.401 
        1.02471         35.3271         17.1732 
        1.03085         34.9953         16.9488 
        1.03698         34.5058          16.729 
        1.04314         34.3158         16.5121 
        1.04929         34.0107         16.2997 
        1.05541         33.7212         16.0919 
        1.06154         33.5222         15.8872 
        1.06769         33.3435         15.6859 
        1.07382         33.0163         15.4887 
        1.07993         32.8891         15.2955 
        1.08607         32.5227         15.1048 
        1.09222         32.3233         14.9171 
        1.09836         31.9592          14.733 
        1.10449         31.9008         14.5522 
        1.11063         31.5564         14.3742 
        1.11677         31.4429         14.1994 
         1.1229         31.2984         14.0278 
        1.12903          30.926         13.8589 
        1.13518         30.6485         13.6927 
        1.14131           30.56         13.5293 
        1.14745         30.3639         13.3687 
        1.15359         30.1638         13.2108 
        1.15973          29.896         13.0554 
        1.16584         29.5941         12.9032 
        1.17197         29.5874         12.7532 
        1.17811         29.2769         12.6052 
        1.18424         29.0338           12.46 
        1.19038         28.9508         12.3167 
        1.19652         28.7092         12.1757 
        1.20267          28.497          12.037 
        1.20881         28.4404         11.9005 
        1.21495         28.2124         11.7664 
        1.22108         27.9646         11.6343 
         1.2272         27.7288         11.5046 
        1.23334         27.5565         11.3767 
        1.23949          27.361         11.2504 
        1.24562          27.345         11.1264 
        1.25174         27.1399         11.0044 
        1.25789          27.016          10.884 
        1.26402         26.8476         10.7656 
        1.27014         26.6354         10.6492 
        1.27628         26.3704         10.5343 
        1.28244          26.325         10.4208 
        1.28858         26.2073         10.3092 
        1.29471          25.958         10.1995 
        1.30084         25.7851         10.0915 
        1.30697         25.6789         9.98488 
        1.31312         25.4327          9.8797 
        1.31925         25.3062         9.77639 
        1.32537         25.2481         9.67468 
        1.33151         25.0244         9.57406 
        1.33765         24.8901         9.47495 
        1.34378         24.7957         9.37746 
        1.34992         24.5294         9.28128 
        1.35606         24.4918         9.18626 
         1.3622         24.3821         9.09275 
        1.36833         24.2107         9.00079 
        1.37445         24.0981         8.91015 
        1.38059          24.001          8.8205 
        1.38675         23.7666         8.73189 
        1.39288         23.6613         8.64485 
        1.39901         23.4638         8.55906 
        1.40515         23.4063         8.47425 
         1.4113         23.2931         8.39064 
        1.41742         23.1419         8.30849 
        1.42355         23.0386         8.22729 
         1.4297          22.872         8.14695 
        1.43585         22.8232         8.06772 
        1.44198         22.6267         7.98986 
        1.44809         22.5576         7.91319 
        1.45423         22.4251         7.83725 
        1.46036         22.3504         7.76246 
        1.46649         22.2236         7.68863 
        1.47263         22.0465          7.6157 
        1.47877         21.9688         7.54377 
        1.48491         21.8403         7.47266 
        1.49104         21.7742         7.40263 
        1.49718         21.6209         7.33346 
        1.50333         21.5122         7.26507 
        1.50947         21.4239         7.19769 
         1.5156         21.2882         7.13129 
        1.52172         21.1417         7.06573 
        1.52787         21.0531         7.00087 
          1.534         20.9763         6.93691 
        1.54013         20.8566         6.87383 
        1.54627         20.7296         6.81142 
        1.55241         20.6353         6.74978 
        1.55855         20.5743         6.68901 
        1.56467         20.4509         6.62915 
         1.5708         20.4012         6.56986 
        1.57695         20.2153         6.51122 
        1.58308         20.1604         6.45344 
        1.58922         20.0641         6.39632 
        1.59535         19.9764         6.33992 
         1.6015         19.8384         6.28413 
        1.60764         19.7875         6.22904 
        1.61376         19.7408         6.17478 
        1.61989         19.5533         6.12112 
        1.62604         19.5398         6.06799 
        1.63218         19.4181         6.01553 
        1.63831         19.3409         5.96381 
        1.64444         19.2258         5.91269 
        1.65059         19.1362         5.86205 
        1.65673         19.0577         5.81207 
        1.66285         18.9202         5.76282 
        1.66898         18.8776         5.71412 
        1.67512          18.798          5.6659 
        1.68127         18.6687          5.6182 
         1.6874         18.6163         5.57116 
        1.69353         18.5584         5.52469 
        1.69967         18.4208         5.47865 
        1.70581         18.2963         5.43315 
        1.71193         18.2688         5.38835 
        1.71806         18.2328         5.34397 
        1.72421         18.0955             5.3 
        1.73035         18.0524         5.25658 
        1.73649         17.9777         5.21366 
        1.74262         17.8789         5.17126 
        1.74876         17.8035         5.12931 
        1.75489         17.7422         5.08792 
        1.76101         17.6259         5.04699 
        1.76715         17.6075         5.00647 
        1.77329         17.5204         4.96635 
        1.77943         17.3944         4.92665 
        1.78557         17.3464         4.88745 
        1.79171          17.287         4.84867 
        1.79785         17.2108         4.81031 
        1.80399         17.1349         4.77237 
        1.81012         17.0479          4.7349 
        1.81625         16.9565         4.69785 
        1.82239         16.9124         4.66115 
        1.82853         16.7819         4.62486 
        1.83466         16.7555         4.58899 
        1.84078         16.6436         4.55354 
        1.84692         16.6275         4.51842 
        1.85306         16.5487         4.48363 
         1.8592         16.4696         4.44926 
        1.86533         16.4219         4.41527 
        1.87147         16.3338          4.3816 
        1.87761         16.2663         4.34828 
        1.88375         16.2154         4.31534 
        1.88988         16.1461         4.28278 
        1.89601         16.0828         4.25054 
        1.90215          16.002         4.21861 
        1.90829         15.9511         4.18703 
        1.91442         15.8778         4.15577 
        1.92056         15.8345         4.12486 
         1.9267          15.761         4.09424 
        1.93284         15.6851         4.06391 
        1.93897         15.6038         4.03395 
        1.94509          15.561         4.00436 
        1.95123         15.4996         3.97499 
        1.95737          15.429          3.9459 
        1.96349         15.3521         3.91718 
        1.96964         15.3069         3.88866 
        1.97578         15.2425         3.86042 
        1.98192         15.1797         3.83252 
        1.98805         15.1282         3.80489 
        1.99419         15.0619         3.77754 
        2.00033         15.0202         3.75044 
        2.00647         14.9576         3.72362 
         2.0126         14.8758         3.69711 
        2.01874         14.8233         3.67082 
        2.02488         14.7573         3.64477 
        2.03101         14.7138         3.61901 
        2.03714         14.6564         3.59354 
        2.04328         14.5911         3.56828 
        2.04941          14.552         3.54329 
        2.05554         14.4866         3.51855 
        2.06167          14.425         3.49402 
        2.06781          14.387         3.46973 
        2.07396         14.3282         3.44563 
        2.08009         14.2537          3.4218 
        2.08622         14.1868         3.39823 
        2.09237          14.179         3.37484 
        2.09851         14.1468         3.35166 
        2.10464         14.0714         3.32874 
        2.11077         13.9953         3.30607 
        2.11691          13.935         3.28356 
        2.12305          13.914         3.26125 
        2.12918         13.8735         3.23921 
        2.13531         13.7872         3.21738 
        2.14145         13.7549          3.1957 
         2.1476         13.6831         3.17419 
        2.15372         13.6457         3.15299 
        2.15985         13.6174         3.13196 
        2.16599         13.5423         3.11107 
        2.17213         13.5161          3.0904 
        2.17827         13.4634         3.06991 
         2.1844         13.4026         3.04964 
        2.19054          13.337         3.02954 
        2.19666         13.3023         3.00965 
         2.2028          13.233         2.98992 
        2.20893           13.23         2.97036 
        2.21508         13.1537         2.95096 
        2.22122         13.0897         2.93173 
        2.22736         13.0666          2.9127 
        2.23349         13.0186         2.89386 
        2.23962         12.9849         2.87517 
        2.24577         12.9088         2.85663 
         2.2519         12.8749         2.83828 
        2.25802         12.8329         2.82012 
        2.26417         12.7729         2.80207 
        2.27031         12.7448         2.78417 
        2.27644         12.7023         2.76647 
        2.28257          12.658         2.74894 
        2.28872         12.5977         2.73152 
        2.29486          12.569         2.71425 
        2.30099         12.5407         2.69718 
        2.30712         12.5021         2.68024 
        2.31326         12.4124         2.66342 
         2.3194         12.3664         2.64676 
        2.32553         12.3643         2.63027 
        2.33166         12.3063         2.61392 
         2.3378         12.2762          2.5977 
        2.34394         12.2201         2.58161 
        2.35007         12.1483         2.56567 
        2.35619         12.1234          2.5499 
        2.36233         12.0778         2.53422 
        2.36848         12.0465         2.51864 
        2.37462         11.9837         2.50322 
        2.38075          11.956         2.48795 
        2.38689         11.9102          2.4728 
        2.39303         11.8678         2.45777 
        2.39916         11.8375         2.44289 
        2.40529         11.7986         2.42813 
        2.41143         11.7514         2.41349 
        2.41757         11.7291         2.39896 
         2.4237         11.6813         2.38457 
        2.42983         11.6545         2.37031 
        2.43598         11.6132         2.35613 
        2.44211         11.5662         2.34209 
        2.44823         11.5396         2.32819 
        2.45437         11.4788         2.31437 
        2.46052         11.4351         2.30065 
        2.46665         11.4019         2.28707 
        2.47279         11.3644          2.2736 
        2.47892         11.3273         2.26023 
        2.48507         11.2908         2.24696 
         2.4912         11.2489         2.23382 
