# k  (h/Mpc)    Pcb(k)  (Mpc/h)^3    Pcb_linear(k)  (Mpc/h)^3
     0.00783031         11922.5         11999.2 
       0.013688         13202.9         13499.9 
       0.019231         12430.8         12576.1 
      0.0249154           10732         10665.9 
      0.0312784         8395.62          8409.1 
      0.0375637         6580.22         6623.47 
      0.0433917         5518.26         5495.63 
      0.0492413         4793.05         4798.32 
      0.0555754         4390.03         4361.21 
      0.0619321         3983.77          4062.1 
       0.067871         3751.44         3773.46 
      0.0738098         3418.12         3414.37 
      0.0800417         2997.39         2971.98 
      0.0862327         2546.76         2525.61 
      0.0921407         2196.12         2154.07 
      0.0982031         1936.27         1865.15 
       0.104506         1709.36         1669.37 
       0.110769         1603.69         1558.89 
       0.116806         1555.73         1497.77 
       0.122832         1481.52         1446.31 
       0.129052         1406.81         1375.51 
       0.135211         1332.56         1276.38 
       0.141259         1202.52          1157.2 
       0.147318         1077.18         1032.79 
       0.153489         977.207          918.98 
       0.159709          910.06         829.525 
       0.165845         829.177         768.991 
       0.171974         811.034          731.32 
       0.178125         782.434         707.177 
       0.184229         736.726           686.5 
        0.19034         719.768         660.938 
       0.196428         690.325         626.882 
       0.202534         633.876         585.184 
       0.208729         611.574         539.754 
       0.214876          574.41         497.099 
       0.220989          531.47          461.24 
       0.227147         514.508         433.513 
        0.23329         492.926         413.586 
       0.239377         485.302         399.101 
       0.245482         461.106         386.783 
       0.251667         443.034         373.816 
       0.257832         435.892         358.734 
       0.263955         409.743         341.408 
       0.270079         390.966         322.749 
        0.27624         372.744          304.18 
       0.282372         361.493         287.366 
        0.28843         356.246         273.234 
       0.294538         337.314         261.607 
       0.300721         326.198          252.04 
        0.30691         320.205         243.774 
       0.313033         304.919         236.004 
       0.319153         299.545         227.951 
       0.325316         292.132         219.305 
        0.33145         283.382         210.259 
       0.337538         271.969         201.239 
       0.343633         263.277         192.601 
       0.349808         255.275          184.61 
       0.355968         249.702          177.57 
       0.362074         241.211         171.441 
       0.368217         238.054         165.949 
       0.374374          232.16          160.82 
       0.380519         222.399          155.84 
       0.386598         218.874         150.899 
       0.392688          212.14         145.879 
        0.39888         207.448         140.791 
       0.405048         202.234         135.844 
       0.411186         200.353         131.161 
       0.417313         196.123          126.82 
       0.423458         190.806          122.81 
       0.429607         185.189         119.104 
       0.435692         182.261          115.68 
       0.441815         178.148         112.389 
       0.447964         173.035         109.166 
       0.454126         170.325         105.995 
       0.460267         168.024         102.886 
       0.466387         163.572         99.8516 
        0.47254         161.697         96.9015 
       0.478662         156.854         94.1028 
       0.484765         154.383         91.4592 
       0.490885         151.702         88.9482 
       0.497035         149.517         86.5559 
       0.503198         147.707         84.2716 
       0.509342         143.893         82.0783 
       0.515458         141.391         79.9549 
       0.521598         137.912         77.8761 
       0.527764         136.713         75.8457 
       0.533884          135.48         73.8915 
           0.54         132.286         72.0036 
       0.546137         129.176          70.178 
       0.552299         127.369         68.4182 
       0.558452          125.27         66.7361 
       0.564573         124.632         65.1298 
       0.570708         121.174         63.5773 
       0.576825         119.638         62.0781 
       0.582926         118.352         60.6254 
       0.589034         116.243         59.2126 
       0.595184         114.921         57.8324 
       0.601379          112.85         56.4852 
       0.607522         110.153         55.1914 
       0.613639         109.465         53.9442 
       0.619772         107.862         52.7339 
       0.625918         106.995         51.5606 
       0.632068         104.351          50.425 
       0.638161         103.593         49.3358 
         0.6443         102.593          48.272 
       0.650464         100.441         47.2356 
       0.656582         99.7576          46.236 
       0.662703         98.7509         45.2634 
       0.668861         96.5853          44.312 
       0.675024         96.4803         43.3867 
       0.681124         94.8175         42.4972 
       0.687237         93.6956         41.6315 
       0.693381         92.1908         40.7869 
       0.699536         91.4619         39.9653 
       0.705665         90.3789         39.1706 
       0.711789         89.0118         38.3986 
       0.717957         87.9578         37.6422 
        0.72409         86.9171         36.9103 
       0.730186         86.7051         36.2019 
       0.736317         85.4955          35.508 
       0.742472         83.9483         34.8295 
       0.748622         82.7321         34.1694 
        0.75476         82.8938         33.5278 
       0.760888         81.8705         32.9038 
       0.767043         80.2735         32.2935 
       0.773185         79.2552         31.7001 
       0.779291         78.5352         31.1252 
       0.785407         77.9498         30.5639 
       0.791564         77.2496          30.013 
       0.797719         75.9739          29.476 
       0.803834         75.8575         28.9557 
       0.809972         75.0843         28.4461 
       0.816124         73.7896         27.9476 
       0.822261         73.1244         27.4624 
       0.828378         72.8673         26.9903 
       0.834502         72.1156         26.5288 
       0.840667         71.5013         26.0752 
       0.846816           70.62         25.6335 
       0.852925         69.8912         25.2049 
       0.859047         69.3736         24.7851 
       0.865192         68.6884         24.3736 
       0.871341         68.0716         23.9712 
       0.877463         67.3635         23.5798 
       0.883569         67.3205         23.1981 
       0.889708         66.5603         22.8229 
       0.895864         65.9959         22.4551 
       0.902008         65.1588         22.0962 
       0.908149         64.4056         21.7453 
       0.914301         64.1645         21.4016 
       0.920448         64.1089         21.0656 
       0.926574         62.6971         20.7381 
       0.932687         62.5523         20.4182 
       0.938823         62.1361         20.1039 
       0.944975         61.4297         19.7956 
       0.951105         60.8403         19.4949 
       0.957225         60.5984         19.2009 
       0.963368         59.9837          18.912 
       0.969511         59.6308         18.6291 
       0.975621         58.8249         18.3535 
       0.981748         58.5489         18.0828 
       0.987916         57.9691         17.8159 
        0.99406         57.8311         17.5554 
        1.00019         57.0963         17.3006 
        1.00632         56.6041         17.0511 
        1.01246         56.3322         16.8062 
        1.01859         56.0043         16.5665 
        1.02471         55.5897         16.3317 
        1.03085         55.0195         16.1008 
        1.03698         54.6509         15.8748 
        1.04314         54.2521         15.6521 
        1.04929         53.9152         15.4343 
        1.05541          53.443         15.2215 
        1.06154         53.0417         15.0122 
        1.06769         52.6988         14.8065 
        1.07382         52.2082         14.6053 
        1.07993         52.0325         14.4084 
        1.08607         51.5936         14.2143 
        1.09222         51.3341         14.0235 
        1.09836         50.9346         13.8365 
        1.10449         50.5911         13.6531 
        1.11063         50.2238         13.4729 
        1.11677         50.0513          13.296 
         1.1229         49.4675         13.1225 
        1.12903         49.2709          12.952 
        1.13518         48.9087         12.7844 
        1.14131         48.5819         12.6199 
        1.14745         48.3957         12.4583 
        1.15359         47.7634         12.2996 
        1.15973         47.7368         12.1435 
        1.16584         47.3965         11.9909 
        1.17197         47.0392         11.8407 
        1.17811         46.7222         11.6925 
        1.18424          46.208         11.5474 
        1.19038         46.0683         11.4043 
        1.19652         45.8721         11.2637 
        1.20267           45.46         11.1255 
        1.20881         45.1786         10.9896 
        1.21495         44.9373         10.8562 
        1.22108          44.859         10.7251 
         1.2272         44.3941         10.5964 
        1.23334         44.2497         10.4695 
        1.23949         43.8671         10.3444 
        1.24562         43.5793         10.2218 
        1.25174         43.4456         10.1012 
        1.25789         43.1826         9.98231 
        1.26402         42.8699         9.86551 
        1.27014         42.6803         9.75086 
        1.27628          42.374         9.63769 
        1.28244         42.3636          9.5261 
        1.28858         41.9403         9.41642 
        1.29471         41.5776         9.30872 
        1.30084         41.2724         9.20279 
        1.30697         41.2688         9.09835 
        1.31312         41.0342         8.99538 
        1.31925         40.6643         8.89433 
        1.32537         40.4483         8.79493 
        1.33151         40.2492          8.6967 
        1.33765         40.0735         8.60002 
        1.34378         39.8025           8.505 
        1.34992         39.6003         8.41136 
        1.35606         39.2697         8.31892 
         1.3622         39.1829         8.22803 
        1.36833         39.0002         8.13873 
        1.37445         38.6417         8.05079 
        1.38059          38.468         7.96388 
        1.38675         38.2621         7.87805 
        1.39288         38.1242         7.79382 
        1.39901         37.8196         7.71087 
        1.40515         37.6509         7.62893 
         1.4113         37.5489         7.54822 
        1.41742         37.2825         7.46898 
        1.42355         37.1158         7.39074 
         1.4297         36.9754         7.31338 
        1.43585         36.7922         7.23715 
        1.44198         36.4841         7.16231 
        1.44809         36.2316         7.08866 
        1.45423         36.1908         7.01578 
        1.46036         36.0391         6.94405 
        1.46649         35.7179          6.8733 
        1.47263           35.55         6.80349 
        1.47877         35.3904         6.73467 
        1.48491         35.1279         6.66669 
        1.49104         35.0518         6.59979 
        1.49718         34.8694         6.53376 
        1.50333         34.7309         6.46853 
        1.50947         34.4696         6.40432 
         1.5156         34.3951         6.34108 
        1.52172         34.1227         6.27869 
        1.52787         34.0705         6.21702 
          1.534         33.7729         6.15624 
        1.54013         33.8042         6.09634 
        1.54627         33.4704         6.03713 
        1.55241         33.3939          5.9787 
        1.55855         33.1783         5.92112 
        1.56467          32.895         5.86446 
         1.5708         32.9565         5.80838 
        1.57695         32.7244         5.75295 
        1.58308          32.529         5.69837 
        1.58922         32.3657         5.64445 
        1.59535         32.3505         5.59126 
         1.6015         32.2183         5.53867 
        1.60764         31.9612         5.48679 
        1.61376         31.7954         5.43571 
        1.61989         31.5799         5.38524 
        1.62604         31.4707          5.3353 
        1.63218         31.2005         5.28602 
        1.63831         31.1925         5.23747 
        1.64444         31.0625         5.18952 
        1.65059         30.8612         5.14205 
        1.65673         30.7514         5.09523 
        1.66285         30.6302         5.04912 
        1.66898         30.4747         5.00357 
        1.67512         30.2447         4.95849 
        1.68127         30.2226         4.91392 
         1.6874         30.1134            4.87 
        1.69353         29.8928         4.82664 
        1.69967         29.7982         4.78371 
        1.70581         29.6511         4.74131 
        1.71193         29.4832         4.69959 
        1.71806         29.4073         4.65829 
        1.72421         29.1978         4.61739 
        1.73035         29.1536         4.57704 
        1.73649         28.9652         4.53717 
        1.74262         28.7948         4.49781 
        1.74876         28.8509         4.45889 
        1.75489         28.5757         4.42051 
        1.76101         28.5485         4.38259 
        1.76715         28.2982         4.34506 
        1.77329         28.1571         4.30793 
        1.77943         28.1607         4.27122 
        1.78557         28.0249         4.23498 
        1.79171         27.8525         4.19916 
        1.79785         27.7714         4.16375 
        1.80399          27.593         4.12875 
        1.81012         27.4751          4.0942 
        1.81625         27.3496         4.06006 
        1.82239         27.2237         4.02626 
        1.82853         27.1509         3.99286 
        1.83466         26.9791         3.95987 
        1.84078         26.8725         3.92729 
        1.84692         26.7449         3.89502 
        1.85306         26.6352         3.86307 
         1.8592         26.4806         3.83153 
        1.86533         26.4341         3.80036 
        1.87147         26.2977          3.7695 
        1.87761         26.2152         3.73897 
        1.88375         26.0782         3.70881 
        1.88988         25.9194         3.67901 
        1.89601         25.8554         3.64953 
        1.90215         25.7374         3.62034 
        1.90829         25.6155         3.59149 
        1.91442          25.511         3.56295 
        1.92056         25.4207         3.53475 
         1.9267         25.3444         3.50682 
        1.93284         25.2608         3.47917 
        1.93897         25.1145         3.45188 
        1.94509         25.0252         3.42493 
        1.95123         24.8927         3.39821 
        1.95737         24.8332         3.37175 
        1.96349         24.7545         3.34564 
        1.96964         24.6031         3.31973 
        1.97578         24.4842         3.29408 
        1.98192         24.3795         3.26876 
        1.98805         24.2561          3.2437 
        1.99419         24.1756         3.21889 
        2.00033         24.0835         3.19434 
        2.00647         23.9945         3.17005 
         2.0126         23.8744         3.14605 
        2.01874         23.8079         3.12226 
        2.02488         23.6531         3.09869 
        2.03101         23.6052         3.07542 
        2.03714         23.5049          3.0524 
        2.04328         23.4129         3.02959 
        2.04941          23.244         3.00704 
        2.05554         23.2067         2.98473 
        2.06167          23.104         2.96261 
        2.06781         23.0007         2.94072 
        2.07396         22.9198         2.91901 
        2.08009         22.7912         2.89756 
        2.08622         22.7356         2.87635 
        2.09237         22.6234         2.85531 
        2.09851         22.5747         2.83448 
        2.10464         22.4812         2.81389 
        2.11077         22.3999         2.79353 
        2.11691         22.2493         2.77332 
        2.12305         22.1895         2.75332 
        2.12918         22.1241         2.73355 
        2.13531         21.9406         2.71398 
        2.14145         21.9353         2.69456 
         2.1476         21.8327          2.6753 
        2.15372         21.7718         2.65633 
        2.15985         21.6453         2.63752 
        2.16599         21.5311         2.61884 
        2.17213          21.532         2.60036 
        2.17827         21.4077         2.58206 
         2.1844         21.2989         2.56396 
        2.19054          21.251         2.54602 
        2.19666         21.1335         2.52828 
         2.2028         21.0734         2.51069 
        2.20893          21.016         2.49326 
        2.21508         20.9273         2.47598 
        2.22122          20.843         2.45885 
        2.22736         20.7501         2.44192 
        2.23349         20.7195         2.42515 
        2.23962         20.6109         2.40854 
        2.24577         20.5285         2.39206 
         2.2519         20.4115         2.37576 
        2.25802         20.3179         2.35964 
        2.26417         20.2194         2.34362 
        2.27031         20.1498         2.32773 
        2.27644         20.1167         2.31204 
        2.28257         20.0557         2.29649 
        2.28872         19.9383         2.28106 
        2.29486         19.8898         2.26577 
        2.30099         19.8109         2.25065 
        2.30712         19.7459         2.23567 
        2.31326         19.6426         2.22079 
         2.3194         19.5717         2.20606 
        2.32553         19.5083         2.19148 
        2.33166         19.4246         2.17705 
         2.3378          19.343         2.16272 
        2.34394         19.2979         2.14852 
        2.35007         19.2068         2.13446 
        2.35619         19.1343         2.12055 
        2.36233         19.0599         2.10672 
        2.36848         19.0165           2.093 
        2.37462         18.9517         2.07942 
        2.38075         18.8472         2.06597 
        2.38689         18.7937         2.05264 
        2.39303         18.7042         2.03942 
        2.39916         18.6319         2.02633 
        2.40529         18.5555         2.01336 
        2.41143         18.5227          2.0005 
        2.41757         18.4011         1.98774 
         2.4237         18.3436         1.97511 
        2.42983          18.248         1.96259 
        2.43598         18.2035         1.95015 
        2.44211         18.1202         1.93784 
        2.44823         18.0536         1.92566 
        2.45437         18.0169         1.91355 
        2.46052         17.9285         1.90154 
        2.46665         17.9022         1.88965 
        2.47279         17.7807         1.87786 
        2.47892         17.7729         1.86617 
        2.48507         17.6626         1.85457 
         2.4912         17.6078         1.84308 
