# k  (h/Mpc)    P(k)  (Mpc/h)^3    P_linear(k)  (Mpc/h)^3
     0.00783031         1731.31         1754.42 
       0.013688            1992         1995.58 
       0.019231         1869.72         1869.11 
      0.0249154         1590.34         1598.51 
      0.0312784         1285.54          1284.2 
      0.0375637         1047.35         1042.46 
      0.0433917         893.441          893.56 
      0.0492413         802.414         800.913 
      0.0555754         731.617         735.631 
      0.0619321         681.395         678.088 
       0.067871         613.875         616.062 
      0.0738098          542.74         544.345 
      0.0800417         464.951          467.03 
      0.0862327         399.871         399.291 
      0.0921407         351.584         349.821 
      0.0982031         315.925         315.528 
       0.104506         296.768         293.731 
       0.110769         281.484         279.492 
       0.116806         266.784         266.552 
       0.122832         251.827         250.439 
       0.129052         229.677         229.622 
       0.135211         207.375          206.83 
       0.141259         187.576         185.464 
       0.147318         170.576         167.604 
       0.153489         156.376         154.157 
       0.159709          147.33         144.997 
       0.165845         141.933         138.771 
       0.171974          135.19         133.504 
       0.178125         129.653         127.675 
       0.184229         122.939         120.665 
        0.19034         113.751          112.62 
       0.196428         106.655          104.35 
       0.202534         100.042         96.6839 
       0.208729         93.0332         90.1746 
       0.214876         87.5364         85.1494 
       0.220989         84.3025         81.3291 
       0.227147         80.3603         78.1851 
        0.23329         77.3326         75.2352 
       0.239377         74.5407         72.1371 
       0.245482         70.3809         68.7365 
       0.251667         67.6094         65.0953 
       0.257832         64.0568         61.5053 
       0.263955         60.8538         58.2202 
       0.270079         57.9967          55.355 
        0.27624         56.0243         52.9226 
       0.282372         53.9481         50.8607 
        0.28843         51.7564         49.0347 
       0.294538         49.8301         47.2696 
       0.300721         48.4313         45.4656 
        0.30691         46.1856         43.6201 
       0.313033         44.4124          41.785 
       0.319153         42.1676         40.0088 
       0.325316         41.1763         38.3369 
        0.33145         39.4753         36.8264 
       0.337538         38.2352         35.4775 
       0.343633         36.8036         34.2514 
       0.349808         35.7476         33.0953 
       0.355968         34.6608         31.9864 
       0.362074         33.4891         30.9099 
       0.368217         32.3963         29.8392 
       0.374374         31.2618         28.7893 
       0.380519         30.3752         27.7804 
       0.386598         29.4713         26.8337 
       0.392688          28.723         25.9469 
        0.39888         27.7726         25.1057 
       0.405048         27.0213           24.32 
       0.411186         26.3103         23.5792 
       0.417313         25.4513         22.8687 
       0.423458         24.7605          22.177 
       0.429607         24.0401          21.505 
       0.435692         23.2855         20.8603 
       0.441815         22.7528         20.2349 
       0.447964         22.2936         19.6342 
       0.454126         21.4395         19.0618 
       0.460267         21.0087          18.519 
       0.466387         20.3431         18.0031 
        0.47254         19.9585         17.5065 
       0.478662         19.5747         17.0312 
       0.484765          18.944         16.5729 
       0.490885         18.4946         16.1277 
       0.497035          18.234         15.6953 
       0.503198         17.7074         15.2776 
       0.509342         17.2545         14.8766 
       0.515458         16.8422         14.4926 
       0.521598         16.5092         14.1221 
       0.527764         16.0987         13.7645 
       0.533884         15.8268         13.4227 
           0.54         15.4409         13.0929 
       0.546137         15.1537         12.7725 
       0.552299         14.8679          12.461 
       0.558452          14.409         12.1602 
       0.564573         14.1848         11.8708 
       0.570708         13.9003         11.5903 
       0.576825         13.5452           11.32 
       0.582926           13.28         11.0593 
       0.589034         12.9243         10.8067 
       0.595184         12.7326         10.5607 
       0.601379         12.4444         10.3208 
       0.607522         12.2436         10.0905 
       0.613639         12.0753         9.86809 
       0.619772         11.7433         9.65184 
       0.625918         11.6471          9.4416 
       0.632068         11.4533         9.23752 
       0.638161         11.1672         9.04133 
         0.6443         10.9371         8.84955 
       0.650464         10.7135         8.66277 
       0.656582         10.6269         8.48285 
       0.662703         10.4173          8.3081 
       0.668861         10.2183         8.13736 
       0.675024         10.0138         7.97134 
       0.681124         9.83692         7.81165 
       0.687237         9.67787         7.65603 
       0.693381         9.54641         7.50395 
       0.699536         9.28554         7.35576 
       0.705665         9.19473         7.21225 
       0.711789         9.02218         7.07275 
       0.717957         8.86549         6.93603 
        0.72409         8.71775         6.80374 
       0.730186         8.59416         6.67574 
       0.736317          8.4956         6.55038 
       0.742472         8.35329         6.42781 
       0.748622         8.22167         6.30853 
        0.75476         8.05693         6.19255 
       0.760888         7.93922         6.07969 
       0.767043           7.837         5.96922 
       0.773185         7.68139         5.86175 
       0.779291          7.6173         5.75755 
       0.785407         7.49842         5.65576 
       0.791564         7.38041         5.55582 
       0.797719          7.2331         5.45835 
       0.803834         7.19138         5.36387 
       0.809972         7.10648          5.2713 
       0.816124         6.95509         5.18074 
       0.822261         6.84168         5.09257 
       0.828378         6.75993         5.00673 
       0.834502         6.70339         4.92282 
       0.840667         6.57268         4.84031 
       0.846816         6.45874         4.75994 
       0.852925         6.40064         4.68191 
       0.859047         6.31312         4.60549 
       0.865192         6.25227         4.53054 
       0.871341         6.18175         4.45722 
       0.877463         6.08056         4.38587 
       0.883569         5.98007         4.31628 
       0.889708          5.8828         4.24786 
       0.895864         5.81767         4.18076 
       0.902008         5.75855         4.11526 
       0.908149          5.6977         4.05122 
       0.914301         5.61323         3.98844 
       0.920448         5.53034         3.92707 
       0.926574         5.45745         3.86722 
       0.932687         5.39626         3.80875 
       0.938823         5.32769         3.75129 
       0.944975         5.25841         3.69489 
       0.951105         5.20152         3.63987 
       0.957225         5.17489         3.58607 
       0.963368         5.10256         3.53318 
       0.969511         5.03492         3.48137 
       0.975621         4.96996         3.43088 
       0.981748         4.91458         3.38127 
       0.987916         4.86612         3.33233 
        0.99406         4.78287         3.28455 
        1.00019         4.71995         3.23782 
        1.00632         4.69563         3.19204 
        1.01246         4.63722         3.14708 
        1.01859         4.57113         3.10307 
        1.02471         4.53017         3.05996 
        1.03085         4.47508         3.01752 
        1.03698         4.41545         2.97599 
        1.04314         4.38004         2.93506 
        1.04929         4.32768         2.89501 
        1.05541         4.27365         2.85586 
        1.06154         4.23629         2.81735 
        1.06769         4.21385          2.7795 
        1.07382         4.14141         2.74247 
        1.07993         4.09409          2.7062 
        1.08607         4.07151         2.67045 
        1.09222         4.02211         2.63531 
        1.09836         3.97838         2.60085 
        1.10449         3.94125         2.56705 
        1.11063         3.89218         2.53381 
        1.11677         3.86477         2.50119 
         1.1229         3.82859         2.46919 
        1.12903         3.77839         2.43774 
        1.13518         3.73938          2.4068 
        1.14131         3.69564         2.37643 
        1.14745         3.65017          2.3466 
        1.15359         3.62899         2.31728 
        1.15973         3.58371         2.28846 
        1.16584         3.54865         2.26026 
        1.17197         3.51546         2.23249 
        1.17811         3.49589         2.20511 
        1.18424         3.45711         2.17827 
        1.19038         3.43501         2.15181 
        1.19652         3.39426         2.12579 
        1.20267         3.35994         2.10021 
        1.20881         3.33721         2.07506 
        1.21495         3.30409         2.05036 
        1.22108         3.27009         2.02606 
         1.2272         3.24688         2.00222 
        1.23334         3.20551         1.97872 
        1.23949         3.17397         1.95553 
        1.24562          3.1558         1.93278 
        1.25174         3.12019         1.91043 
        1.25789         3.09776         1.88837 
        1.26402         3.07014          1.8667 
        1.27014         3.04108         1.84542 
        1.27628         3.01755         1.82442 
        1.28244         2.98001          1.8037 
        1.28858         2.96808         1.78333 
        1.29471         2.93023         1.76332 
        1.30084         2.90176         1.74364 
        1.30697         2.89861         1.72423 
        1.31312         2.84691         1.70509 
        1.31925         2.82963         1.68631 
        1.32537         2.80442         1.66782 
        1.33151         2.79214         1.64955 
        1.33765         2.75482         1.63157 
        1.34378         2.73999         1.61389 
        1.34992         2.72194         1.59646 
        1.35606         2.68275         1.57925 
         1.3622         2.67408         1.56233 
        1.36833         2.64818          1.5457 
        1.37445         2.62508         1.52932 
        1.38059         2.61617         1.51313 
        1.38675         2.59574         1.49713 
        1.39288         2.57195         1.48143 
        1.39901         2.54079         1.46597 
        1.40515         2.52393         1.45069 
         1.4113         2.50742         1.43564 
        1.41742         2.48789         1.42086 
        1.42355         2.46792         1.40626 
         1.4297         2.44738         1.39182 
        1.43585         2.43421         1.37759 
        1.44198         2.41833         1.36362 
        1.44809         2.39336         1.34987 
        1.45423         2.37347         1.33625 
        1.46036         2.35192         1.32285 
        1.46649         2.33826         1.30963 
        1.47263         2.31707         1.29659 
        1.47877         2.29869         1.28372 
        1.48491         2.28264         1.27101 
        1.49104         2.26827          1.2585 
        1.49718         2.25162         1.24615 
        1.50333         2.23656         1.23395 
        1.50947         2.21801         1.22193 
         1.5156         2.20124          1.2101 
        1.52172         2.18624         1.19842 
        1.52787         2.17075         1.18687 
          1.534         2.15116         1.17549 
        1.54013         2.13947         1.16427 
        1.54627         2.12116         1.15317 
        1.55241          2.1039         1.14222 
        1.55855         2.09337         1.13143 
        1.56467         2.08061         1.12081 
         1.5708         2.06236          1.1103 
        1.57695         2.04706          1.0999 
        1.58308         2.03065         1.08966 
        1.58922          2.0227         1.07955 
        1.59535         2.00759         1.06957 
         1.6015         1.99122          1.0597 
        1.60764         1.98003         1.04996 
        1.61376         1.96817         1.04037 
        1.61989         1.95159          1.0309 
        1.62604         1.93728         1.02152 
        1.63218          1.9318         1.01226 
        1.63831         1.91198         1.00314 
        1.64444         1.90063        0.994135 
        1.65059          1.8871        0.985215 
        1.65673         1.87728        0.976415 
        1.66285         1.86167        0.967747 
        1.66898         1.85259        0.959182 
        1.67512         1.83574        0.950705 
        1.68127          1.8248        0.942323 
         1.6874         1.81991        0.934061 
        1.69353         1.79719        0.925903 
        1.69967         1.78877        0.917824 
        1.70581         1.78267        0.909845 
        1.71193         1.76679        0.901992 
        1.71806          1.7598        0.894214 
        1.72421         1.74708        0.886514 
        1.73035         1.73616        0.878912 
        1.73649         1.72463        0.871402 
        1.74262         1.71287        0.863986 
        1.74876         1.70564        0.856651 
        1.75489         1.68998        0.849417 
        1.76101         1.67889        0.842269 
        1.76715         1.67293        0.835193 
        1.77329         1.66363        0.828191 
        1.77943         1.64711        0.821266 
        1.78557          1.6388         0.81443 
        1.79171         1.63366        0.807672 
        1.79785         1.61924        0.800989 
        1.80399         1.61063        0.794383 
        1.81012         1.60205        0.787861 
        1.81625         1.59323        0.781415 
        1.82239          1.5813        0.775033 
        1.82853         1.56825        0.768724 
        1.83466         1.56361        0.762493 
        1.84078         1.55528        0.756337 
        1.84692         1.54702        0.750239 
        1.85306         1.53484        0.744202 
         1.8592         1.52466         0.73824 
        1.86533         1.51628        0.732348 
        1.87147         1.51055        0.726513 
        1.87761         1.49986        0.720739 
        1.88375         1.49043        0.715035 
        1.88988         1.48428          0.7094 
        1.89601         1.47354        0.703822 
        1.90215         1.46158          0.6983 
        1.90829         1.45291         0.69284 
        1.91442         1.44966        0.687438 
        1.92056         1.43887        0.682099 
         1.9267         1.43055        0.676811 
        1.93284         1.42729        0.671576 
        1.93897         1.41703        0.666407 
        1.94509         1.40815        0.661304 
        1.95123         1.39857        0.656241 
        1.95737         1.39058        0.651228 
        1.96349         1.38542         0.64628 
        1.96964         1.37902        0.641369 
        1.97578         1.36754        0.636508 
        1.98192         1.36206        0.631707 
        1.98805         1.35427        0.626955 
        1.99419         1.34973        0.622252 
        2.00033         1.34346        0.617594 
        2.00647         1.33223        0.612986 
         2.0126         1.32781        0.608433 
        2.01874         1.31685        0.603919 
        2.02488         1.31314        0.599447 
        2.03101         1.30191        0.595029 
        2.03714         1.29653         0.59066 
        2.04328         1.29097        0.586329 
        2.04941          1.2811        0.582046 
        2.05554         1.27664        0.577809 
        2.06167         1.26961        0.573608 
        2.06781         1.26516        0.569448 
        2.07396         1.25798        0.565325 
        2.08009         1.25099        0.561249 
        2.08622         1.24418        0.557218 
        2.09237         1.23673        0.553218 
        2.09851         1.23098        0.549258 
        2.10464         1.22819        0.545343 
        2.11077         1.21874        0.541471 
        2.11691          1.2125        0.537628 
        2.12305         1.20762        0.533822 
        2.12918         1.20176        0.530063 
        2.13531         1.19426        0.526339 
        2.14145         1.18862        0.522643 
         2.1476         1.18042        0.518978 
        2.15372         1.17606        0.515366 
        2.15985         1.16957        0.511786 
        2.16599         1.16478        0.508229 
        2.17213         1.15588         0.50471 
        2.17827         1.15367        0.501225 
         2.1844         1.14824        0.497776 
        2.19054         1.14368        0.494359 
        2.19666         1.13674        0.490979 
         2.2028         1.13076        0.487627 
        2.20893         1.12632        0.484305 
        2.21508         1.12047        0.481011 
        2.22122          1.1124        0.477746 
        2.22736         1.10846        0.474518 
        2.23349         1.10533        0.471321 
        2.23962          1.0974        0.468152 
        2.24577         1.09423        0.465009 
         2.2519         1.08795        0.461899 
        2.25802         1.08343        0.458823 
        2.26417         1.07834        0.455767 
        2.27031         1.07355        0.452735 
        2.27644         1.06775        0.449741 
        2.28257         1.06162        0.446773 
        2.28872         1.05834        0.443827 
        2.29486         1.05156        0.440908 
        2.30099         1.04676        0.438021 
        2.30712         1.04171        0.435159 
        2.31326         1.03893        0.432317 
         2.3194         1.03452        0.429503 
        2.32553         1.03044        0.426718 
        2.33166         1.02323         0.42396 
         2.3378          1.0186        0.421222 
        2.34394         1.01292        0.418507 
        2.35007         1.00939        0.415821 
        2.35619         1.00642        0.413161 
        2.36233        0.999407        0.410518 
        2.36848        0.995688        0.407893 
        2.37462        0.992233        0.405297 
        2.38075        0.987486        0.402725 
        2.38689        0.983758        0.400174 
        2.39303          0.9777        0.397646 
        2.39916        0.974254        0.395142 
        2.40529        0.969821         0.39266 
        2.41143        0.964528        0.390197 
        2.41757        0.961706        0.387755 
         2.4237        0.958909        0.385338 
        2.42983        0.952386        0.382942 
        2.43598        0.949968        0.380559 
        2.44211        0.945606        0.378202 
        2.44823        0.940701        0.375869 
        2.45437        0.937137         0.37355 
        2.46052        0.934497        0.371249 
        2.46665        0.928787        0.368971 
        2.47279        0.924581        0.366712 
        2.47892        0.920157        0.364472 
        2.48507        0.918064        0.362248 
         2.4912        0.911939        0.360047 
