# k  (h/Mpc)    P(k)  (Mpc/h)^3    P_linear(k)  (Mpc/h)^3
     0.00783031         5734.81         5825.84 
       0.013688         6697.47         6687.36 
       0.019231         6321.31         6314.42 
      0.0249154         5365.13         5422.22 
      0.0312784         4320.61         4328.38 
      0.0375637         3461.26         3441.79 
      0.0433917         2863.14         2871.01 
      0.0492413         2519.08         2512.58 
      0.0555754         2262.43         2286.22 
      0.0619321         2151.93         2134.03 
       0.067871         1974.35            1991 
      0.0738098         1798.97         1813.45 
      0.0800417         1573.03         1591.58 
      0.0862327         1361.11         1363.02 
      0.0921407         1180.08         1168.34 
      0.0982031         1019.49         1013.06 
       0.104506         929.035         904.697 
       0.110769         861.589         841.658 
       0.116806         818.319         806.794 
       0.122832         793.102         779.733 
       0.129052         747.093         744.938 
       0.135211         700.186         696.266 
       0.141259         649.442         636.282 
       0.147318         590.598         571.658 
       0.153489         527.526         510.466 
       0.159709          482.71         460.499 
       0.165845         452.724         425.235 
       0.171974         424.907         402.413 
       0.178125         409.703         387.784 
       0.184229         396.917         376.352 
        0.19034         375.048          363.53 
       0.196428          364.27         346.849 
       0.202534         348.213         326.045 
       0.208729         323.758         302.601 
       0.214876         300.539         279.708 
       0.220989         284.482         259.644 
       0.227147         266.882         243.448 
        0.23329         254.572         231.364 
       0.239377         247.504         222.513 
       0.245482         233.241         215.349 
       0.251667         230.024         208.373 
       0.257832         222.121         200.672 
       0.263955         213.019         191.913 
       0.270079         203.251         182.289 
        0.27624         197.222         172.423 
       0.282372          188.56         163.142 
        0.28843         179.891          155.05 
       0.294538          171.69         148.184 
       0.300721         168.497         142.447 
        0.30691         160.887         137.581 
       0.313033         156.635         133.187 
       0.319153         149.822         128.842 
       0.325316         146.792         124.284 
        0.33145         140.953         119.536 
       0.337538         137.822         114.725 
       0.343633         132.485         110.007 
       0.349808         128.032         105.524 
       0.355968         124.964         101.463 
       0.362074         121.081         97.8872 
       0.368217         117.417         94.6669 
       0.374374         113.774         91.7173 
       0.380519         111.362         88.9235 
       0.386598         108.289         86.2049 
       0.392688          106.18           83.49 
        0.39888          103.18         80.7254 
       0.405048         100.386         78.0124 
       0.411186          97.968         75.4091 
       0.417313         95.2641         72.9461 
       0.423458         92.9101         70.6418 
       0.429607         90.5798         68.5054 
       0.435692         87.4611          66.529 
       0.441815         86.5406          64.648 
       0.447964         84.9429          62.836 
       0.454126          81.123         61.0673 
       0.460267         80.1224         59.3381 
       0.466387         78.4629         57.6543 
        0.47254         76.8551          56.008 
       0.478662         75.8657         54.4273 
       0.484765         73.4629         52.9198 
       0.490885         72.0333         51.4845 
       0.497035         71.1112         50.1135 
       0.503198         69.0309         48.8024 
       0.509342         67.4727         47.5489 
       0.515458         66.3156         46.3459 
       0.521598         65.2398         45.1751 
       0.527764         64.1236         44.0301 
       0.533884          63.117         42.9248 
           0.54         61.6441         41.8548 
       0.546137         60.9539         40.8181 
       0.552299         59.9642         39.8154 
       0.558452         58.3479         38.8517 
       0.564573         57.2993         37.9286 
       0.570708          56.464         37.0377 
       0.576825         55.5427         36.1805 
       0.582926         54.2863         35.3533 
       0.589034         53.1951         34.5495 
       0.595184         52.4777         33.7627 
       0.601379          51.634         32.9931 
       0.607522         50.4346          32.253 
       0.613639         50.1957          31.539 
       0.619772         49.0247         30.8462 
       0.625918         48.5007          30.174 
       0.632068         47.8611         29.5225 
       0.638161         47.1131         28.8966 
         0.6443         46.3609         28.2847 
       0.650464         45.6662         27.6885 
       0.656582         45.1314         27.1139 
       0.662703         44.2189         26.5555 
       0.668861         43.5961         26.0096 
       0.675024         43.0166         25.4785 
       0.681124         42.3027         24.9676 
       0.687237          41.531         24.4696 
       0.693381         41.1801         23.9831 
       0.699536         40.3863         23.5091 
       0.705665         40.4885         23.0503 
       0.711789         39.4014         22.6044 
       0.717957         38.9521         22.1676 
        0.72409          38.436         21.7449 
       0.730186         37.8193         21.3359 
       0.736317         37.6043         20.9354 
       0.742472         37.0009         20.5437 
       0.748622         36.5983         20.1625 
        0.75476         36.1319         19.7918 
       0.760888         35.5476          19.431 
       0.767043         35.1218         19.0779 
       0.773185         34.6506         18.7343 
       0.779291         34.4681         18.4013 
       0.785407         34.1264          18.076 
       0.791564         33.5977         17.7565 
       0.797719         32.9094         17.4451 
       0.803834         32.8272         17.1432 
       0.809972         32.3146         16.8475 
       0.816124         31.8645         16.5581 
       0.822261         31.5711         16.2764 
       0.828378         31.3836         16.0022 
       0.834502         30.9794         15.7341 
       0.840667         30.6368         15.4705 
       0.846816         30.1341         15.2137 
       0.852925         29.8947         14.9645 
       0.859047         29.5121         14.7203 
       0.865192         29.2307         14.4808 
       0.871341         29.1185         14.2465 
       0.877463         28.5269         14.0185 
       0.883569         28.2725         13.7962 
       0.889708         28.0266         13.5775 
       0.895864         27.7329          13.363 
       0.902008         27.4856         13.1537 
       0.908149         27.2126          12.949 
       0.914301         27.1022         12.7484 
       0.920448         26.7096         12.5522 
       0.926574         26.4225         12.3609 
       0.932687         26.1774          12.174 
       0.938823         25.8031         11.9903 
       0.944975         25.6736         11.8101 
       0.951105         25.4053         11.6342 
       0.957225         25.0867         11.4622 
       0.963368         25.0789         11.2932 
       0.969511         24.7791         11.1276 
       0.975621         24.5868         10.9662 
       0.981748         24.2231         10.8077 
       0.987916         24.0802         10.6513 
        0.99406         23.8705         10.4986 
        1.00019         23.5914         10.3492 
        1.00632         23.4323          10.203 
        1.01246         23.3324         10.0593 
        1.01859         22.9344         9.91866 
        1.02471         22.8983         9.78091 
        1.03085         22.6882         9.64533 
        1.03698         22.3387         9.51262 
        1.04314         22.2098         9.38187 
        1.04929         22.0057          9.2539 
        1.05541         21.7798         9.12885 
        1.06154         21.6973         9.00582 
        1.06769         21.5336         8.88489 
        1.07382         21.3283         8.76659 
        1.07993         21.2069         8.65072 
        1.08607         20.9361         8.53648 
        1.09222         20.8503         8.42421 
        1.09836         20.6314          8.3141 
        1.10449         20.4807         8.20609 
        1.11063         20.2187          8.0999 
        1.11677         20.1569         7.99564 
         1.1229         20.0352         7.89341 
        1.12903         19.7883         7.79288 
        1.13518          19.679         7.69403 
        1.14131         19.5916         7.59697 
        1.14745         19.3676         7.50164 
        1.15359         19.3216         7.40793 
        1.15973         19.0854          7.3158 
        1.16584         18.8922         7.22566 
        1.17197         18.8889         7.13691 
        1.17811         18.6431         7.04939 
        1.18424         18.5012         6.96361 
        1.19038         18.4496         6.87901 
        1.19652         18.3351         6.79586 
        1.20267          18.192          6.7141 
        1.20881         18.0187          6.6337 
        1.21495         17.9196         6.55476 
        1.22108         17.7785         6.47712 
         1.2272         17.6123         6.40094 
        1.23334         17.5534         6.32581 
        1.23949         17.4096         6.25172 
        1.24562         17.2942         6.17903 
        1.25174         17.2047         6.10761 
        1.25789         17.0488         6.03711 
        1.26402          16.976         5.96786 
        1.27014         16.7792         5.89987 
        1.27628         16.6899         5.83274 
        1.28244         16.6187         5.76654 
        1.28858         16.5341         5.70145 
        1.29471          16.407         5.63753 
        1.30084         16.2895         5.57465 
        1.30697         16.1869         5.51264 
        1.31312         16.0251         5.45148 
        1.31925         15.9393         5.39146 
        1.32537         15.8832          5.3324 
        1.33151         15.7572         5.27401 
        1.33765         15.6921         5.21654 
        1.34378         15.5794         5.16004 
        1.34992          15.414         5.10434 
        1.35606         15.3817         5.04935 
         1.3622         15.2896         4.99527 
        1.36833         15.1531         4.94212 
        1.37445          15.144         4.88977 
        1.38059         14.9972         4.83802 
        1.38675         14.8243          4.7869 
        1.39288         14.8175         4.73673 
        1.39901         14.7034          4.6873 
        1.40515         14.6491         4.63847 
         1.4113         14.5418         4.59036 
        1.41742         14.4125         4.54312 
        1.42355         14.3879         4.49646 
         1.4297         14.3171         4.45031 
        1.43585         14.2409         4.40483 
        1.44198         14.1287         4.36017 
        1.44809         14.0332         4.31621 
        1.45423         13.9685          4.2727 
        1.46036         13.9097         4.22987 
        1.46649         13.8294         4.18762 
        1.47263         13.7145         4.14591 
        1.47877         13.6558         4.10479 
        1.48491         13.6198         4.06417 
        1.49104         13.5464         4.02419 
        1.49718         13.4233         3.98471 
        1.50333         13.3824         3.94571 
        1.50947         13.3059         3.90731 
         1.5156         13.2107         3.86948 
        1.52172         13.1404         3.83216 
        1.52787         13.1018         3.79525 
          1.534         12.9939         3.75888 
        1.54013         12.8965         3.72302 
        1.54627         12.8447         3.68757 
        1.55241         12.7761         3.65258 
        1.55855         12.6966         3.61809 
        1.56467         12.6382         3.58415 
         1.5708         12.6208         3.55054 
        1.57695         12.5009         3.51732 
        1.58308         12.4836         3.48461 
        1.58922         12.4095         3.45228 
        1.59535         12.3207         3.42038 
         1.6015         12.2567         3.38885 
        1.60764         12.2223         3.35772 
        1.61376         12.1216         3.32708 
        1.61989         12.0521         3.29679 
        1.62604         12.0405         3.26682 
        1.63218         11.9616         3.23724 
        1.63831         11.9247         3.20809 
        1.64444         11.8128         3.17929 
        1.65059         11.7603         3.15078 
        1.65673         11.7247         3.12265 
        1.66285         11.6448         3.09494 
        1.66898         11.6297         3.06756 
        1.67512         11.5654         3.04046 
        1.68127         11.5112         3.01367 
         1.6874         11.4282         2.98726 
        1.69353         11.3595         2.96118 
        1.69967         11.3207         2.93535 
        1.70581         11.2814         2.90985 
        1.71193         11.2156         2.88474 
        1.71806         11.1536         2.85988 
        1.72421         11.1037         2.83526 
        1.73035         11.0369         2.81096 
        1.73649         11.0113         2.78696 
        1.74262         10.9891         2.76325 
        1.74876         10.9205         2.73981 
        1.75489         10.8668         2.71668 
        1.76101         10.7891         2.69383 
        1.76715         10.7725         2.67122 
        1.77329         10.6963         2.64884 
        1.77943          10.648          2.6267 
        1.78557          10.626         2.60485 
        1.79171         10.5769         2.58325 
        1.79785         10.4872         2.56189 
        1.80399         10.4615         2.54077 
        1.81012         10.4469         2.51993 
        1.81625         10.3749         2.49932 
        1.82239         10.3372         2.47892 
        1.82853         10.2598         2.45876 
        1.83466          10.201         2.43884 
        1.84078         10.1619         2.41916 
        1.84692         10.1497         2.39967 
        1.85306         10.0807         2.38037 
         1.8592         10.0467         2.36132 
        1.86533         10.0208         2.34248 
        1.87147         9.96383         2.32383 
        1.87761         9.93627         2.30538 
        1.88375          9.8566         2.28714 
        1.88988         9.82703         2.26913 
        1.89601         9.79325          2.2513 
        1.90215         9.74262         2.23365 
        1.90829         9.70576         2.21619 
        1.91442         9.66886         2.19892 
        1.92056         9.62295         2.18186 
         1.9267         9.58056         2.16495 
        1.93284         9.53125         2.14822 
        1.93897         9.49416         2.13169 
        1.94509         9.44615         2.11537 
        1.95123         9.42281         2.09919 
        1.95737          9.3915         2.08316 
        1.96349         9.34454         2.06734 
        1.96964          9.2903         2.05164 
        1.97578         9.25554          2.0361 
        1.98192         9.21911         2.02075 
        1.98805         9.19656         2.00556 
        1.99419         9.13369         1.99052 
        2.00033         9.09725         1.97563 
        2.00647         9.06348          1.9609 
         2.0126         9.04203         1.94634 
        2.01874         8.97859         1.93191 
        2.02488         8.93843         1.91762 
        2.03101          8.9299         1.90349 
        2.03714         8.89642         1.88952 
        2.04328         8.84352         1.87568 
        2.04941         8.79186         1.86199 
        2.05554         8.78878         1.84844 
        2.06167         8.73712         1.83501 
        2.06781         8.72169         1.82171 
        2.07396         8.69753         1.80853 
        2.08009         8.65577         1.79549 
        2.08622         8.57608         1.78261 
        2.09237         8.58289         1.76982 
        2.09851         8.54171         1.75716 
        2.10464         8.50477         1.74464 
        2.11077         8.45423         1.73226 
        2.11691          8.4333         1.71998 
        2.12305         8.41908         1.70781 
        2.12918         8.35982         1.69579 
        2.13531         8.34324         1.68388 
        2.14145         8.30149         1.67207 
         2.1476         8.29823         1.66035 
        2.15372         8.24831          1.6488 
        2.15985         8.20093         1.63736 
        2.16599         8.19473         1.62598 
        2.17213         8.15063         1.61473 
        2.17827         8.13061         1.60359 
         2.1844         8.09169         1.59257 
        2.19054         8.05827         1.58164 
        2.19666          8.0441         1.57083 
         2.2028         8.00881         1.56012 
        2.20893         7.97856          1.5495 
        2.21508         7.92888         1.53896 
        2.22122         7.90316         1.52852 
        2.22736         7.88509          1.5182 
        2.23349         7.83977         1.50798 
        2.23962         7.81728         1.49785 
        2.24577         7.79032          1.4878 
         2.2519         7.77537         1.47786 
        2.25802         7.73647         1.46802 
        2.26417         7.71803         1.45825 
        2.27031          7.6594         1.44856 
        2.27644         7.65048         1.43898 
        2.28257          7.6211         1.42949 
        2.28872         7.60114         1.42007 
        2.29486         7.56929         1.41074 
        2.30099         7.56264         1.40151 
        2.30712         7.51322         1.39236 
        2.31326         7.49124         1.38327 
         2.3194         7.46251         1.37427 
        2.32553         7.43097         1.36537 
        2.33166         7.39492         1.35655 
         2.3378         7.37868         1.34779 
        2.34394         7.36068         1.33911 
        2.35007         7.31909         1.33052 
        2.35619         7.28473         1.32202 
        2.36233         7.26827         1.31357 
        2.36848         7.26104         1.30518 
        2.37462         7.23279         1.29687 
        2.38075         7.18543         1.28865 
        2.38689         7.16569         1.28049 
        2.39303         7.14061         1.27241 
        2.39916         7.13461          1.2644 
        2.40529         7.09651         1.25646 
        2.41143         7.08316         1.24859 
        2.41757         7.05357         1.24078 
         2.4237         7.03328         1.23305 
        2.42983         6.99208         1.22539 
        2.43598         6.99494         1.21777 
        2.44211         6.95868         1.21023 
        2.44823         6.92576         1.20277 
        2.45437         6.92164         1.19535 
        2.46052         6.87595         1.18799 
        2.46665         6.85041         1.18071 
        2.47279         6.82525         1.17349 
        2.47892         6.81525         1.16632 
        2.48507         6.78344         1.15921 
         2.4912         6.77077         1.15217 
