# k  (h/Mpc)    Pcb(k)  (Mpc/h)^3    Pcb_linear(k)  (Mpc/h)^3
     0.00783031         18931.2         19222.3 
       0.013688         22355.2         22127.4 
       0.019231         20991.5         20911.5 
      0.0249154         17613.6         17964.5 
      0.0312784         14238.1         14344.1 
      0.0375637         11485.2         11407.8 
      0.0433917         9428.15         9516.79 
      0.0492413         8340.79          8329.2 
      0.0555754         7402.71          7579.2 
      0.0619321         7141.16         7074.93 
       0.067871         6464.48         6600.93 
      0.0738098         5900.58          6012.4 
      0.0800417         5148.55          5276.9 
      0.0862327         4497.11         4519.18 
      0.0921407         3966.37         3873.76 
      0.0982031          3437.6         3358.95 
       0.104506         3182.54         2999.67 
       0.110769         2947.04         2790.67 
       0.116806         2805.52         2675.09 
       0.122832         2696.49         2585.38 
       0.129052         2510.95         2470.02 
       0.135211         2361.92         2308.64 
       0.141259         2225.01         2109.76 
       0.147318         2051.65         1895.49 
       0.153489         1844.65         1692.59 
       0.159709         1717.72         1526.92 
       0.165845          1633.5            1410 
       0.171974         1547.94         1334.33 
       0.178125         1478.97         1285.82 
       0.184229         1418.86         1247.91 
        0.19034         1341.66         1205.39 
       0.196428         1308.44         1150.09 
       0.202534         1253.76         1081.11 
       0.208729         1182.27         1003.37 
       0.214876         1121.58         927.467 
       0.220989         1073.07         860.937 
       0.227147         1025.43         807.232 
        0.23329          981.06         767.165 
       0.239377         961.251         737.819 
       0.245482         898.679         714.064 
       0.251667         893.505         690.934 
       0.257832         856.749         665.401 
       0.263955          826.88         636.356 
       0.270079         793.324         604.445 
        0.27624         781.826         571.729 
       0.282372         749.612         540.956 
        0.28843          735.79         514.123 
       0.294538         696.903         491.359 
       0.300721         691.842         472.337 
        0.30691         663.103         456.199 
       0.313033         649.386         441.629 
       0.319153         632.231         427.226 
       0.325316         613.556         412.111 
        0.33145         596.288         396.364 
       0.337538         585.015         380.415 
       0.343633         568.967         364.768 
       0.349808         547.539         349.904 
       0.355968         542.953         336.441 
       0.362074         535.819         324.581 
       0.368217         519.352         313.903 
       0.374374         497.209         304.123 
       0.380519         495.936         294.857 
       0.386598         481.658         285.845 
       0.392688         478.618         276.841 
        0.39888         464.487         267.676 
       0.405048         456.032          258.68 
       0.411186          448.89         250.048 
       0.417313         439.649          241.88 
       0.423458         429.832          234.24 
       0.429607         424.258         227.156 
       0.435692         413.397         220.602 
       0.441815          409.02         214.365 
       0.447964         400.329         208.357 
       0.454126         393.383         202.492 
       0.460267         384.807         196.758 
       0.466387         379.699         191.175 
        0.47254         374.469         185.716 
       0.478662         371.984         180.474 
       0.484765         358.444         175.476 
       0.490885         355.303         170.716 
       0.497035         348.415          166.17 
       0.503198         344.455         161.823 
       0.509342         342.084         157.666 
       0.515458         337.861         153.678 
       0.521598         328.648         149.795 
       0.527764         324.631         145.998 
       0.533884          321.55         142.334 
           0.54         316.988         138.785 
       0.546137          315.35         135.348 
       0.552299         309.287         132.023 
       0.558452          307.46         128.828 
       0.564573         303.211         125.767 
       0.570708         297.388         122.812 
       0.576825         291.784          119.97 
       0.582926         289.768         117.227 
       0.589034         286.799         114.562 
       0.595184         284.695         111.953 
       0.601379          279.29         109.401 
       0.607522         275.963         106.947 
       0.613639         274.246          104.58 
       0.619772         269.138         102.282 
       0.625918         267.755         100.054 
       0.632068         263.146         97.8931 
       0.638161         261.945         95.8177 
         0.6443         257.897         93.7888 
       0.650464         255.488          91.812 
       0.656582         252.222         89.9067 
       0.662703         252.192          88.055 
       0.668861         248.116         86.2449 
       0.675024          245.01         84.4839 
       0.681124         243.026         82.7896 
       0.687237         240.602         81.1386 
       0.693381         236.849         79.5252 
       0.699536         234.543         77.9536 
       0.705665         232.473         76.4321 
       0.711789         231.238         74.9537 
       0.717957         229.803         73.5051 
        0.72409         227.464         72.1036 
       0.730186         224.517         70.7476 
       0.736317         222.232         69.4195 
       0.742472         220.489         68.1207 
       0.748622         218.835         66.8565 
        0.75476         216.408         65.6273 
       0.760888         214.161          64.431 
       0.767043         213.754           63.26 
       0.773185         211.735         62.1209 
       0.779291          208.04         61.0166 
       0.785407          207.59         59.9378 
       0.791564         205.503         58.8787 
       0.797719         202.803         57.8461 
       0.803834         201.256          56.845 
       0.809972         200.633         55.8643 
       0.816124         199.523         54.9049 
       0.822261         198.041         53.9709 
       0.828378         195.799         53.0616 
       0.834502         194.415         52.1726 
       0.840667         192.602         51.2985 
       0.846816         191.245         50.4471 
       0.852925         190.162         49.6205 
       0.859047         188.623         48.8108 
       0.865192         186.155         48.0167 
       0.871341         184.733         47.2399 
       0.877463          184.06         46.4839 
       0.883569         183.132         45.7465 
       0.889708         180.786         45.0214 
       0.895864         179.687         44.3103 
       0.902008         178.221         43.6162 
       0.908149         177.447         42.9375 
       0.914301         175.195         42.2722 
       0.920448         174.313         41.6217 
       0.926574         172.795         40.9874 
       0.932687         172.836         40.3677 
       0.938823         170.515         39.7587 
       0.944975         169.758         39.1609 
       0.951105         168.587         38.5777 
       0.957225         167.644         38.0075 
       0.963368         165.145          37.447 
       0.969511          164.62         36.8978 
       0.975621         163.097         36.3628 
       0.981748         162.927          35.837 
       0.987916         161.455         35.3185 
        0.99406         160.189         34.8122 
        1.00019          159.69         34.3169 
        1.00632         158.305         33.8319 
        1.01246         157.166         33.3555 
        1.01859         157.071         32.8892 
        1.02471          154.77         32.4324 
        1.03085         153.669         31.9828 
        1.03698         152.915         31.5428 
        1.04314         151.439         31.1092 
        1.04929         151.005         30.6849 
        1.05541         150.423         30.2703 
        1.06154         148.971         29.8623 
        1.06769         148.691         29.4613 
        1.07382         147.264          29.069 
        1.07993         146.333         28.6848 
        1.08607         145.802          28.306 
        1.09222         144.799         27.9337 
        1.09836         143.681         27.5686 
        1.10449         142.267         27.2105 
        1.11063         141.458         26.8584 
        1.11677         140.789         26.5127 
         1.1229          139.69         26.1737 
        1.12903         139.307         25.8403 
        1.13518         138.519         25.5126 
        1.14131         137.165         25.1907 
        1.14745         137.093         24.8746 
        1.15359         135.771         24.5639 
        1.15973         134.911         24.2584 
        1.16584         134.027         23.9595 
        1.17197         133.563         23.6652 
        1.17811         132.327          23.375 
        1.18424         131.967         23.0905 
        1.19038         131.645           22.81 
        1.19652         130.519         22.5343 
        1.20267         129.739         22.2632 
        1.20881         128.981         21.9966 
        1.21495         127.855         21.7349 
        1.22108         127.306         21.4774 
         1.2272         126.309         21.2248 
        1.23334         126.026         20.9757 
        1.23949         125.074           20.73 
        1.24562         124.342          20.489 
        1.25174         123.896         20.2521 
        1.25789         123.041         20.0184 
        1.26402         121.658         19.7887 
        1.27014         121.075         19.5633 
        1.27628         120.829         19.3407 
        1.28244          120.54         19.1212 
        1.28858         119.528         18.9054 
        1.29471         118.549         18.6934 
        1.30084         118.485         18.4849 
        1.30697         117.075         18.2793 
        1.31312         116.635         18.0765 
        1.31925         115.877         17.8775 
        1.32537         115.568         17.6816 
        1.33151         114.711          17.488 
        1.33765         113.912         17.2975 
        1.34378         113.509         17.1101 
        1.34992         113.099         16.9254 
        1.35606         112.683         16.7431 
         1.3622          111.56         16.5638 
        1.36833         110.896         16.3875 
        1.37445         110.549         16.2139 
        1.38059         109.592         16.0423 
        1.38675         109.048         15.8728 
        1.39288         108.775         15.7065 
        1.39901         108.342         15.5426 
        1.40515         107.294         15.3807 
         1.4113         107.052         15.2211 
        1.41742         106.146         15.0645 
        1.42355          105.73         14.9097 
         1.4297         105.195         14.7567 
        1.43585         104.462         14.6059 
        1.44198         104.048         14.4578 
        1.44809         103.663         14.3121 
        1.45423         103.217         14.1678 
        1.46036         102.402         14.0258 
        1.46649          101.79         13.8857 
        1.47263         101.083         13.7474 
        1.47877         100.584          13.611 
        1.48491         99.9261         13.4763 
        1.49104          99.766         13.3437 
        1.49718         99.1267         13.2129 
        1.50333         98.5147         13.0835 
        1.50947         97.9982         12.9562 
         1.5156         97.6424         12.8308 
        1.52172         97.1569          12.707 
        1.52787         96.4442         12.5846 
          1.534         96.0247          12.464 
        1.54013         95.5911         12.3451 
        1.54627         95.1395         12.2276 
        1.55241         94.5581         12.1115 
        1.55855         93.9601         11.9972 
        1.56467         93.6205         11.8846 
         1.5708         92.8971         11.7732 
        1.57695         92.7047          11.663 
        1.58308         92.2614         11.5546 
        1.58922         91.8218         11.4474 
        1.59535         91.2463         11.3416 
         1.6015         90.9858          11.237 
        1.60764         90.3643         11.1338 
        1.61376          89.954         11.0322 
        1.61989         89.5127         10.9318 
        1.62604         88.9133         10.8324 
        1.63218         88.8347         10.7343 
        1.63831         88.0125         10.6377 
        1.64444         87.6056         10.5422 
        1.65059         87.0717         10.4476 
        1.65673         86.6743         10.3543 
        1.66285         86.3739         10.2625 
        1.66898         85.9735         10.1717 
        1.67512         85.2303         10.0818 
        1.68127         85.0442         9.99298 
         1.6874         84.4466         9.90541 
        1.69353         84.1414         9.81893 
        1.69967          83.879         9.73329 
        1.70581          83.274         9.64872 
        1.71193         82.7827         9.56547 
        1.71806         82.5694         9.48303 
        1.72421          82.043          9.4014 
        1.73035          81.681         9.32084 
        1.73649         81.3529         9.24123 
        1.74262         80.7611         9.16263 
        1.74876         80.4946         9.08489 
        1.75489         79.9904         9.00821 
        1.76101         79.5486         8.93245 
        1.76715         79.0809         8.85746 
        1.77329         78.8518         8.78324 
        1.77943         78.2893         8.70984 
        1.78557         78.1946         8.63739 
        1.79171         77.3857         8.56576 
        1.79785         77.0473         8.49492 
        1.80399          76.742         8.42491 
        1.81012         76.4597         8.35579 
        1.81625         76.1062         8.28747 
        1.82239         75.6501         8.21982 
        1.82853         75.3876         8.15296 
        1.83466          75.007         8.08691 
        1.84078         74.5296         8.02166 
        1.84692         74.2151         7.95703 
        1.85306         73.8751         7.89304 
         1.8592          73.613         7.82986 
        1.86533         73.1336          7.7674 
        1.87147          72.652         7.70556 
        1.87761         72.4073         7.64436 
        1.88375         72.0926         7.58391 
        1.88988         71.6894         7.52417 
        1.89601          71.378         7.46505 
        1.90215         70.8019         7.40651 
        1.90829         70.6256         7.34864 
        1.91442         70.3214         7.29138 
        1.92056         69.8847         7.23478 
         1.9267         69.6027         7.17873 
        1.93284         69.2727         7.12323 
        1.93897         68.8517         7.06844 
        1.94509         68.6717         7.01434 
        1.95123         68.2361         6.96067 
        1.95737         67.9161         6.90752 
        1.96349          67.545         6.85507 
        1.96964          67.133         6.80301 
        1.97578         66.8544         6.75147 
        1.98192         66.8063         6.70058 
        1.98805         66.1797          6.6502 
        1.99419         65.9478         6.60034 
        2.00033         65.7157         6.55097 
        2.00647         65.3019         6.50212 
         2.0126         65.0279         6.45385 
        2.01874         64.5466           6.406 
        2.02488         64.4656          6.3586 
        2.03101         64.0121         6.31176 
        2.03714          63.612         6.26544 
        2.04328         63.3528         6.21953 
        2.04941          63.073         6.17413 
        2.05554          62.843         6.12921 
        2.06167         62.5683         6.08467 
        2.06781         62.0856         6.04058 
        2.07396         61.8345         5.99686 
        2.08009         61.6421         5.95365 
        2.08622         61.2922         5.91091 
        2.09237           61.06         5.86852 
        2.09851         60.8041         5.82653 
        2.10464         60.4183         5.78503 
        2.11077          60.182         5.74398 
        2.11691          59.833         5.70324 
        2.12305         59.5794         5.66289 
        2.12918         59.2868         5.62304 
        2.13531         58.8526         5.58356 
        2.14145         58.6791         5.54438 
         2.1476          58.365         5.50552 
        2.15372          58.182         5.46724 
        2.15985         57.7978         5.42928 
        2.16599         57.5675         5.39157 
        2.17213         57.2661         5.35427 
        2.17827         56.9932         5.31732 
         2.1844         56.7514         5.28076 
        2.19054          56.507         5.24453 
        2.19666         56.3219          5.2087 
         2.2028         56.0605         5.17316 
        2.20893         55.6478         5.13795 
        2.21508         55.5176         5.10302 
        2.22122         55.1505          5.0684 
        2.22736         54.9834         5.03418 
        2.23349         54.6867         5.00029 
        2.23962         54.3966         4.96669 
        2.24577         54.0852         4.93336 
         2.2519         53.9155          4.9004 
        2.25802         53.6261         4.86779 
        2.26417         53.3858         4.83538 
        2.27031         53.1698         4.80324 
        2.27644         52.8126         4.77149 
        2.28257          52.655         4.74002 
        2.28872         52.3423         4.70879 
        2.29486         52.1071         4.67784 
        2.30099          51.774         4.64723 
        2.30712         51.6206         4.61688 
        2.31326         51.2961         4.58676 
         2.3194         51.1253         4.55692 
        2.32553         50.8806          4.5274 
        2.33166         50.5772         4.49815 
         2.3378          50.361         4.46912 
        2.34394         50.0847         4.44034 
        2.35007         49.8716         4.41186 
        2.35619         49.7073         4.38366 
        2.36233         49.4497         4.35564 
        2.36848         49.2084          4.3278 
        2.37462         48.9644         4.30027 
        2.38075         48.7677         4.27301 
        2.38689         48.5482         4.24596 
        2.39303         48.2908         4.21915 
        2.39916         48.0527          4.1926 
        2.40529         47.9306         4.16628 
        2.41143         47.6388         4.14017 
        2.41757         47.4524         4.11427 
         2.4237         47.1873         4.08864 
        2.42983         46.9995         4.06323 
        2.43598         46.7058         4.03797 
        2.44211         46.4922         4.01297 
        2.44823         46.3546         3.98824 
        2.45437         46.1206         3.96364 
        2.46052         45.9567         3.93924 
        2.46665          45.717         3.91508 
        2.47279         45.4211         3.89114 
        2.47892         45.3153         3.86738 
        2.48507         44.9774          3.8438 
         2.4912         44.8519         3.82046 
