# k  (h/Mpc)    Pcb(k)  (Mpc/h)^3    Pcb_linear(k)  (Mpc/h)^3
     0.00783031         9180.98         9302.86 
       0.013688         10755.7         10694.9 
       0.019231         10134.6         10104.7 
      0.0249154         8570.59         8679.98 
      0.0312784         6910.86         6930.51 
      0.0375637          5547.6          5511.7 
      0.0433917          4577.9         4598.05 
      0.0492413         4034.53         4024.26 
      0.0555754         3610.62          3661.9 
      0.0619321         3450.57         3418.26 
       0.067871         3152.31         3189.25 
      0.0738098         2873.52          2904.9 
      0.0800417         2510.55         2549.55 
      0.0862327          2178.4         2183.45 
      0.0921407         1898.04         1871.62 
      0.0982031         1640.14         1622.88 
       0.104506          1502.7          1449.3 
       0.110769         1392.77         1348.32 
       0.116806         1322.65         1292.48 
       0.122832         1279.63         1249.13 
       0.129052         1200.67          1193.4 
       0.135211         1126.88         1115.43 
       0.141259          1050.2         1019.34 
       0.147318         958.666         915.813 
       0.153489         857.559         817.785 
       0.159709          789.51         737.737 
       0.165845         743.288         681.246 
       0.171974         699.322         644.686 
       0.178125         672.625         621.249 
       0.184229         650.202         602.935 
        0.19034         612.329         582.392 
       0.196428          596.81         555.671 
       0.202534         571.667         522.343 
       0.208729         533.597         484.786 
       0.214876         497.976         448.111 
       0.220989         473.234         415.966 
       0.227147         446.448         390.018 
        0.23329         426.373          370.66 
       0.239377         415.676         356.481 
       0.245482         389.251         345.004 
       0.251667         385.307         333.829 
       0.257832         371.742         321.492 
       0.263955         357.277         307.459 
       0.270079         341.264         292.041 
        0.27624         333.446         276.234 
       0.282372           319.4         261.366 
        0.28843         306.882         248.402 
       0.294538         292.026         237.403 
       0.300721          288.22         228.212 
        0.30691         274.942         220.415 
       0.313033         268.544         213.376 
       0.319153         257.969         206.417 
       0.325316         251.622         199.114 
        0.33145         242.415         191.506 
       0.337538          238.02           183.8 
       0.343633          229.29          176.24 
       0.349808         221.321         169.058 
       0.355968         217.399         162.554 
       0.362074         211.764         156.823 
       0.368217         205.629         151.664 
       0.374374         198.149         146.939 
       0.380519         195.108         142.462 
       0.386598         189.865         138.108 
       0.392688         186.841         133.757 
        0.39888         181.867         129.329 
       0.405048         177.015         124.983 
       0.411186         173.048         120.812 
       0.417313         169.172         116.866 
       0.423458         165.341         113.174 
       0.429607          161.56         109.752 
       0.435692         156.413         106.585 
       0.441815             155         103.572 
       0.447964         151.946         100.669 
       0.454126         145.576         97.8353 
       0.460267         143.781         95.0648 
       0.466387         141.716         92.3672 
        0.47254         138.391         89.7298 
       0.478662          137.41         87.1973 
       0.484765         132.835         84.7823 
       0.490885         130.732         82.4826 
       0.497035          128.89         80.2862 
       0.503198         125.393         78.1858 
       0.509342         123.384         76.1775 
       0.515458         121.484         74.2503 
       0.521598         119.289         72.3744 
       0.527764         117.694         70.5401 
       0.533884           115.9         68.7694 
           0.54         113.629         67.0551 
       0.546137          112.57         65.3942 
       0.552299         110.523         63.7879 
       0.558452         108.471          62.244 
       0.564573         106.633         60.7651 
       0.570708         104.698         59.3376 
       0.576825         103.448         57.9645 
       0.582926         101.277         56.6391 
       0.589034           99.85         55.3513 
       0.595184         98.4818         54.0909 
       0.601379         97.0601         52.8579 
       0.607522         95.0153         51.6722 
       0.613639          94.502         50.5284 
       0.619772         92.5109         49.4184 
       0.625918         91.3043         48.3416 
       0.632068         90.2756         47.2977 
       0.638161         89.2829         46.2949 
         0.6443         88.0955         45.3147 
       0.650464         87.1008         44.3595 
       0.656582         85.6255          43.439 
       0.662703         84.3094         42.5443 
       0.668861         83.0736         41.6698 
       0.675024          82.176         40.8189 
       0.681124         81.3341         40.0003 
       0.687237         79.7577         39.2026 
       0.693381         78.7542         38.4231 
       0.699536         78.0106         37.6638 
       0.705665         77.9839         36.9287 
       0.711789         76.0581         36.2143 
       0.717957         75.6097         35.5145 
        0.72409         74.3937         34.8373 
       0.730186         73.2245         34.1822 
       0.736317         72.9419         33.5405 
       0.742472         72.1811          32.913 
       0.748622         71.2839         32.3021 
        0.75476         70.5671         31.7082 
       0.760888         69.5496         31.1302 
       0.767043         68.9719         30.5645 
       0.773185         68.1374         30.0141 
       0.779291         67.3814         29.4805 
       0.785407         66.8622         28.9593 
       0.791564         66.2579         28.4476 
       0.797719         65.0171         27.9487 
       0.803834         64.7333          27.465 
       0.809972         63.6807         26.9912 
       0.816124         63.2941         26.5277 
       0.822261         62.7737         26.0764 
       0.828378         62.2959          25.637 
       0.834502         61.6335         25.2075 
       0.840667          60.934         24.7852 
       0.846816         60.1053         24.3738 
       0.852925         59.6792         23.9744 
       0.859047         58.8819         23.5833 
       0.865192         58.5247         23.1996 
       0.871341         58.1436         22.8243 
       0.877463         57.1846          22.459 
       0.883569         56.8604         22.1027 
       0.889708         56.4212         21.7524 
       0.895864         55.9754         21.4088 
       0.902008         55.4166         21.0734 
       0.908149         55.0138         20.7455 
       0.914301         54.4849         20.4241 
       0.920448         54.0611         20.1098 
       0.926574         53.4609         19.8033 
       0.932687         53.3133         19.5039 
       0.938823         52.4725         19.2097 
       0.944975         52.0757         18.9209 
       0.951105         51.6434         18.6391 
       0.957225         51.0398         18.3636 
       0.963368         50.9139         18.0927 
       0.969511         50.5472         17.8274 
       0.975621         50.2232         17.5689 
       0.981748         49.6288         17.3149 
       0.987916         49.2109         17.0643 
        0.99406         48.9154         16.8197 
        1.00019         48.4414         16.5805 
        1.00632         48.1308         16.3461 
        1.01246         47.7944         16.1159 
        1.01859         47.1448         15.8906 
        1.02471         47.0711         15.6699 
        1.03085         46.6445         15.4527 
        1.03698         46.2576         15.2401 
        1.04314         45.8852         15.0306 
        1.04929         45.5337         14.8256 
        1.05541         45.0618         14.6253 
        1.06154         45.0633         14.4282 
        1.06769         44.6107         14.2344 
        1.07382          44.386         14.0449 
        1.07993         44.0806         13.8593 
        1.08607         43.7143         13.6762 
        1.09222         43.4577         13.4964 
        1.09836         43.0875           13.32 
        1.10449         42.8341         13.1469 
        1.11063         42.3845         12.9768 
        1.11677         42.1431         12.8098 
         1.1229         41.8316          12.646 
        1.12903         41.3116         12.4849 
        1.13518         41.4988         12.3266 
        1.14131         41.1543         12.1711 
        1.14745         40.6296         12.0183 
        1.15359         40.5651         11.8682 
        1.15973          40.082         11.7206 
        1.16584         39.9039         11.5762 
        1.17197         39.6571          11.434 
        1.17811           39.48         11.2938 
        1.18424         39.0863         11.1564 
        1.19038         38.8515         11.0208 
        1.19652         38.7776         10.8876 
        1.20267         38.4029         10.7566 
        1.20881         38.1953         10.6278 
        1.21495         37.8624         10.5013 
        1.22108         37.7238          10.377 
         1.2272         37.2936         10.2549 
        1.23334         37.1584         10.1345 
        1.23949         37.1344         10.0158 
        1.24562         36.6745         9.89938 
        1.25174         36.5895         9.78496 
        1.25789         36.4016         9.67201 
        1.26402         36.0623         9.56106 
        1.27014         35.7682         9.45214 
        1.27628         35.5907         9.34459 
        1.28244         35.4233         9.23853 
        1.28858         35.2525         9.13426 
        1.29471         35.0995         9.03185 
        1.30084         34.8992         8.93111 
        1.30697         34.6543         8.83176 
        1.31312         34.3853         8.73379 
        1.31925         34.2425         8.63762 
        1.32537         34.0765           8.543 
        1.33151         33.7721         8.44946 
        1.33765         33.6955         8.35739 
        1.34378         33.4736         8.26687 
        1.34992         33.2391         8.17764 
        1.35606         33.0594         8.08954 
         1.3622         32.8929          8.0029 
        1.36833         32.6532         7.91774 
        1.37445         32.5787         7.83387 
        1.38059         32.3473         7.75097 
        1.38675         32.0683         7.66907 
        1.39288         32.0532         7.58869 
        1.39901         31.8029          7.5095 
        1.40515         31.6228         7.43127 
         1.4113         31.4845         7.35419 
        1.41742         31.2923          7.2785 
        1.42355         31.1152         7.20374 
         1.4297         30.9787         7.12981 
        1.43585         30.8793         7.05696 
        1.44198         30.5702          6.9854 
        1.44809          30.508         6.91498 
        1.45423         30.3248         6.84527 
        1.46036           30.25         6.77665 
        1.46649         30.0207         6.70896 
        1.47263          29.846         6.64214 
        1.47877         29.7482         6.57626 
        1.48491         29.7165         6.51118 
        1.49104         29.4152         6.44712 
        1.49718         29.1425         6.38388 
        1.50333         29.1593          6.3214 
        1.50947          29.026         6.25988 
         1.5156         28.8386         6.19927 
        1.52172         28.7116         6.13948 
        1.52787         28.6191         6.08035 
          1.534         28.4489         6.02208 
        1.54013         28.2382         5.96463 
        1.54627         28.1692         5.90784 
        1.55241         27.9021         5.85177 
        1.55855          27.871         5.79652 
        1.56467         27.6071         5.74214 
         1.5708         27.6678          5.6883 
        1.57695         27.4061         5.63508 
        1.58308         27.2963         5.58266 
        1.58922         27.2364         5.53088 
        1.59535         27.0833         5.47978 
         1.6015         26.8799         5.42925 
        1.60764         26.7483         5.37939 
        1.61376         26.5977         5.33029 
        1.61989         26.4713         5.28177 
        1.62604          26.412         5.23375 
        1.63218          26.316         5.18635 
        1.63831         26.1396         5.13966 
        1.64444         26.0349         5.09352 
        1.65059         25.8853         5.04784 
        1.65673         25.7288         5.00278 
        1.66285         25.6675         4.95839 
        1.66898          25.515         4.91452 
        1.67512         25.4229         4.87111 
        1.68127         25.2611         4.82818 
         1.6874         25.1516         4.78587 
        1.69353         25.0634         4.74409 
        1.69967         24.9239         4.70271 
        1.70581          24.835         4.66184 
        1.71193         24.7561         4.62162 
        1.71806         24.5516         4.58179 
        1.72421         24.4485         4.54235 
        1.73035         24.3236         4.50343 
        1.73649         24.2491         4.46497 
        1.74262         24.1312         4.42699 
        1.74876         24.0984         4.38943 
        1.75489         23.9512         4.35238 
        1.76101         23.8146         4.31577 
        1.76715         23.7407         4.27954 
        1.77329         23.6809         4.24368 
        1.77943         23.5498         4.20822 
        1.78557         23.3709         4.17322 
        1.79171         23.2933          4.1386 
        1.79785         23.1802         4.10438 
        1.80399         23.1367         4.07056 
        1.81012         23.0062         4.03716 
        1.81625         22.9274         4.00415 
        1.82239         22.8215         3.97146 
        1.82853         22.6899         3.93916 
        1.83466         22.6249         3.90725 
        1.84078         22.4373         3.87572 
        1.84692         22.3863          3.8445 
        1.85306         22.2939         3.81358 
         1.8592         22.1777         3.78305 
        1.86533         22.0925         3.75288 
        1.87147         22.0203           3.723 
        1.87761         21.9512         3.69343 
        1.88375         21.8695         3.66422 
        1.88988         21.7601         3.63536 
        1.89601         21.6457         3.60679 
        1.90215         21.5592         3.57851 
        1.90829         21.5196         3.55055 
        1.91442         21.3832         3.52288 
        1.92056         21.3075         3.49554 
         1.9267         21.1963         3.46845 
        1.93284         21.0635         3.44164 
        1.93897         21.0437         3.41517 
        1.94509         20.9297         3.38903 
        1.95123         20.8625          3.3631 
        1.95737         20.7328         3.33742 
        1.96349         20.6786         3.31208 
        1.96964         20.5859         3.28692 
        1.97578         20.4795         3.26202 
        1.98192          20.401         3.23743 
        1.98805         20.3488         3.21309 
        1.99419         20.2512           3.189 
        2.00033          20.125         3.16515 
        2.00647         20.0623         3.14155 
         2.0126         19.9935         3.11823 
        2.01874         19.9044         3.09511 
        2.02488         19.8574          3.0722 
        2.03101         19.7416         3.04957 
        2.03714         19.6762         3.02719 
        2.04328         19.5756         3.00501 
        2.04941         19.4972         2.98307 
        2.05554         19.4385         2.96137 
        2.06167         19.3657         2.93985 
        2.06781         19.2773         2.91855 
        2.07396         19.2326         2.89743 
        2.08009          19.174         2.87655 
        2.08622         18.9998          2.8559 
        2.09237         18.9748         2.83542 
        2.09851         18.9099         2.81513 
        2.10464         18.8201         2.79508 
        2.11077         18.7285         2.77525 
        2.11691          18.679         2.75556 
        2.12305         18.6235         2.73607 
        2.12918         18.5421         2.71681 
        2.13531          18.461         2.69774 
        2.14145         18.4317         2.67881 
         2.1476         18.3219         2.66003 
        2.15372         18.2296         2.64154 
        2.15985          18.129          2.6232 
        2.16599         18.1176         2.60498 
        2.17213         18.0503         2.58695 
        2.17827         17.9299          2.5691 
         2.1844         17.8379         2.55144 
        2.19054         17.8224         2.53394 
        2.19666         17.7487         2.51662 
         2.2028         17.6777         2.49945 
        2.20893         17.6169         2.48244 
        2.21508         17.5272         2.46556 
        2.22122         17.4035         2.44884 
        2.22736         17.4137          2.4323 
        2.23349         17.3252         2.41593 
        2.23962         17.2572         2.39969 
        2.24577         17.1703         2.38359 
         2.2519         17.1437         2.36766 
        2.25802         17.0444         2.35191 
        2.26417         17.0314         2.33625 
        2.27031         16.9224         2.32072 
        2.27644         16.8686         2.30538 
        2.28257         16.7881         2.29018 
        2.28872         16.7069         2.27509 
        2.29486         16.6764         2.26013 
        2.30099         16.5918         2.24534 
        2.30712         16.5425         2.23068 
        2.31326         16.4979         2.21613 
         2.3194         16.4428         2.20171 
        2.32553         16.3506         2.18745 
        2.33166         16.2718         2.17332 
         2.3378         16.2292         2.15929 
        2.34394         16.1745         2.14539 
        2.35007         16.1113         2.13162 
        2.35619         16.0205           2.118 
        2.36233         15.9842         2.10446 
        2.36848         15.9214         2.09101 
        2.37462         15.8537         2.07771 
        2.38075         15.7957         2.06454 
        2.38689         15.7658         2.05147 
        2.39303         15.6765         2.03851 
        2.39916         15.6227         2.02569 
        2.40529         15.5713         2.01297 
        2.41143         15.5022         2.00035 
        2.41757         15.4682         1.98784 
         2.4237         15.3884         1.97546 
        2.42983          15.317         1.96318 
        2.43598         15.3019         1.95098 
        2.44211         15.2284          1.9389 
        2.44823         15.1736         1.92695 
        2.45437         15.1037         1.91506 
        2.46052         15.0663         1.90327 
        2.46665         15.0277          1.8916 
        2.47279         14.9274         1.88003 
        2.47892         14.8988         1.86855 
        2.48507         14.8402         1.85716 
         2.4912         14.8091         1.84588 
