# k  (h/Mpc)    Pcb(k)  (Mpc/h)^3    Pcb_linear(k)  (Mpc/h)^3
     0.00783031         14185.8         14263.7 
       0.013688         16468.1         16878.7 
       0.019231         16239.7         16466.6 
      0.0249154         14685.1         14625.8 
      0.0312784         11996.5         12071.1 
      0.0375637         9690.07         9807.98 
      0.0433917         8227.56         8228.51 
      0.0492413         7113.48         7155.01 
      0.0555754         6450.98         6432.25 
      0.0619321         5809.37         5966.03 
       0.067871         5526.94         5596.08 
      0.0738098         5155.33         5181.25 
      0.0800417         4656.83         4659.23 
      0.0862327         4074.12         4084.87 
      0.0921407         3582.76         3549.85 
      0.0982031         3172.15         3076.74 
       0.104506         2763.79         2704.12 
       0.110769         2537.71         2456.81 
       0.116806         2424.26         2310.58 
       0.122832         2297.08         2217.92 
       0.129052         2196.67         2137.12 
       0.135211         2134.13         2039.37 
       0.141259         1972.86         1911.43 
       0.147318         1809.05         1755.42 
       0.153489         1666.75          1585.3 
       0.159709         1560.07         1424.31 
       0.165845         1405.77         1292.41 
       0.171974         1355.74          1194.5 
       0.178125         1297.01          1128.1 
       0.184229         1205.98         1085.08 
        0.19034         1188.72         1052.98 
       0.196428         1155.13         1020.54 
       0.202534         1079.46         979.667 
       0.208729          1057.4         927.109 
       0.214876         1002.55         866.688 
       0.220989         935.733         804.413 
       0.227147         903.406         746.009 
        0.23329         861.291         696.835 
       0.239377         848.335         658.937 
       0.245482         802.989         630.804 
       0.251667         773.407         609.445 
       0.257832         762.508         591.437 
       0.263955         723.788         573.197 
       0.270079         698.622         552.329 
        0.27624         669.038          528.08 
       0.282372          654.75         501.622 
        0.28843         645.047           475.1 
       0.294538         610.445         449.908 
       0.300721          593.34         427.549 
        0.30691         580.601           408.9 
       0.313033         553.666         393.897 
       0.319153         545.569          381.36 
       0.325316         536.302         370.021 
        0.33145         523.103         358.837 
       0.337538         503.571          347.15 
       0.343633         489.752         334.593 
       0.349808         477.251         321.314 
       0.355968         467.908         308.025 
       0.362074         450.367         295.477 
       0.368217         447.724          283.95 
       0.374374          439.14         273.713 
       0.380519         420.943         264.782 
       0.386598         416.522          256.89 
       0.392688         405.398         249.585 
        0.39888          395.29         242.383 
       0.405048         386.565         235.157 
       0.411186         385.538         227.847 
       0.417313         379.854         220.456 
       0.423458         369.182          213.11 
       0.429607         358.163         206.042 
       0.435692         352.959         199.463 
       0.441815         346.227         193.332 
       0.447964         338.762         187.697 
       0.454126         334.687         182.472 
       0.460267         329.027         177.559 
       0.466387         321.971         172.848 
        0.47254         317.854         168.211 
       0.478662         310.622         163.625 
       0.484765         306.343         159.094 
       0.490885         302.827         154.642 
       0.497035         296.412         150.308 
       0.503198         295.658         146.145 
       0.509342         288.658         142.208 
       0.515458         283.436         138.518 
       0.521598          278.85         135.014 
       0.527764         274.882         131.653 
       0.533884         272.664         128.434 
           0.54          268.67         125.311 
       0.546137         262.691         122.253 
       0.552299         261.279         119.245 
       0.558452         256.735         116.305 
       0.564573         255.163         113.461 
       0.570708         250.069         110.711 
       0.576825         245.959         108.079 
       0.582926         244.247         105.563 
       0.589034         239.857         103.141 
       0.595184         238.212          100.79 
       0.601379         234.406         98.5028 
       0.607522         229.078         96.3059 
       0.613639         228.243         94.1808 
       0.619772         226.955         92.1048 
       0.625918         223.091         90.0751 
       0.632068         220.013         88.0963 
       0.638161         218.776         86.1912 
         0.6443          215.63         84.3316 
       0.650464         212.596         82.5278 
       0.656582         210.454         80.7981 
       0.662703         209.364         79.1235 
       0.668861         204.876         77.4893 
       0.675024         204.354         75.8994 
       0.681124         201.489         74.3674 
       0.687237         199.982         72.8711 
       0.693381         196.619         71.4068 
       0.699536         195.756         69.9791 
       0.705665         193.521         68.5966 
       0.711789         191.139         67.2539 
       0.717957         189.494         65.9393 
        0.72409         186.794         64.6684 
       0.730186         187.788         63.4395 
       0.736317         184.656         62.2363 
       0.742472         182.496         61.0599 
       0.748622         180.242         59.9148 
        0.75476         180.259         58.8011 
       0.760888         177.809         57.7172 
       0.767043         175.089         56.6563 
       0.773185         173.581         55.6242 
       0.779291         171.944         54.6239 
       0.785407         170.904         53.6471 
       0.791564         169.409         52.6883 
       0.797719         166.529         51.7538 
       0.803834         167.369         50.8481 
       0.809972         165.173         49.9611 
       0.816124         162.401         49.0934 
       0.822261         161.474         48.2487 
       0.828378         160.924         47.4264 
       0.834502         159.058         46.6225 
       0.840667         158.873         45.8321 
       0.846816         155.935         45.0621 
       0.852925          155.46         44.3146 
       0.859047         153.879         43.5825 
       0.865192         153.375         42.8646 
       0.871341         151.688         42.1624 
       0.877463         150.169         41.4792 
       0.883569         149.994         40.8129 
       0.889708         148.518         40.1579 
       0.895864          146.89         39.5157 
       0.902008         145.577          38.889 
       0.908149         144.213         38.2763 
       0.914301         143.226         37.6758 
       0.920448         143.074         37.0889 
       0.926574          141.06         36.5165 
       0.932687         140.865         35.9575 
       0.938823          139.64         35.4082 
       0.944975         138.926         34.8691 
       0.951105         137.376         34.3433 
       0.957225         136.497         33.8292 
       0.963368          135.76         33.3239 
       0.969511         134.238         32.8289 
       0.975621         132.678         32.3467 
       0.981748         132.381         31.8729 
       0.987916         131.556         31.4057 
        0.99406          130.64         30.9496 
        1.00019         129.881         30.5035 
        1.00632         128.794         30.0666 
        1.01246         127.905         29.6376 
        1.01859          126.95         29.2177 
        1.02471         126.067         28.8065 
        1.03085          125.21         28.4018 
        1.03698         124.305         28.0057 
        1.04314         123.892         27.6156 
        1.04929           123.2         27.2338 
        1.05541         122.493         26.8607 
        1.06154         121.121         26.4937 
        1.06769         120.543         26.1331 
        1.07382         119.832         25.7803 
        1.07993         118.954         25.4348 
        1.08607         118.552         25.0943 
        1.09222         117.316         24.7596 
        1.09836         116.723         24.4315 
        1.10449         116.015         24.1097 
        1.11063         115.071         23.7933 
        1.11677         114.585         23.4827 
         1.1229         113.517         23.1782 
        1.12903         112.687         22.8789 
        1.13518         111.977         22.5846 
        1.14131         111.686         22.2956 
        1.14745         110.825         22.0119 
        1.15359         109.934         21.7331 
        1.15973         109.499         21.4589 
        1.16584         108.649         21.1908 
        1.17197         108.222         20.9268 
        1.17811         107.304         20.6665 
        1.18424         106.736         20.4114 
        1.19038         106.166         20.1599 
        1.19652         105.488         19.9128 
        1.20267         104.732         19.6697 
        1.20881         103.943         19.4308 
        1.21495         103.706         19.1962 
        1.22108         102.913         18.9656 
         1.2272         102.426         18.7393 
        1.23334         101.884         18.5161 
        1.23949         101.267         18.2961 
        1.24562          100.47         18.0802 
        1.25174         100.394         17.8682 
        1.25789          99.364         17.6589 
        1.26402         99.0018         17.4533 
        1.27014         98.2204         17.2515 
        1.27628         97.7522         17.0523 
        1.28244         97.3587         16.8559 
        1.28858         96.6369         16.6628 
        1.29471         96.0246         16.4732 
        1.30084          95.308         16.2867 
        1.30697         94.8128         16.1028 
        1.31312         94.3423         15.9215 
        1.31925         93.6303         15.7435 
        1.32537         93.1933         15.5684 
        1.33151         93.0578         15.3954 
        1.33765         92.2526         15.2251 
        1.34378         91.9384         15.0577 
        1.34992         91.3884         14.8927 
        1.35606         90.9505         14.7298 
         1.3622         90.5768         14.5696 
        1.36833         89.7329         14.4122 
        1.37445         89.5144         14.2572 
        1.38059         88.9339          14.104 
        1.38675         88.3719         13.9527 
        1.39288         87.8232         13.8042 
        1.39901         87.4271          13.658 
        1.40515         86.9316         13.5135 
         1.4113         86.4224         13.3712 
        1.41742         86.1419         13.2314 
        1.42355         85.7287         13.0934 
         1.4297         85.0858          12.957 
        1.43585         84.7811         12.8225 
        1.44198          83.999         12.6905 
        1.44809         83.5846         12.5606 
        1.45423         83.5876          12.432 
        1.46036         82.7324         12.3054 
        1.46649         82.2848         12.1806 
        1.47263         81.7128         12.0574 
        1.47877         81.5327         11.9359 
        1.48491         81.0832          11.816 
        1.49104         80.4257         11.6979 
        1.49718         80.0658         11.5814 
        1.50333         79.7451         11.4662 
        1.50947         79.4158         11.3529 
         1.5156         79.0375         11.2412 
        1.52172         78.2959         11.1311 
        1.52787         78.1284         11.0222 
          1.534         77.7232         10.9149 
        1.54013         77.3314         10.8091 
        1.54627         76.7373         10.7045 
        1.55241         76.6739         10.6013 
        1.55855         75.8932         10.4996 
        1.56467         75.5078         10.3995 
         1.5708         74.9926         10.3005 
        1.57695         74.8366         10.2025 
        1.58308         74.4117         10.1061 
        1.58922         74.1655         10.0108 
        1.59535          73.996         9.91685 
         1.6015         73.2882         9.82393 
        1.60764         72.9273         9.73224 
        1.61376          72.762         9.64198 
        1.61989         72.2028         9.55279 
        1.62604         71.9304         9.46452 
        1.63218         71.4965         9.37742 
        1.63831         71.2076         9.29162 
        1.64444         70.7332         9.20685 
        1.65059         70.3709         9.12295 
        1.65673         70.2263         9.04017 
        1.66285         69.7312         8.95865 
        1.66898          69.186         8.87811 
        1.67512         68.8469         8.79841 
        1.68127         68.6913          8.7196 
         1.6874         68.2291         8.64194 
        1.69353         67.8758         8.56527 
        1.69967         67.5378         8.48934 
        1.70581         67.2838         8.41437 
        1.71193         66.8471         8.34058 
        1.71806         66.6299         8.26752 
        1.72421         66.2255         8.19519 
        1.73035         65.8444          8.1238 
        1.73649         65.5187         8.05328 
        1.74262         65.2203         7.98366 
        1.74876         64.8525          7.9148 
        1.75489         64.5969          7.8469 
        1.76101         64.3389         7.77981 
        1.76715         63.9162         7.71341 
        1.77329         63.5633         7.64771 
        1.77943         63.4104         7.58273 
        1.78557         63.0866         7.51861 
        1.79171         62.5543         7.45522 
        1.79785         62.3199         7.39254 
        1.80399         62.2133         7.33059 
        1.81012         61.6726         7.26944 
        1.81625         61.4284           7.209 
        1.82239         61.0187         7.14917 
        1.82853         60.8638         7.09004 
        1.83466          60.437         7.03163 
        1.84078         60.1837         6.97394 
        1.84692         60.0635         6.91681 
        1.85306         59.8361         6.86024 
         1.8592         59.4441          6.8044 
        1.86533         59.0635          6.7492 
        1.87147         58.7684         6.69456 
        1.87761         58.2953         6.64049 
        1.88375         58.2904         6.58708 
        1.88988          57.844         6.53432 
        1.89601         57.7848          6.4821 
        1.90215         57.3533         6.43041 
        1.90829         57.0225         6.37931 
        1.91442         56.6906         6.32876 
        1.92056         56.5753          6.2788 
         1.9267         56.2356         6.22933 
        1.93284         56.0506         6.18036 
        1.93897         55.6291           6.132 
        1.94509         55.4153         6.08427 
        1.95123         55.1605         6.03692 
        1.95737         54.9646         5.99005 
        1.96349         54.7152         5.94379 
        1.96964         54.3893         5.89788 
        1.97578         54.0929         5.85244 
        1.98192         53.7311         5.80756 
        1.98805         53.4009         5.76316 
        1.99419         53.4752         5.71921 
        2.00033         52.9872          5.6757 
        2.00647         52.7659         5.63265 
         2.0126         52.5829         5.59012 
        2.01874          52.451         5.54796 
        2.02488         52.1639          5.5062 
        2.03101         51.8066         5.46494 
        2.03714         51.5749         5.42415 
        2.04328         51.3888         5.38372 
        2.04941         51.0142         5.34374 
        2.05554          50.791         5.30419 
        2.06167         50.5221         5.26498 
        2.06781         50.3683         5.22617 
        2.07396         50.0797         5.18769 
        2.08009         49.9176         5.14966 
        2.08622         49.6347         5.11205 
        2.09237         49.4207         5.07475 
        2.09851         49.0537         5.03781 
        2.10464          48.856          5.0013 
        2.11077         48.7098         4.96519 
        2.11691         48.4654         4.92936 
        2.12305         48.1904         4.89388 
        2.12918         47.9114         4.85884 
        2.13531         47.7705         4.82413 
        2.14145         47.4616         4.78968 
         2.1476         47.4561         4.75553 
        2.15372         47.0646         4.72188 
        2.15985         46.8638         4.68852 
        2.16599         46.6838         4.65539 
        2.17213         46.4204         4.62261 
        2.17827         46.1606         4.59016 
         2.1844         45.8778         4.55804 
        2.19054         45.8705         4.52622 
        2.19666         45.6232         4.49475 
         2.2028          45.319         4.46355 
        2.20893         45.0616         4.43262 
        2.21508         44.8522         4.40196 
        2.22122         44.5977         4.37157 
        2.22736         44.4148         4.34154 
        2.23349         44.2668         4.31179 
        2.23962         44.1029          4.2823 
        2.24577         43.8537         4.25307 
         2.2519         43.6171         4.22414 
        2.25802         43.4173         4.19553 
        2.26417         43.2113         4.16711 
        2.27031           43.06         4.13892 
        2.27644         42.7656         4.11107 
        2.28257         42.6306         4.08348 
        2.28872         42.4335          4.0561 
        2.29486         42.2312         4.02896 
        2.30099         41.9559         4.00213 
        2.30712          41.827         3.97554 
        2.31326         41.6576         3.94913 
         2.3194         41.4458         3.92299 
        2.32553         41.2359         3.89712 
        2.33166         41.0885          3.8715 
         2.3378         40.8459         3.84607 
        2.34394         40.6618         3.82086 
        2.35007         40.5148         3.79591 
        2.35619          40.307         3.77121 
        2.36233         40.1593         3.74667 
        2.36848         39.9045          3.7223 
        2.37462          39.695          3.6982 
        2.38075         39.5552         3.67434 
        2.38689         39.3306         3.65066 
        2.39303         39.2267          3.6272 
        2.39916         39.0104         3.60396 
        2.40529         38.8743         3.58093 
        2.41143         38.7099         3.55809 
        2.41757         38.5068         3.53543 
         2.4237         38.3163         3.51301 
        2.42983         38.1869         3.49079 
        2.43598         37.9696          3.4687 
        2.44211         37.7311         3.44683 
        2.44823         37.6885         3.42521 
        2.45437         37.4302         3.40371 
        2.46052         37.2012         3.38237 
        2.46665          37.061         3.36126 
        2.47279         36.9103         3.34033 
        2.47892         36.7488         3.31957 
        2.48507         36.5967         3.29896 
         2.4912         36.3576         3.27857 
