# k  (h/Mpc)    P(k)  (Mpc/h)^3    P_linear(k)  (Mpc/h)^3
     0.00783031         6995.23         7050.61 
       0.013688         8530.34         8704.48 
       0.019231         8691.38         8786.13 
      0.0249154         8113.86         8101.12 
      0.0312784         6974.47          7013.4 
      0.0375637         5933.44         5997.63 
      0.0433917          5251.1         5260.61 
      0.0492413         4693.12         4732.23 
      0.0555754         4328.85         4335.42 
      0.0619321         3926.94         4025.92 
       0.067871         3697.32         3743.74 
      0.0738098         3407.24         3432.28 
      0.0800417         3067.89         3076.03 
      0.0862327         2708.08         2722.69 
      0.0921407         2418.38         2420.28 
      0.0982031         2192.21         2168.85 
       0.104506         1973.58         1976.78 
       0.110769         1847.63         1844.39 
       0.116806         1777.96         1750.95 
       0.122832         1674.26         1668.93 
       0.129052         1588.58         1578.25 
       0.135211          1508.7         1474.65 
       0.141259         1385.01         1362.37 
       0.147318         1262.93         1248.82 
       0.153489         1173.64            1143 
       0.159709          1107.6         1054.25 
       0.165845         1016.01         986.617 
       0.171974         992.638         936.052 
       0.178125         954.722          896.34 
       0.184229         894.915         861.058 
        0.19034         872.509         824.422 
       0.196428         837.968         783.963 
       0.202534         778.094         739.776 
       0.208729         754.878         693.872 
       0.214876         718.373         650.619 
       0.220989         669.495         612.546 
       0.227147         652.644         580.403 
        0.23329         627.828         554.186 
       0.239377         615.501         532.486 
       0.245482         585.363         513.016 
       0.251667          562.29         493.783 
       0.257832         554.773         473.975 
       0.263955         523.347         453.442 
       0.270079         503.383         432.531 
        0.27624         481.071         412.048 
       0.282372         468.446         393.069 
        0.28843         463.899         376.247 
       0.294538         440.726         361.321 
       0.300721         425.896         347.989 
        0.30691         419.003         335.889 
       0.313033         400.919         324.553 
       0.319153         394.002         313.426 
       0.325316         384.211         302.206 
        0.33145         374.169          291.07 
       0.337538         360.814         280.227 
       0.343633         349.592          269.83 
       0.349808         339.925         259.975 
       0.355968         332.741           250.9 
       0.362074         323.549         242.641 
       0.368217         319.374         234.927 
       0.374374         312.139         227.639 
       0.380519         299.516         220.646 
       0.386598         294.935         213.894 
       0.392688         287.542         207.275 
        0.39888         280.835         200.697 
       0.405048         275.323         194.361 
       0.411186         272.708         188.335 
       0.417313         267.359         182.625 
       0.423458         260.125         177.221 
       0.429607         253.959         172.116 
       0.435692         249.633         167.311 
       0.441815         244.616         162.677 
       0.447964         238.018          158.19 
       0.454126         234.423         153.826 
       0.460267         231.594         149.601 
       0.466387         226.816         145.524 
        0.47254         224.039         141.569 
       0.478662         217.378         137.783 
       0.484765         214.725         134.166 
       0.490885         211.451         130.696 
       0.497035         208.933         127.352 
       0.503198         206.187         124.131 
       0.509342         200.748         121.033 
       0.515458         198.307         118.051 
       0.521598         193.782         115.152 
       0.527764         191.756         112.328 
       0.533884         191.038         109.613 
           0.54         186.454          106.99 
       0.546137         182.325         104.448 
       0.552299         180.653         101.986 
       0.558452         177.509         99.6123 
       0.564573          176.55         97.3305 
       0.570708         172.307         95.1189 
       0.576825         170.105         92.9844 
       0.582926         168.311         90.9211 
       0.589034         165.863         88.9165 
       0.595184         164.454         86.9569 
       0.601379         160.964         85.0423 
       0.607522         158.129          83.201 
       0.613639         157.001         81.4235 
       0.619772         155.088         79.6962 
       0.625918          153.91         78.0177 
       0.632068         150.473         76.3881 
       0.638161         148.919         74.8204 
         0.6443         148.128         73.2858 
       0.650464         145.247          71.789 
       0.656582         144.579          70.345 
       0.662703         143.014         68.9407 
       0.668861         140.108         67.5672 
       0.675024         140.139         66.2305 
       0.681124         137.872          64.944 
       0.687237         135.887         63.6897 
       0.693381         134.891         62.4632 
       0.699536         133.242         61.2673 
       0.705665         131.641         60.1085 
       0.711789         130.027         58.9811 
       0.717957         128.615         57.8755 
        0.72409         127.564         56.8047 
       0.730186         127.194          55.768 
       0.736317         125.047         54.7518 
       0.742472          123.36         53.7575 
       0.748622          121.55         52.7892 
        0.75476         121.737         51.8471 
       0.760888         120.611         50.9298 
       0.767043         118.442         50.0312 
       0.773185         117.171         49.1565 
       0.779291         115.866          48.308 
       0.785407         114.872         47.4785 
       0.791564          114.32         46.6636 
       0.797719         112.795         45.8684 
       0.803834         112.397          45.097 
       0.809972         111.552         44.3409 
       0.816124         110.023         43.6006 
       0.822261         108.886         42.8795 
       0.828378         108.686         42.1771 
       0.834502         107.044         41.4899 
       0.840667         106.528         40.8139 
       0.846816          105.55          40.155 
       0.852925         104.365          39.515 
       0.859047         103.842         38.8877 
       0.865192         102.729         38.2722 
       0.871341         101.639         37.6697 
       0.877463         100.914         37.0831 
       0.883569         100.789         36.5106 
       0.889708         99.8604         35.9474 
       0.895864         98.9787         35.3948 
       0.902008         98.0332         34.8551 
       0.908149         96.7944         34.3271 
       0.914301         96.7424         33.8093 
       0.920448         96.3439         33.3027 
       0.926574         94.4666         32.8085 
       0.932687         94.3763         32.3255 
       0.938823         93.6413         31.8505 
       0.944975         92.5731         31.3842 
       0.951105         91.8474         30.9289 
       0.957225         91.7309         30.4836 
       0.963368         90.6962         30.0456 
       0.969511         90.0585         29.6163 
       0.975621         89.2685         29.1978 
       0.981748         88.5386         28.7865 
       0.987916         87.9795         28.3805 
        0.99406         87.6387          27.984 
        1.00019         86.5689         27.5959 
        1.00632         86.0338         27.2157 
        1.01246         85.5402         26.8421 
        1.01859         85.1794         26.4762 
        1.02471         84.3787         26.1176 
        1.03085         83.6549         25.7645 
        1.03698         83.1851         25.4188 
        1.04314          82.565          25.078 
        1.04929          82.192         24.7443 
        1.05541          81.609         24.4181 
        1.06154         81.1232          24.097 
        1.06769         80.3954         23.7813 
        1.07382         79.6985         23.4723 
        1.07993         79.5085         23.1695 
        1.08607         78.8608         22.8709 
        1.09222         78.6114         22.5773 
        1.09836         77.8341         22.2892 
        1.10449         77.4349         22.0066 
        1.11063         76.8768         21.7286 
        1.11677         76.4887         21.4555 
         1.1229         75.8083         21.1876 
        1.12903         75.5924         20.9242 
        1.13518         75.3033          20.665 
        1.14131         74.6083         20.4104 
        1.14745         74.1343         20.1603 
        1.15359         73.2946         19.9144 
        1.15973         73.2785         19.6725 
        1.16584         72.7603         19.4357 
        1.17197         72.1933         19.2026 
        1.17811         71.7849         18.9726 
        1.18424         71.0571          18.747 
        1.19038         71.0241         18.5246 
        1.19652         70.6048         18.3058 
        1.20267         70.0812         18.0906 
        1.20881         69.6798          17.879 
        1.21495         69.3053         17.6711 
        1.22108         69.0923         17.4666 
         1.2272         68.3655         17.2658 
        1.23334         68.1677         17.0678 
        1.23949         67.7149         16.8724 
        1.24562         67.2236         16.6806 
        1.25174         66.8639         16.4921 
        1.25789         66.8124          16.306 
        1.26402         66.2424         16.1232 
        1.27014         65.9874         15.9436 
        1.27628         65.3709         15.7662 
        1.28244         65.2712         15.5912 
        1.28858          64.821         15.4191 
        1.29471         64.4476         15.2501 
        1.30084         63.8467         15.0837 
        1.30697         63.9394         14.9196 
        1.31312          63.385         14.7577 
        1.31925         62.9239         14.5987 
        1.32537         62.6469         14.4423 
        1.33151         62.3694         14.2876 
        1.33765         62.0157         14.1353 
        1.34378         61.7255         13.9855 
        1.34992         61.4035         13.8378 
        1.35606         60.9661         13.6919 
         1.3622         60.7459         13.5484 
        1.36833         60.3581         13.4073 
        1.37445         59.8296         13.2683 
        1.38059         59.7837         13.1309 
        1.38675         59.1574         12.9951 
        1.39288          59.171         12.8618 
        1.39901         58.6372         12.7305 
        1.40515         58.4626         12.6007 
         1.4113          58.299         12.4727 
        1.41742         57.9002         12.3471 
        1.42355         57.5894         12.2229 
         1.4297         57.2937         12.1001 
        1.43585         56.9248         11.9791 
        1.44198         56.5932         11.8602 
        1.44809         56.2772         11.7431 
        1.45423         56.0738         11.6272 
        1.46036         55.7699         11.5131 
        1.46649         55.5875         11.4005 
        1.47263         55.2509         11.2893 
        1.47877         55.0517         11.1797 
        1.48491         54.7618         11.0713 
        1.49104         54.3139         10.9646 
        1.49718         54.1466         10.8593 
        1.50333         53.8999         10.7552 
        1.50947          53.638         10.6527 
         1.5156         53.4163         10.5517 
        1.52172         53.0312          10.452 
        1.52787         52.7609         10.3534 
          1.534          52.527         10.2561 
        1.54013         52.4482         10.1603 
        1.54627         51.9363         10.0655 
        1.55241         51.7023         9.97191 
        1.55855          51.603         9.87965 
        1.56467         51.1649         9.78881 
         1.5708         51.1242         9.69887 
        1.57695         50.8033         9.60994 
        1.58308         50.4731         9.52233 
        1.58922         50.2841         9.43576 
        1.59535          50.132         9.35031 
         1.6015         50.0616          9.2658 
        1.60764         49.6608         9.18239 
        1.61376         49.3827         9.10024 
        1.61989         49.0573         9.01903 
        1.62604         48.8974         8.93864 
        1.63218         48.6139         8.85929 
        1.63831         48.5074          8.7811 
        1.64444         48.2622         8.70382 
        1.65059         48.0138          8.6273 
        1.65673         47.7199         8.55178 
        1.66285         47.6368         8.47739 
        1.66898         47.2001         8.40386 
        1.67512         47.0964         8.33107 
        1.68127         46.8839         8.25908 
         1.6874         46.6385         8.18811 
        1.69353         46.5208         8.11802 
        1.69967         46.3173          8.0486 
        1.70581         45.9824         7.98002 
        1.71193         45.7992          7.9125 
        1.71806         45.6097         7.84562 
        1.72421         45.4217          7.7794 
        1.73035         45.1908         7.71401 
        1.73649         44.8897          7.6494 
        1.74262         44.6078         7.58558 
        1.74876         44.6209         7.52246 
        1.75489         44.2876         7.46018 
        1.76101          44.128         7.39864 
        1.76715         44.0457          7.3377 
        1.77329         43.6068         7.27738 
        1.77943         43.6337         7.21772 
        1.78557         43.4186         7.15882 
        1.79171         43.1807         7.10057 
        1.79785         42.9844         7.04296 
        1.80399         42.7707           6.986 
        1.81012         42.6351         6.92976 
        1.81625         42.2903         6.87416 
        1.82239         42.1493          6.8191 
        1.82853         42.0233         6.76466 
        1.83466         41.7857         6.71088 
        1.84078          41.621         6.65774 
        1.84692         41.3993          6.6051 
        1.85306         41.1876         6.55297 
         1.8592         41.0861         6.50148 
        1.86533         40.8874         6.45058 
        1.87147         40.6936         6.40017 
        1.87761         40.4492         6.35028 
        1.88375         40.3428         6.30098 
        1.88988         40.1939         6.25226 
        1.89601          39.934         6.20403 
        1.90215         39.7815         6.15628 
        1.90829         39.6092         6.10906 
        1.91442         39.4117         6.06232 
        1.92056          39.261         6.01613 
         1.9267         39.1835         5.97037 
        1.93284         38.9106         5.92506 
        1.93897         38.8393         5.88031 
        1.94509         38.5474         5.83613 
        1.95123         38.4497         5.79228 
        1.95737         38.2007         5.74886 
        1.96349         38.1399           5.706 
        1.96964         37.9333         5.66346 
        1.97578         37.7355         5.62133 
        1.98192         37.5639         5.57972 
        1.98805          37.383         5.53853 
        1.99419         37.2701         5.49775 
        2.00033         37.0927         5.45737 
        2.00647         37.0133          5.4174 
         2.0126         36.7712         5.37791 
        2.01874          36.613         5.33875 
        2.02488         36.4169         5.29995 
        2.03101         36.2833         5.26161 
        2.03714         36.1433         5.22369 
        2.04328         36.0219          5.1861 
        2.04941         35.8169         5.14891 
        2.05554          35.695         5.11211 
        2.06167         35.5224         5.07563 
        2.06781         35.3797         5.03949 
        2.07396         35.2263         5.00367 
        2.08009         35.0835         4.96825 
        2.08622         34.9176         4.93322 
        2.09237         34.7811         4.89845 
        2.09851         34.6212         4.86402 
        2.10464         34.4486         4.82998 
        2.11077         34.3717         4.79631 
        2.11691         34.1285         4.76289 
        2.12305         33.9829         4.72978 
        2.12918         33.8792         4.69708 
        2.13531         33.7474         4.66468 
        2.14145           33.61         4.63251 
         2.1476         33.4338         4.60061 
        2.15372         33.3636         4.56917 
        2.15985          33.143           4.538 
        2.16599         32.9626         4.50702 
        2.17213         32.8768         4.47638 
        2.17827         32.7318         4.44603 
         2.1844         32.6066         4.41598 
        2.19054         32.4813         4.38621 
        2.19666         32.2871         4.35675 
         2.2028         32.2001         4.32754 
        2.20893         32.0883         4.29859 
        2.21508         31.9551         4.26986 
        2.22122         31.7936          4.2414 
        2.22736         31.6173         4.21325 
        2.23349         31.5076         4.18537 
        2.23962         31.4002         4.15772 
        2.24577         31.2742          4.1303 
         2.2519         31.1077         4.10317 
        2.25802          30.976         4.07633 
        2.26417         30.8277         4.04966 
        2.27031         30.7597          4.0232 
        2.27644         30.6771         3.99705 
        2.28257         30.4783         3.97114 
        2.28872         30.4144         3.94541 
        2.29486         30.2336         3.91992 
        2.30099         30.0603          3.8947 
        2.30712          29.992          3.8697 
        2.31326         29.8472         3.84488 
         2.3194         29.7277         3.82028 
        2.32553         29.6216         3.79595 
        2.33166         29.4993         3.77184 
         2.3378         29.3826         3.74791 
        2.34394         29.2491         3.72418 
        2.35007         29.1833         3.70068 
        2.35619         29.0592         3.67742 
        2.36233         28.8755         3.65431 
        2.36848          28.775         3.63135 
        2.37462          28.707         3.60863 
        2.38075         28.5232         3.58613 
        2.38689         28.3936         3.56381 
        2.39303         28.3745         3.54168 
        2.39916         28.1614         3.51976 
        2.40529         28.0527         3.49803 
        2.41143          27.957         3.47647 
        2.41757          27.833         3.45508 
         2.4237          27.747         3.43392 
        2.42983         27.6058         3.41293 
        2.43598         27.4836         3.39206 
        2.44211         27.3993         3.37141 
        2.44823           27.24         3.35097 
        2.45437         27.2433         3.33065 
        2.46052         27.0654         3.31047 
        2.46665         26.9458         3.29051 
        2.47279         26.7892         3.27071 
        2.47892         26.7215         3.25107 
        2.48507         26.6255         3.23157 
         2.4912         26.5471         3.21227 
