# k  (h/Mpc)    P(k)  (Mpc/h)^3    P_linear(k)  (Mpc/h)^3
     0.00783031         15044.5         15313.5 
       0.013688         18438.6         18312.3 
       0.019231         18172.9         18158.7 
      0.0249154         16137.8         16484.1 
      0.0312784         13832.1         13982.4 
      0.0375637         11657.8         11646.8 
      0.0433917         9780.34         9928.58 
      0.0492413         8657.31         8690.06 
      0.0555754         7592.35         7796.73 
      0.0619321         7234.71         7190.77 
       0.067871         6571.04         6726.37 
      0.0738098         6104.32         6248.01 
      0.0800417         5491.41         5678.22 
      0.0862327         4962.37         5057.01 
      0.0921407         4476.02         4465.44 
      0.0982031         3923.01         3919.68 
       0.104506         3597.94         3462.37 
       0.110769         3268.17         3132.22 
       0.116806         3043.82         2916.33 
       0.122832         2894.01         2769.65 
       0.129052         2702.45         2651.39 
       0.135211         2583.91         2532.54 
       0.141259         2483.57         2393.18 
       0.147318         2340.09            2227 
       0.153489         2137.35         2040.97 
       0.159709         2000.49         1855.16 
       0.165845         1892.87         1691.39 
       0.171974         1768.13         1558.37 
       0.178125         1671.21          1458.1 
       0.184229         1592.52         1386.67 
        0.19034         1503.26         1333.63 
       0.196428         1477.66          1288.2 
       0.202534         1428.52         1240.65 
       0.208729         1362.91         1184.66 
       0.214876         1302.08         1120.59 
       0.220989         1253.61         1051.76 
       0.227147         1193.98         982.787 
        0.23329         1140.08         919.677 
       0.239377         1114.21          866.26 
       0.245482         1039.99         822.882 
       0.251667         1032.48         788.187 
       0.257832         991.702         760.032 
       0.263955         960.102         735.093 
       0.270079         925.475         710.237 
        0.27624         915.518         683.429 
       0.282372         877.468         654.552 
        0.28843         864.569         624.602 
       0.294538          819.81         594.458 
       0.300721         814.381         565.628 
        0.30691         779.571         539.673 
       0.313033         763.841         517.393 
       0.319153          745.42         498.273 
       0.325316         722.284         481.504 
        0.33145         704.125         466.278 
       0.337538         692.349         451.699 
       0.343633         673.791          436.99 
       0.349808         650.122         421.702 
       0.355968         645.358         406.187 
       0.362074         636.842         390.903 
       0.368217         617.654         376.111 
       0.374374         592.091         362.235 
       0.380519          590.94         349.577 
       0.386598         574.718         338.223 
       0.392688         572.436         327.841 
        0.39888         555.207         318.045 
       0.405048         545.921         308.733 
       0.411186         537.487         299.674 
       0.417313         526.507         290.726 
       0.423458          516.67         281.799 
       0.429607         508.965          273.01 
       0.435692         497.057         264.575 
       0.441815         492.523          256.45 
       0.447964         482.221         248.745 
       0.454126         473.992         241.519 
       0.460267         464.135         234.756 
       0.466387         458.696         228.388 
        0.47254         452.176         222.278 
       0.478662          449.76         216.405 
       0.484765         434.493         210.687 
       0.490885         431.187         205.079 
       0.497035         422.631         199.579 
       0.503198         418.324         194.216 
       0.509342         415.086         189.048 
       0.515458         410.897         184.112 
       0.521598         400.497         179.383 
       0.527764         394.228         174.846 
       0.533884         391.895         170.533 
           0.54         386.696         166.396 
       0.546137         384.873         162.391 
       0.552299         377.574         158.493 
       0.558452         375.402         154.704 
       0.564573         370.241         151.032 
       0.570708         364.298         147.456 
       0.576825         356.313         144.001 
       0.582926         355.167         140.668 
       0.589034         351.996         137.442 
       0.595184         349.067         134.306 
       0.601379         343.647          131.26 
       0.607522         338.854         128.345 
       0.613639          337.58         125.537 
       0.619772         330.488         122.807 
       0.625918         329.201         120.147 
       0.632068         323.922         117.557 
       0.638161         322.702         115.061 
         0.6443         317.453         112.618 
       0.650464         314.717         110.236 
       0.656582          312.18         107.943 
       0.662703         311.382         105.716 
       0.668861         306.014         103.542 
       0.675024         302.912         101.429 
       0.681124         300.753         99.3983 
       0.687237         297.931         97.4203 
       0.693381         293.484         95.4876 
       0.699536         290.456         93.6042 
       0.705665         288.527         91.7796 
       0.711789         286.862         90.0047 
       0.717957         284.914         88.2636 
        0.72409         282.205         86.5776 
       0.730186         278.947         84.9456 
       0.736317         276.079          83.347 
       0.742472         274.509         81.7842 
       0.748622         272.224         80.2638 
        0.75476         269.399         78.7863 
       0.760888          266.45         77.3489 
       0.767043         266.704         75.9423 
       0.773185          263.47          74.574 
       0.779291         259.311         73.2474 
       0.785407          258.84         71.9512 
       0.791564         255.838          70.678 
       0.797719         253.312         69.4362 
       0.803834         251.326         68.2321 
       0.809972         250.641         67.0524 
       0.816124         250.038          65.898 
       0.822261         247.046         64.7741 
       0.828378         244.875           63.68 
       0.834502         243.301         62.6104 
       0.840667         240.932         61.5588 
       0.846816         239.532         60.5344 
       0.852925         238.296         59.5399 
       0.859047         236.321         58.5659 
       0.865192         233.482         57.6105 
       0.871341         231.869          56.676 
       0.877463         230.779         55.7665 
       0.883569         229.869         54.8793 
       0.889708         227.299         54.0069 
       0.895864          225.32         53.1513 
       0.902008         224.001         52.3161 
       0.908149         223.003         51.4993 
       0.914301         220.223         50.6988 
       0.920448         219.131         49.9161 
       0.926574         217.322         49.1526 
       0.932687         217.385         48.4068 
       0.938823         214.772         47.6739 
       0.944975         213.676         46.9545 
       0.951105         212.471         46.2525 
       0.957225          210.94         45.5662 
       0.963368         208.214         44.8915 
       0.969511         207.408         44.2305 
       0.975621         205.602         43.5864 
       0.981748         205.503         42.9536 
       0.987916         203.769         42.3293 
        0.99406         201.557         41.7199 
        1.00019         201.496         41.1238 
        1.00632         199.819         40.5398 
        1.01246         198.335         39.9664 
        1.01859         198.409         39.4051 
        1.02471         195.403         38.8553 
        1.03085         194.116         38.3141 
        1.03698          193.27         37.7844 
        1.04314         191.555         37.2626 
        1.04929         190.552         36.7518 
        1.05541         190.643         36.2527 
        1.06154         188.231         35.7617 
        1.06769         188.013         35.2791 
        1.07382          186.47          34.807 
        1.07993         185.097         34.3446 
        1.08607         184.604         33.8887 
        1.09222         183.419         33.4407 
        1.09836         181.979         33.0013 
        1.10449         180.213         32.5704 
        1.11063         178.839         32.1466 
        1.11677         178.492         31.7306 
         1.1229         177.158         31.3227 
        1.12903         176.444         30.9216 
        1.13518         175.409         30.5272 
        1.14131         173.779         30.1399 
        1.14745         173.787         29.7596 
        1.15359         172.307         29.3857 
        1.15973         171.172         29.0182 
        1.16584         169.948         28.6585 
        1.17197         169.651         28.3045 
        1.17811         168.062         27.9553 
        1.18424          167.38         27.6131 
        1.19038         167.048         27.2756 
        1.19652         165.603         26.9439 
        1.20267          165.01         26.6178 
        1.20881         163.655         26.2971 
        1.21495          162.81         25.9822 
        1.22108         161.844         25.6725 
         1.2272          160.66         25.3686 
        1.23334         160.312         25.0689 
        1.23949         159.023         24.7734 
        1.24562         158.213         24.4835 
        1.25174         157.229         24.1986 
        1.25789          156.26         23.9175 
        1.26402         154.995         23.6413 
        1.27014         153.983         23.3701 
        1.27628         153.663         23.1024 
        1.28244         153.406         22.8384 
        1.28858         151.944         22.5789 
        1.29471         150.656          22.324 
        1.30084         150.501         22.0733 
        1.30697         149.094         21.8261 
        1.31312         148.353         21.5823 
        1.31925         147.542         21.3429 
        1.32537         147.113         21.1075 
        1.33151         145.735         20.8748 
        1.33765         145.029         20.6457 
        1.34378         144.504         20.4205 
        1.34992          143.93         20.1986 
        1.35606         143.624         19.9794 
         1.3622         142.048         19.7639 
        1.36833          141.08         19.5521 
        1.37445          140.63         19.3435 
        1.38059         139.666         19.1373 
        1.38675         139.127         18.9336 
        1.39288         138.522         18.7337 
        1.39901         138.252         18.5368 
        1.40515         136.778         18.3423 
         1.4113         136.222         18.1506 
        1.41742         135.337         17.9624 
        1.42355         134.645         17.7765 
         1.4297         133.997         17.5927 
        1.43585         133.174         17.4115 
        1.44198         132.582         17.2336 
        1.44809         132.049         17.0585 
        1.45423         131.407         16.8852 
        1.46036         130.483         16.7146 
        1.46649         129.639         16.5463 
        1.47263         128.921         16.3802 
        1.47877          128.36         16.2165 
        1.48491         127.233         16.0547 
        1.49104         127.161         15.8955 
        1.49718         126.103         15.7383 
        1.50333         125.532          15.583 
        1.50947         125.063         15.4302 
         1.5156         124.318         15.2796 
        1.52172         123.633          15.131 
        1.52787          122.84         14.9841 
          1.534         122.405         14.8393 
        1.54013          121.72         14.6966 
        1.54627         121.209         14.5555 
        1.55241         120.266         14.4162 
        1.55855         119.565          14.279 
        1.56467         119.242         14.1439 
         1.5708         118.305         14.0102 
        1.57695         117.972          13.878 
        1.58308         117.348         13.7478 
        1.58922         116.997         13.6193 
        1.59535         116.189         13.4924 
         1.6015         115.766         13.3669 
        1.60764         115.095         13.2431 
        1.61376         114.512         13.1212 
        1.61989         113.839         13.0007 
        1.62604         113.232         12.8815 
        1.63218         113.012         12.7638 
        1.63831         112.049         12.6479 
        1.64444         111.605         12.5334 
        1.65059         111.075           12.42 
        1.65673           110.2         12.3082 
        1.66285         109.893          12.198 
        1.66898         109.446         12.0891 
        1.67512         108.854         11.9814 
        1.68127         108.252         11.8749 
         1.6874         107.449         11.7699 
        1.69353          107.16         11.6662 
        1.69967         106.772         11.5636 
        1.70581         106.055         11.4622 
        1.71193         105.628         11.3624 
        1.71806         105.125         11.2636 
        1.72421         104.382         11.1658 
        1.73035         104.223         11.0692 
        1.73649         103.528         10.9738 
        1.74262         102.826         10.8796 
        1.74876         102.561         10.7865 
        1.75489         101.816         10.6946 
        1.76101         101.261         10.6038 
        1.76715         100.699          10.514 
        1.77329          100.45         10.4251 
        1.77943          99.644         10.3372 
        1.78557         99.4266         10.2504 
        1.79171         98.5656         10.1646 
        1.79785         98.2028         10.0797 
        1.80399         97.6271          9.9959 
        1.81012         97.2812         9.91312 
        1.81625         96.8682         9.83131 
        1.82239          96.499          9.7503 
        1.82853         95.8759         9.67024 
        1.83466         95.2739         9.59116 
        1.84078         94.9955         9.51305 
        1.84692         94.3942         9.43568 
        1.85306         93.9992         9.35907 
         1.8592         93.6395         9.28344 
        1.86533         92.9025         9.20868 
        1.87147         92.5635         9.13465 
        1.87761          92.102         9.06141 
        1.88375         91.5464         8.98905 
        1.88988         91.2645         8.91756 
        1.89601         90.6974         8.84681 
        1.90215          90.167         8.77676 
        1.90829         89.8147         8.70751 
        1.91442         89.3999           8.639 
        1.92056         88.8416         8.57128 
         1.9267         88.5556         8.50422 
        1.93284         88.1086         8.43784 
        1.93897         87.6383         8.37229 
        1.94509         87.3272         8.30758 
        1.95123         86.8687         8.24339 
        1.95737         86.3166         8.17983 
        1.96349         85.8882          8.1171 
        1.96964         85.3891         8.05485 
        1.97578         84.9969         7.99322 
        1.98192         84.8884         7.93236 
        1.98805          84.129         7.87213 
        1.99419         83.9365         7.81252 
        2.00033         83.5584          7.7535 
        2.00647         83.0629          7.6951 
         2.0126         82.6597          7.6374 
        2.01874         82.0212          7.5802 
        2.02488         81.8287         7.52354 
        2.03101         81.2735         7.46756 
        2.03714         80.7498         7.41221 
        2.04328          80.598         7.35735 
        2.04941         80.2483         7.30309 
        2.05554         79.8694         7.24941 
        2.06167         79.4693         7.19621 
        2.06781           78.94         7.14353 
        2.07396         78.5692          7.0913 
        2.08009         78.3348         7.03968 
        2.08622         77.8687         6.98863 
        2.09237         77.5408         6.93799 
        2.09851         77.2538         6.88785 
        2.10464           76.76         6.83828 
        2.11077         76.4136         6.78925 
        2.11691         76.1414          6.7406 
        2.12305          75.565         6.69242 
        2.12918         75.2362         6.64483 
        2.13531         74.9536          6.5977 
        2.14145          74.453         6.55091 
         2.1476         74.0925         6.50453 
        2.15372         73.8882         6.45882 
        2.15985         73.4459         6.41351 
        2.16599          73.068          6.3685 
        2.17213         72.7932         6.32397 
        2.17827         72.3581         6.27987 
         2.1844         72.0049         6.23623 
        2.19054         71.8507           6.193 
        2.19666         71.3811         6.15023 
         2.2028         71.1766         6.10783 
        2.20893         70.7024          6.0658 
        2.21508         70.4342         6.02413 
        2.22122         70.0342         5.98283 
        2.22736         69.7541           5.942 
        2.23349         69.3669         5.90156 
        2.23962         69.0214         5.86148 
        2.24577         68.7025         5.82174 
         2.2519         68.4691         5.78241 
        2.25802         68.1441         5.74352 
        2.26417         67.6925         5.70487 
        2.27031         67.4568         5.66654 
        2.27644         67.0795         5.62867 
        2.28257         66.7948         5.59116 
        2.28872         66.4533         5.55391 
        2.29486         65.9703         5.51701 
        2.30099         65.6062         5.48052 
        2.30712          65.529         5.44434 
        2.31326         65.2296         5.40843 
         2.3194         64.8978         5.37286 
        2.32553         64.5464         5.33767 
        2.33166         64.2183         5.30281 
         2.3378         63.8455         5.26821 
        2.34394         63.5593         5.23391 
        2.35007          63.311         5.19996 
        2.35619         63.0763         5.16636 
        2.36233         62.7298         5.13297 
        2.36848         62.4705         5.09981 
        2.37462         62.0234         5.06701 
        2.38075         61.8971         5.03453 
        2.38689         61.5487         5.00231 
        2.39303         61.1999         4.97037 
        2.39916         60.9489         4.93874 
        2.40529         60.7395          4.9074 
        2.41143         60.4325          4.8763 
        2.41757         60.0846         4.84546 
         2.4237         59.9325         4.81494 
        2.42983         59.5359         4.78468 
        2.43598         59.1892         4.75461 
        2.44211         58.9571         4.72484 
        2.44823         58.7384         4.69539 
        2.45437         58.3788         4.66612 
        2.46052         58.1773         4.63707 
        2.46665         57.9667         4.60831 
        2.47279         57.5281         4.57981 
        2.47892         57.3824         4.55153 
        2.48507         57.0431         4.52346 
         2.4912         56.7844         4.49569 
