# k  (h/Mpc)    P(k)  (Mpc/h)^3    P_linear(k)  (Mpc/h)^3
     0.00783031         74.6497         75.2889 
       0.013688          90.149         90.4445 
       0.019231          89.856         89.8342 
      0.0249154         81.5344         81.6225 
      0.0312784         69.4012         69.2761 
      0.0375637         57.9288         57.7252 
      0.0433917         49.3705         49.2205 
      0.0492413         43.2376         43.0879 
      0.0555754         38.7498         38.6636 
      0.0619321         35.7837         35.6622 
       0.067871         33.3955         33.3615 
      0.0738098         31.0033         30.9908 
      0.0800417         28.1612          28.166 
      0.0862327         25.1102         25.0857 
      0.0921407         22.1961          22.152 
      0.0982031         19.4787         19.4452 
       0.104506         17.2456          17.177 
       0.110769         15.5963         15.5395 
       0.116806         14.4932         14.4686 
       0.122832         13.7752         13.7411 
       0.129052         13.1636         13.1545 
       0.135211         12.5638          12.565 
       0.141259          11.884         11.8737 
       0.147318         11.0723         11.0493 
       0.153489         10.1434         10.1265 
       0.159709         9.22369         9.20464 
       0.165845         8.43021         8.39215 
       0.171974         7.74887         7.73219 
       0.178125         7.25481         7.23474 
       0.184229         6.90312         6.88033 
        0.19034         6.62133         6.61718 
       0.196428         6.40189          6.3918 
       0.202534         6.17904         6.15587 
       0.208729         5.88947         5.87807 
       0.214876         5.56315         5.56018 
       0.220989         5.23838         5.21871 
       0.227147         4.88232         4.87648 
        0.23329         4.57046         4.56336 
       0.239377         4.30676         4.29832 
       0.245482         4.08875         4.08309 
       0.251667          3.9238         3.91094 
       0.257832         3.77837         3.77124 
       0.263955         3.65635          3.6475 
       0.270079         3.53313         3.52417 
        0.27624         3.40528         3.39116 
       0.282372         3.26142         3.24788 
        0.28843         3.10693         3.09927 
       0.294538         2.95821          2.9497 
       0.300721         2.82019         2.80665 
        0.30691         2.68704         2.67787 
       0.313033         2.57617         2.56732 
       0.319153         2.47273         2.47245 
       0.325316         2.40173         2.38924 
        0.33145         2.32383         2.31369 
       0.337538         2.25041         2.24135 
       0.343633         2.17467         2.16836 
       0.349808         2.10069         2.09251 
       0.355968         2.02535         2.01552 
       0.362074         1.94743         1.93969 
       0.368217         1.87435         1.86629 
       0.374374         1.80164         1.79743 
       0.380519         1.74255         1.73463 
       0.386598         1.68727         1.67829 
       0.392688         1.63775         1.62677 
        0.39888         1.58665         1.57817 
       0.405048         1.54081         1.53196 
       0.411186         1.49619         1.48701 
       0.417313         1.44979         1.44261 
       0.423458         1.40773         1.39831 
       0.429607         1.36166          1.3547 
       0.435692         1.31976         1.31285 
       0.441815         1.27947         1.27253 
       0.447964         1.24415          1.2343 
       0.454126         1.20535         1.19844 
       0.460267         1.17107         1.16488 
       0.466387          1.1388         1.13329 
        0.47254         1.10892         1.10297 
       0.478662         1.08082         1.07383 
       0.484765         1.05095         1.04545 
       0.490885         1.02405         1.01763 
       0.497035        0.999091        0.990332 
       0.503198        0.970654        0.963721 
       0.509342         0.94662        0.938078 
       0.515458        0.920143        0.913587 
       0.521598        0.896922         0.89012 
       0.527764        0.872817        0.867605 
       0.533884        0.854043        0.846208 
           0.54        0.832879        0.825677 
       0.546137        0.813557        0.805802 
       0.552299        0.793551         0.78646 
       0.558452        0.773508        0.767661 
       0.564573        0.756228        0.749442 
       0.570708        0.738411        0.731698 
       0.576825        0.720841        0.714552 
       0.582926        0.705444        0.698011 
       0.589034        0.686768        0.682006 
       0.595184        0.671642        0.666446 
       0.601379        0.657017        0.651331 
       0.607522        0.643512        0.636867 
       0.613639        0.630397        0.622933 
       0.619772        0.615033        0.609385 
       0.625918        0.602247        0.596188 
       0.632068        0.590135        0.583336 
       0.638161        0.577063        0.570951 
         0.6443         0.56492        0.558825 
       0.650464        0.552061        0.547007 
       0.656582        0.541403        0.535627 
       0.662703        0.530531        0.524579 
       0.668861        0.520619        0.513791 
       0.675024        0.509417        0.503307 
       0.681124        0.498208        0.493229 
       0.687237         0.48944        0.483414 
       0.693381        0.480083        0.473824 
       0.699536        0.469221        0.464478 
       0.705665        0.460295        0.455424 
       0.711789        0.452512        0.446617 
       0.717957        0.442944        0.437977 
        0.72409        0.435147        0.429611 
       0.730186        0.426417        0.421513 
       0.736317        0.419622        0.413581 
       0.742472        0.411482        0.405826 
       0.748622        0.403706        0.398281 
        0.75476        0.395636         0.39095 
       0.760888         0.38847        0.383817 
       0.767043        0.383049        0.376838 
       0.773185        0.375227        0.370048 
       0.779291        0.368515        0.363465 
       0.785407        0.362327        0.357033 
       0.791564        0.356052        0.350715 
       0.797719        0.350061        0.344554 
       0.803834        0.344201        0.338579 
       0.809972        0.337976        0.332725 
       0.816124        0.332095        0.326996 
       0.822261        0.326162        0.321419 
       0.828378        0.321136         0.31599 
       0.834502        0.316072        0.310683 
       0.840667        0.310218        0.305464 
       0.846816        0.305288        0.300381 
       0.852925        0.301006        0.295447 
       0.859047        0.296087        0.290613 
       0.865192        0.290702        0.285873 
       0.871341        0.285939        0.281235 
       0.877463        0.282177        0.276722 
       0.883569        0.277342         0.27232 
       0.889708        0.273081        0.267991 
       0.895864        0.268612        0.263745 
       0.902008         0.26447        0.259601 
       0.908149        0.260274        0.255548 
       0.914301        0.255664        0.251576 
       0.920448        0.252166        0.247692 
       0.926574        0.248214        0.243904 
       0.932687        0.244288        0.240203 
       0.938823        0.241386        0.236566 
       0.944975        0.237663        0.232996 
       0.951105        0.234196        0.229513 
       0.957225        0.231158        0.226107 
       0.963368        0.227468        0.222759 
       0.969511        0.223828        0.219479 
       0.975621        0.220633        0.216283 
       0.981748        0.218097        0.213143 
       0.987916        0.214747        0.210045 
        0.99406        0.211516        0.207021 
        1.00019        0.208837        0.204063 
        1.00632        0.205455        0.201166 
        1.01246        0.202425         0.19832 
        1.01859        0.199985        0.195535 
        1.02471        0.197233        0.192807 
        1.03085        0.194942        0.190121 
        1.03698        0.191877        0.187493 
        1.04314        0.189324        0.184903 
        1.04929         0.18661        0.182369 
        1.05541        0.184482        0.179892 
        1.06154         0.18173        0.177456 
        1.06769        0.179146        0.175061 
        1.07382        0.176946        0.172718 
        1.07993        0.174425        0.170424 
        1.08607        0.172677        0.168162 
        1.09222        0.170065        0.165939 
        1.09836        0.168279        0.163758 
        1.10449        0.166087         0.16162 
        1.11063        0.163556        0.159517 
        1.11677        0.161422        0.157453 
         1.1229        0.159565        0.155429 
        1.12903        0.157473        0.153439 
        1.13518         0.15567        0.151482 
        1.14131        0.153591         0.14956 
        1.14745         0.15127        0.147672 
        1.15359        0.149696        0.145817 
        1.15973        0.147587        0.143993 
        1.16584        0.146169        0.142209 
        1.17197        0.144336        0.140452 
        1.17811        0.142784        0.138719 
        1.18424        0.141243        0.137021 
        1.19038        0.139282        0.135347 
        1.19652          0.1373        0.133701 
        1.20267        0.136079        0.132082 
        1.20881        0.134464        0.130491 
        1.21495        0.133014        0.128928 
        1.22108         0.13121        0.127392 
         1.2272        0.129891        0.125884 
        1.23334        0.128256        0.124397 
        1.23949        0.126814         0.12293 
        1.24562        0.125363        0.121492 
        1.25174        0.124005        0.120078 
        1.25789        0.122804        0.118683 
        1.26402        0.121016        0.117312 
        1.27014        0.119843        0.115967 
        1.27628        0.118546        0.114639 
        1.28244        0.116975        0.113329 
        1.28858        0.115802        0.112041 
        1.29471        0.114798        0.110776 
        1.30084        0.113268        0.109532 
        1.30697         0.11205        0.108305 
        1.31312        0.110573        0.107095 
        1.31925        0.109504        0.105908 
        1.32537        0.108455        0.104739 
        1.33151        0.107331        0.103585 
        1.33765        0.106197        0.102448 
        1.34378        0.104964         0.10133 
        1.34992        0.103812        0.100229 
        1.35606        0.102742       0.0991416 
         1.3622        0.101721       0.0980722 
        1.36833        0.100591       0.0970212 
        1.37445       0.0993388       0.0959861 
        1.38059       0.0984389       0.0949629 
        1.38675       0.0976804       0.0939523 
        1.39288        0.096585       0.0929603 
        1.39901       0.0955376       0.0919831 
        1.40515       0.0947177       0.0910178 
         1.4113       0.0935081       0.0900667 
        1.41742       0.0926181       0.0891327 
        1.42355       0.0918264       0.0882103 
         1.4297       0.0907727       0.0872981 
        1.43585       0.0899056       0.0863992 
        1.44198       0.0890956       0.0855163 
        1.44809       0.0881136       0.0846475 
        1.45423       0.0872972       0.0837876 
        1.46036       0.0864495       0.0829411 
        1.46649       0.0857641        0.082106 
        1.47263       0.0848015       0.0812818 
        1.47877        0.083803       0.0804693 
        1.48491       0.0831287       0.0796666 
        1.49104         0.08221       0.0788766 
        1.49718       0.0813476       0.0780967 
        1.50333       0.0808118       0.0773261 
        1.50947       0.0798912       0.0765675 
         1.5156       0.0791424       0.0758202 
        1.52172       0.0784093       0.0750829 
        1.52787       0.0776607       0.0743539 
          1.534       0.0768499       0.0736355 
        1.54013       0.0761704       0.0729273 
        1.54627       0.0756312       0.0722272 
        1.55241        0.074755       0.0715361 
        1.55855       0.0740232       0.0708551 
        1.56467       0.0735781       0.0701848 
         1.5708        0.072818       0.0695214 
        1.57695       0.0720882       0.0688654 
        1.58308       0.0714049       0.0682195 
        1.58922       0.0708174       0.0675814 
        1.59535       0.0701627       0.0669517 
         1.6015       0.0694622       0.0663292 
        1.60764       0.0689283       0.0657148 
        1.61376         0.06823       0.0651099 
        1.61989       0.0676924       0.0645122 
        1.62604       0.0671392       0.0639206 
        1.63218       0.0665267       0.0633367 
        1.63831       0.0659145       0.0627615 
        1.64444       0.0653597       0.0621932 
        1.65059       0.0648182       0.0616306 
        1.65673       0.0642664       0.0610755 
        1.66285       0.0637853       0.0605289 
        1.66898        0.063178       0.0599887 
        1.67512       0.0625533       0.0594541 
        1.68127       0.0619861       0.0589255 
         1.6874       0.0615457       0.0584045 
        1.69353       0.0608834       0.0578901 
        1.69967       0.0605932       0.0573807 
        1.70581       0.0598508       0.0568776 
        1.71193       0.0594136       0.0563825 
        1.71806       0.0588747       0.0558922 
        1.72421       0.0585574       0.0554068 
        1.73035       0.0579357       0.0549277 
        1.73649       0.0575632       0.0544543 
        1.74262       0.0570334       0.0539869 
        1.74876       0.0565379       0.0535247 
        1.75489       0.0561704       0.0530688 
        1.76101       0.0556252       0.0526184 
        1.76715       0.0551425       0.0521726 
        1.77329       0.0546388       0.0517314 
        1.77943       0.0542781       0.0512951 
        1.78557       0.0538658       0.0508645 
        1.79171       0.0534386       0.0504387 
        1.79785       0.0530182       0.0500178 
        1.80399       0.0525578       0.0496017 
        1.81012       0.0521658       0.0491909 
        1.81625       0.0517196        0.048785 
        1.82239       0.0513013        0.048383 
        1.82853       0.0509077       0.0479857 
        1.83466       0.0505048       0.0475933 
        1.84078       0.0501181       0.0472057 
        1.84692       0.0496694       0.0468218 
        1.85306       0.0493667       0.0464417 
         1.8592       0.0488993       0.0460663 
        1.86533       0.0486046       0.0456954 
        1.87147       0.0481785        0.045328 
        1.87761       0.0479038       0.0449646 
        1.88375       0.0475317       0.0446055 
        1.88988       0.0470905       0.0442508 
        1.89601       0.0467654       0.0438997 
        1.90215       0.0463941       0.0435521 
        1.90829       0.0459879       0.0432085 
        1.91442       0.0457677       0.0428685 
        1.92056       0.0453512       0.0425325 
         1.9267       0.0449883       0.0421997 
        1.93284       0.0446641       0.0418703 
        1.93897       0.0443457       0.0415451 
        1.94509        0.044063        0.041224 
        1.95123       0.0436927       0.0409054 
        1.95737        0.043379         0.04059 
        1.96349       0.0430296       0.0402788 
        1.96964       0.0427361       0.0399699 
        1.97578       0.0424097        0.039664 
        1.98192       0.0421492       0.0393621 
        1.98805        0.041823       0.0390632 
        1.99419       0.0414776       0.0387674 
        2.00033       0.0411791       0.0384745 
        2.00647       0.0409954       0.0381847 
         2.0126       0.0405908       0.0378984 
        2.01874       0.0403922       0.0376146 
        2.02488       0.0400879       0.0373334 
        2.03101       0.0398041       0.0370556 
        2.03714       0.0394376        0.036781 
        2.04328       0.0392786       0.0365087 
        2.04941       0.0388921       0.0362395 
        2.05554       0.0387148       0.0359732 
        2.06167       0.0384541       0.0357091 
        2.06781       0.0381296       0.0354477 
        2.07396       0.0378923       0.0351885 
        2.08009       0.0376289       0.0349324 
        2.08622       0.0373856       0.0346791 
        2.09237       0.0371123       0.0344278 
        2.09851       0.0368514        0.034179 
        2.10464       0.0366542        0.033933 
        2.11077        0.036359       0.0336897 
        2.11691       0.0360858       0.0334483 
        2.12305       0.0358741       0.0332093 
        2.12918       0.0356656       0.0329731 
        2.13531       0.0353599       0.0327392 
        2.14145       0.0351083       0.0325071 
         2.1476       0.0348918       0.0322769 
        2.15372       0.0347265       0.0320501 
        2.15985       0.0344261       0.0318252 
        2.16599       0.0341989       0.0316019 
        2.17213       0.0339906       0.0313809 
        2.17827       0.0337508       0.0311621 
         2.1844       0.0335959       0.0309456 
        2.19054       0.0333453        0.030731 
        2.19666       0.0330973       0.0305188 
         2.2028       0.0328699       0.0303084 
        2.20893       0.0327167       0.0300999 
        2.21508       0.0325029       0.0298931 
        2.22122       0.0322438       0.0296881 
        2.22736       0.0320723       0.0294855 
        2.23349       0.0318538       0.0292849 
        2.23962       0.0317111        0.029086 
        2.24577       0.0314659       0.0288888 
         2.2519        0.031265       0.0286936 
        2.25802       0.0310668       0.0285006 
        2.26417       0.0308668       0.0283088 
        2.27031       0.0306441       0.0281186 
        2.27644       0.0304436       0.0279308 
        2.28257       0.0303062       0.0277446 
        2.28872       0.0301155       0.0275598 
        2.29486       0.0299574       0.0273766 
        2.30099       0.0297408       0.0271956 
        2.30712       0.0294837       0.0270161 
        2.31326       0.0293451       0.0268378 
         2.3194       0.0292168       0.0266614 
        2.32553       0.0290054       0.0264867 
        2.33166       0.0288775       0.0263137 
         2.3378       0.0286848       0.0261421 
        2.34394       0.0284692       0.0259719 
        2.35007        0.028284       0.0258034 
        2.35619       0.0280752       0.0256367 
        2.36233       0.0279813        0.025471 
        2.36848       0.0278626       0.0253064 
        2.37462       0.0276359       0.0251437 
        2.38075       0.0274732       0.0249825 
        2.38689        0.027314       0.0248226 
        2.39303        0.027171       0.0246641 
        2.39916       0.0269889       0.0245072 
        2.40529       0.0268537       0.0243516 
        2.41143        0.026659       0.0241973 
        2.41757       0.0265047       0.0240443 
         2.4237       0.0264024       0.0238928 
        2.42983       0.0262532       0.0237427 
        2.43598        0.026116       0.0235935 
        2.44211       0.0259066       0.0234458 
        2.44823       0.0257799       0.0232996 
        2.45437       0.0256226       0.0231544 
        2.46052         0.02548       0.0230102 
        2.46665       0.0253026       0.0228675 
        2.47279       0.0251623       0.0227261 
        2.47892       0.0250017       0.0225858 
        2.48507       0.0248609       0.0224465 
         2.4912       0.0247476       0.0223087 
