# k  (h/Mpc)    Pcb(k)  (Mpc/h)^3    Pcb_linear(k)  (Mpc/h)^3
     0.00783031         1589.14         1606.31 
       0.013688          1909.5         1911.23 
       0.019231         1854.14         1853.02 
      0.0249154         1621.82         1630.78 
      0.0312784          1341.2         1340.67 
      0.0375637         1106.33         1101.59 
      0.0433917         946.918         947.303 
      0.0492413         850.629         849.218 
      0.0555754         778.406         782.375 
      0.0619321         731.556         728.332 
       0.067871         668.974         671.561 
      0.0738098         600.887         603.316 
      0.0800417         521.964         525.012 
      0.0862327         451.336         451.578 
      0.0921407         395.774         394.332 
      0.0982031         352.419         352.291 
       0.104506         327.888         324.834 
       0.110769         310.368         308.385 
       0.116806         296.155         296.201 
       0.122832         283.359         282.262 
       0.129052         262.722         263.218 
       0.135211           240.1         240.238 
       0.141259          218.17          216.51 
       0.147318         197.598         194.852 
       0.153489         179.388         177.281 
       0.159709         167.181         164.818 
       0.165845         160.212         156.801 
       0.171974          153.01         151.235 
       0.178125         147.995         146.104 
       0.184229         142.106         139.973 
        0.19034         132.916         132.245 
       0.196428         125.372         123.354 
       0.202534         117.527         114.214 
       0.208729         108.635         105.775 
       0.214876           101.3         98.9283 
       0.220989         97.0511         93.7849 
       0.227147         92.2382         89.9691 
        0.23329         89.1053          86.936 
       0.239377         86.4893         84.0705 
       0.245482         82.3954         80.8817 
       0.251667         79.5825         77.1712 
       0.257832         75.5951         73.1282 
       0.263955         71.6726         69.0782 
       0.270079         68.0548         65.3255 
        0.27624         65.4188         62.0726 
       0.282372         62.7511         59.4113 
        0.28843         60.2021          57.258 
       0.294538         58.1001         55.3757 
       0.300721         56.7116         53.5673 
        0.30691         54.3548         51.6944 
       0.313033         52.4176          49.728 
       0.319153         49.7853         47.6759 
       0.325316         48.5885         45.6206 
        0.33145         46.4657         43.6844 
       0.337538         44.9204         41.9492 
       0.343633         43.1864         40.4178 
       0.349808          41.922         39.0545 
       0.355968         40.7187         37.8245 
       0.362074         39.4311         36.6656 
       0.368217         38.2305         35.5132 
       0.374374         36.9441         34.3421 
       0.380519         35.9226         33.1656 
       0.386598         34.8224         32.0182 
       0.392688         33.9027          30.914 
        0.39888         32.7565          29.866 
       0.405048         31.8718         28.9063 
       0.411186          31.027         28.0273 
       0.417313         30.0161         27.2124 
       0.423458         29.2353         26.4346 
       0.429607         28.4084         25.6764 
       0.435692         27.5472         24.9388 
       0.441815         26.9403         24.2069 
       0.447964         26.3924         23.4863 
       0.454126         25.3624         22.7889 
       0.460267         24.8328         22.1279 
       0.466387           24.05          21.505 
        0.47254         23.6009         20.9131 
       0.478662         23.1426         20.3557 
       0.484765         22.4305          19.825 
       0.490885         21.9026         19.3103 
       0.497035          21.584         18.8058 
       0.503198         20.9781         18.3127 
       0.509342         20.4436          17.835 
       0.515458         19.9441         17.3744 
       0.521598         19.5545         16.9282 
       0.527764         19.0788         16.4979 
       0.533884         18.7442         16.0895 
           0.54         18.3009          15.699 
       0.546137         17.9612         15.3219 
       0.552299         17.6267         14.9556 
       0.558452         17.0812         14.6003 
       0.564573         16.8233         14.2568 
       0.570708         16.4912         13.9227 
       0.576825         16.0674         13.5999 
       0.582926          15.759         13.2881 
       0.589034         15.3219          12.986 
       0.595184         15.0979         12.6918 
       0.601379         14.7649         12.4055 
       0.607522         14.5269          12.131 
       0.613639         14.3322         11.8667 
       0.619772         13.9431         11.6098 
       0.625918         13.8269           11.36 
       0.632068         13.5978          11.117 
       0.638161         13.2592         10.8829 
         0.6443         12.9856         10.6535 
       0.650464         12.7223         10.4299 
       0.656582         12.6213         10.2144 
       0.662703         12.3733         10.0052 
       0.668861         12.1345         9.80102 
       0.675024         11.8943          9.6027 
       0.681124         11.6845         9.41206 
       0.687237         11.4941          9.2263 
       0.693381         11.3409          9.0447 
       0.699536         11.0341         8.86759 
       0.705665         10.9266         8.69589 
       0.711789         10.7218         8.52885 
       0.717957         10.5397         8.36504 
        0.72409         10.3648         8.20646 
       0.730186          10.222           8.053 
       0.736317         10.1006         7.90269 
       0.742472         9.93202         7.75575 
       0.748622         9.77844         7.61276 
        0.75476          9.5754         7.47374 
       0.760888         9.44267         7.33845 
       0.767043         9.32352         7.20602 
       0.773185         9.13547         7.07716 
       0.779291         9.06123          6.9522 
       0.785407          8.9219         6.83009 
       0.791564         8.77539         6.71016 
       0.797719         8.60267          6.5932 
       0.803834         8.55351         6.47978 
       0.809972         8.45707         6.36865 
       0.816124         8.27026          6.2599 
       0.822261         8.14431         6.15401 
       0.828378          8.0484         6.05091 
       0.834502         7.97728          5.9501 
       0.840667         7.82729         5.85097 
       0.846816         7.68807         5.75439 
       0.852925           7.619         5.66063 
       0.859047         7.51675         5.56877 
       0.865192         7.44428         5.47867 
       0.871341         7.36091         5.39053 
       0.877463         7.23946         5.30474 
       0.883569          7.1218         5.22105 
       0.889708         7.00321         5.13876 
       0.895864          6.9335         5.05804 
       0.902008         6.86366         4.97924 
       0.908149         6.78792         4.90217 
       0.914301         6.69016         4.82663 
       0.920448         6.58717         4.75276 
       0.926574         6.50396         4.68071 
       0.932687         6.43433         4.61032 
       0.938823         6.34909         4.54113 
       0.944975         6.26541         4.47321 
       0.951105          6.2011         4.40693 
       0.957225         6.16722         4.34211 
       0.963368         6.08035         4.27839 
       0.969511         6.00469         4.21596 
       0.975621         5.92674         4.15511 
       0.981748         5.86094         4.09532 
       0.987916         5.80417         4.03633 
        0.99406         5.70776         3.97874 
        1.00019         5.62687         3.92238 
        1.00632         5.60151         3.86718 
        1.01246         5.53274         3.81297 
        1.01859         5.45366         3.75989 
        1.02471         5.40614         3.70789 
        1.03085         5.34215          3.6567 
        1.03698         5.26852         3.60659 
        1.04314          5.2268         3.55722 
        1.04929         5.16233         3.50889 
        1.05541          5.0989         3.46166 
        1.06154         5.05631         3.41519 
        1.06769         5.02836         3.36951 
        1.07382          4.9442         3.32482 
        1.07993         4.88847         3.28105 
        1.08607         4.85907         3.23789 
        1.09222         4.80328         3.19547 
        1.09836         4.75036         3.15387 
        1.10449         4.70457         3.11306 
        1.11063         4.64979         3.07293 
        1.11677         4.61633         3.03353 
         1.1229         4.57312         2.99489 
        1.12903         4.51462          2.9569 
        1.13518         4.46629         2.91954 
        1.14131         4.41555         2.88284 
        1.14745         4.36267         2.84681 
        1.15359         4.33826         2.81138 
        1.15973          4.2863         2.77655 
        1.16584         4.23981         2.74246 
        1.17197         4.20226          2.7089 
        1.17811         4.17816          2.6758 
        1.18424         4.13474         2.64336 
        1.19038         4.10789         2.61136 
        1.19652         4.05993          2.5799 
        1.20267         4.01716         2.54897 
        1.20881         3.99084         2.51855 
        1.21495         3.95337         2.48868 
        1.22108         3.91011          2.4593 
         1.2272         3.88373         2.43047 
        1.23334         3.83369         2.40203 
        1.23949         3.79807         2.37399 
        1.24562         3.77597         2.34647 
        1.25174         3.73386         2.31943 
        1.25789         3.70696         2.29273 
        1.26402          3.6759         2.26651 
        1.27014         3.63983         2.24076 
        1.27628         3.61058         2.21534 
        1.28244         3.56621         2.19027 
        1.28858         3.55428         2.16562 
        1.29471         3.50942          2.1414 
        1.30084         3.47586         2.11758 
        1.30697         3.47226         2.09409 
        1.31312         3.40797         2.07092 
        1.31925         3.38902         2.04818 
        1.32537         3.35951         2.02581 
        1.33151         3.34538         2.00369 
        1.33765          3.3008         1.98191 
        1.34378         3.28088          1.9605 
        1.34992         3.26222          1.9394 
        1.35606         3.21616         1.91856 
         1.3622         3.20439         1.89807 
        1.36833         3.17472         1.87793 
        1.37445         3.14793         1.85809 
        1.38059         3.13688         1.83847 
        1.38675         3.11134          1.8191 
        1.39288         3.08361         1.80008 
        1.39901         3.04708         1.78135 
        1.40515         3.02712         1.76284 
         1.4113         3.00642          1.7446 
        1.41742         2.98463         1.72669 
        1.42355         2.95933           1.709 
         1.4297          2.9356          1.6915 
        1.43585         2.92089         1.67426 
        1.44198         2.90224         1.65732 
        1.44809         2.87147         1.64065 
        1.45423         2.84792         1.62415 
        1.46036         2.82289         1.60791 
        1.46649         2.80543         1.59188 
        1.47263         2.78093         1.57606 
        1.47877         2.75854         1.56046 
        1.48491         2.74026         1.54505 
        1.49104         2.72348         1.52989 
        1.49718         2.70313         1.51491 
        1.50333         2.68606         1.50011 
        1.50947         2.66311         1.48554 
         1.5156         2.64386         1.47119 
        1.52172         2.62663         1.45703 
        1.52787         2.60929         1.44302 
          1.534         2.58526         1.42922 
        1.54013         2.57201         1.41561 
        1.54627         2.54821         1.40216 
        1.55241         2.52851         1.38888 
        1.55855         2.51728         1.37579 
        1.56467         2.50055          1.3629 
         1.5708         2.47978         1.35015 
        1.57695         2.46061         1.33754 
        1.58308         2.44096         1.32512 
        1.58922         2.43262         1.31285 
        1.59535         2.41491         1.30074 
         1.6015         2.39527         1.28877 
        1.60764          2.3812         1.27695 
        1.61376         2.36733         1.26532 
        1.61989         2.34801         1.25382 
        1.62604         2.33125         1.24244 
        1.63218         2.32431         1.23121 
        1.63831         2.30198         1.22014 
        1.64444         2.28791         1.20921 
        1.65059         2.27058         1.19838 
        1.65673         2.26102          1.1877 
        1.66285         2.24078         1.17718 
        1.66898         2.22935         1.16678 
        1.67512         2.21015         1.15649 
        1.68127         2.19781         1.14632 
         1.6874         2.19136         1.13629 
        1.69353         2.16487         1.12638 
        1.69967         2.15542         1.11657 
        1.70581          2.1473         1.10688 
        1.71193         2.12947         1.09735 
        1.71806         2.11999          1.0879 
        1.72421         2.10569         1.07855 
        1.73035          2.0926         1.06932 
        1.73649          2.0781          1.0602 
        1.74262         2.06443          1.0512 
        1.74876         2.05645         1.04229 
        1.75489         2.03931         1.03351 
        1.76101         2.02441         1.02482 
        1.76715         2.01737         1.01623 
        1.77329         2.00688         1.00773 
        1.77943         1.98651        0.999317 
        1.78557         1.97812        0.991015 
        1.79171         1.97068        0.982806 
        1.79785         1.95418        0.974689 
        1.80399         1.94332        0.966665 
        1.81012         1.93378        0.958743 
        1.81625         1.92246        0.950913 
        1.82239         1.90879         0.94316 
        1.82853          1.8938        0.935496 
        1.83466          1.8889        0.927926 
        1.84078         1.87858        0.920447 
        1.84692         1.86871        0.913039 
        1.85306         1.85329        0.905704 
         1.8592         1.84163        0.898461 
        1.86533         1.83155        0.891302 
        1.87147          1.8253        0.884213 
        1.87761          1.8123        0.877198 
        1.88375         1.80114        0.870267 
        1.88988         1.79322        0.863419 
        1.89601         1.78085        0.856641 
        1.90215         1.76722        0.849931 
        1.90829          1.7566        0.843296 
        1.91442          1.7525        0.836731 
        1.92056          1.7396        0.830242 
         1.9267         1.73062        0.823816 
        1.93284         1.72572        0.817454 
        1.93897         1.71424        0.811171 
        1.94509         1.70305        0.804968 
        1.95123         1.69204        0.798814 
        1.95737         1.68186         0.79272 
        1.96349         1.67623        0.786706 
        1.96964         1.66937        0.780736 
        1.97578         1.65515        0.774826 
        1.98192         1.64883         0.76899 
        1.98805         1.63981        0.763213 
        1.99419          1.6335        0.757495 
        2.00033         1.62645        0.751834 
        2.00647         1.61349        0.746231 
         2.0126         1.60822        0.740696 
        2.01874          1.5947        0.735208 
        2.02488         1.59022        0.729771 
        2.03101          1.5768          0.7244 
        2.03714         1.57068        0.719087 
        2.04328         1.56395        0.713822 
        2.04941         1.55176        0.708614 
        2.05554         1.54747        0.703462 
        2.06167         1.53931        0.698354 
        2.06781         1.53335        0.693297 
        2.07396         1.52489        0.688282 
        2.08009         1.51681        0.683325 
        2.08622         1.50791        0.678423 
        2.09237         1.50008         0.67356 
        2.09851         1.49288        0.668744 
        2.10464         1.48974        0.663982 
        2.11077         1.47845        0.659273 
        2.11691         1.47071          0.6546 
        2.12305          1.4655        0.649971 
        2.12918         1.45854        0.645399 
        2.13531         1.45008         0.64087 
        2.14145         1.44283        0.636374 
         2.1476         1.43352        0.631916 
        2.15372         1.42754        0.627524 
        2.15985         1.42042        0.623169 
        2.16599         1.41464        0.618843 
        2.17213         1.40426        0.614562 
        2.17827         1.40105        0.610324 
         2.1844         1.39468        0.606129 
        2.19054         1.38889        0.601972 
        2.19666         1.38078         0.59786 
         2.2028         1.37367        0.593783 
        2.20893         1.36819        0.589742 
        2.21508         1.36203        0.585734 
        2.22122         1.35233        0.581762 
        2.22736         1.34734        0.577835 
        2.23349         1.34341        0.573946 
        2.23962         1.33404         0.57009 
        2.24577         1.33044        0.566266 
         2.2519         1.32271        0.562483 
        2.25802         1.31814        0.558741 
        2.26417         1.31206        0.555022 
        2.27031          1.3058        0.551334 
        2.27644          1.2995         0.54769 
        2.28257         1.29203        0.544079 
        2.28872         1.28816        0.540494 
        2.29486         1.28011        0.536942 
        2.30099         1.27444        0.533429 
        2.30712         1.26788        0.529947 
        2.31326         1.26502        0.526489 
         2.3194         1.25921        0.523065 
        2.32553          1.2543        0.519676 
        2.33166         1.24608         0.51632 
         2.3378         1.24093        0.512988 
        2.34394          1.2345        0.509685 
        2.35007         1.22968        0.506415 
        2.35619         1.22641        0.503179 
        2.36233         1.21833        0.499963 
        2.36848         1.21383        0.496768 
        2.37462         1.20985        0.493608 
        2.38075         1.20344        0.490479 
        2.38689         1.19931        0.487374 
        2.39303         1.19237        0.484297 
        2.39916         1.18797        0.481249 
        2.40529         1.18278        0.478228 
        2.41143         1.17642        0.475231 
        2.41757         1.17263        0.472258 
         2.4237         1.16983        0.469316 
        2.42983         1.16154          0.4664 
        2.43598         1.15928          0.4635 
        2.44211         1.15353         0.46063 
        2.44823         1.14818        0.457791 
        2.45437         1.14352        0.454968 
        2.46052         1.14034        0.452167 
        2.46665         1.13411        0.449394 
        2.47279         1.12884        0.446645 
        2.47892         1.12422        0.443917 
        2.48507         1.12087         0.44121 
         2.4912         1.11393        0.438531 
