# k  (h/Mpc)    P(k)  (Mpc/h)^3    P_linear(k)  (Mpc/h)^3
     0.00783031         3868.25         3908.66 
       0.013688         4556.52          4633.3 
       0.019231         4458.47         4494.85 
      0.0249154         3964.13         3955.79 
      0.0312784         3222.36         3225.87 
      0.0375637          2583.3         2593.46 
      0.0433917         2170.26         2163.14 
      0.0492413          1878.1         1879.99 
      0.0555754         1707.53         1697.79 
      0.0619321          1565.5         1585.07 
       0.067871         1489.77         1493.73 
      0.0738098         1383.89         1384.89 
      0.0800417         1246.12         1242.23 
      0.0862327         1083.51          1083.1 
      0.0921407         939.081           935.4 
      0.0982031          818.42         806.679 
       0.104506         711.799         707.852 
       0.110769         651.092         644.873 
       0.116806         621.941         609.802 
       0.122832         594.285         588.804 
       0.129052         576.163         569.801 
       0.135211         554.314         544.443 
       0.141259         515.086         509.464 
       0.147318         469.079         466.191 
       0.153489         426.082         419.224 
       0.159709         387.803         375.447 
       0.165845         347.823         340.388 
       0.171974         330.881         315.163 
       0.178125         313.702         298.747 
       0.184229         298.731         288.544 
        0.19034         293.292         280.906 
       0.196428         284.406          272.65 
       0.202534         267.608         261.636 
       0.208729         258.197         247.177 
       0.214876         243.827         230.573 
       0.220989         223.866          213.66 
       0.227147         213.166         198.066 
        0.23329         201.344         185.193 
       0.239377          193.54         175.477 
       0.245482         184.296         168.405 
       0.251667         176.989         163.047 
       0.257832         175.013         158.411 
       0.263955         166.447         153.554 
       0.270079         160.079         147.863 
        0.27624         152.862         141.236 
       0.282372         146.776         134.068 
        0.28843         143.133         126.963 
       0.294538         135.519         120.317 
       0.300721         128.904         114.483 
        0.30691         125.947         109.677 
       0.313033         120.596         105.803 
       0.319153         118.519         102.544 
       0.325316         114.139         99.5272 
        0.33145         110.499         96.5125 
       0.337538         106.937         93.3243 
       0.343633         103.699         89.9234 
       0.349808         99.9697         86.3465 
       0.355968         96.7774         82.8131 
       0.362074         94.4886         79.5094 
       0.368217         91.6647         76.4899 
       0.374374          89.182         73.8244 
       0.380519         85.4197         71.4768 
       0.386598         83.2914         69.3905 
       0.392688         80.7596         67.4333 
        0.39888         79.3554         65.4807 
       0.405048         77.4438         63.5259 
       0.411186         75.5408         61.5476 
       0.417313         73.3613         59.5626 
       0.423458         71.2774         57.6111 
       0.429607         69.8008         55.7402 
       0.435692          68.609          54.003 
       0.441815         66.0834         52.3916 
       0.447964         64.0286         50.8974 
       0.454126         62.8803         49.5006 
       0.460267         62.2693         48.1823 
       0.466387          60.555          46.912 
        0.47254         59.7413         45.6532 
       0.478662         57.6521         44.4153 
       0.484765         56.5568         43.2015 
       0.490885         54.9486         42.0112 
       0.497035         54.2897         40.8544 
       0.503198         53.0401         39.7479 
       0.509342         51.5784         38.7044 
       0.515458         50.8494         37.7199 
       0.521598         49.5831         36.7786 
       0.527764         48.9156         35.8735 
       0.533884          48.154          35.007 
           0.54          46.994         34.1652 
       0.546137         45.6731          33.338 
       0.552299         44.8307         32.5255 
       0.558452         43.9004         31.7363 
       0.564573         43.5881         30.9762 
       0.570708         42.3465         30.2415 
       0.576825         41.8673          29.536 
       0.582926         41.2055         28.8588 
       0.589034         40.3584         28.2067 
       0.595184         39.8393         27.5744 
       0.601379         38.7915         26.9587 
       0.607522         38.0975          26.366 
       0.613639         37.6501         25.7908 
       0.619772         36.9068         25.2284 
       0.625918         36.3204         24.6799 
       0.632068          35.926          24.147 
       0.638161         35.1938         23.6352 
         0.6443          34.758          23.136 
       0.650464         33.8958         22.6505 
       0.656582         33.7109         22.1832 
       0.662703         33.2223         21.7296 
       0.668861         32.4014         21.2864 
       0.675024         32.0846         20.8554 
       0.681124         31.8182         20.4407 
       0.687237         31.1677         20.0365 
       0.693381         30.6225         19.6412 
       0.699536         30.4054         19.2556 
       0.705665         29.8611         18.8819 
       0.711789         29.3924         18.5184 
       0.717957         28.8404         18.1619 
        0.72409          28.548          17.817 
       0.730186         28.3918         17.4834 
       0.736317         27.8155         17.1568 
       0.742472         27.4867         16.8376 
       0.748622         27.0736          16.527 
        0.75476         26.4851         16.2251 
       0.760888         26.4365         15.9314 
       0.767043         25.9236         15.6437 
       0.773185         25.6231         15.3638 
       0.779291         25.3086         15.0923 
       0.785407         24.9644         14.8269 
       0.791564         24.8608         14.5663 
       0.797719         24.2938         14.3121 
       0.803834         24.1916         14.0657 
       0.809972         23.7548         13.8242 
       0.816124         23.5173          13.588 
       0.822261         23.2308          13.358 
       0.828378         23.0334          13.134 
       0.834502         22.7798         12.9151 
       0.840667         22.5343         12.6998 
       0.846816         22.0915         12.4901 
       0.852925         22.0036         12.2864 
       0.859047         21.8033          12.087 
       0.865192         21.4738         11.8913 
       0.871341         21.2121         11.6999 
       0.877463         20.9744         11.5136 
       0.883569         20.8542         11.3319 
       0.889708         20.5488         11.1532 
       0.895864         20.2878         10.9779 
       0.902008         20.0898         10.8068 
       0.908149         19.8305         10.6395 
       0.914301          19.705         10.4754 
       0.920448         19.4574          10.315 
       0.926574         19.2893         10.1585 
       0.932687         19.0388         10.0057 
       0.938823          18.783         9.85543 
       0.944975         18.6669         9.70795 
       0.951105         18.5004         9.56404 
       0.957225         18.3465         9.42332 
       0.963368         18.0885         9.28498 
       0.969511         17.9204         9.14944 
       0.975621         17.7777         9.01735 
       0.981748         17.5506         8.88755 
       0.987916         17.4478         8.75952 
        0.99406         17.2016         8.63451 
        1.00019         17.1058         8.51221 
        1.00632         16.9768         8.39241 
        1.01246           16.78         8.27476 
        1.01859         16.6142         8.15957 
        1.02471         16.4618         8.04674 
        1.03085         16.3733         7.93567 
        1.03698         16.2475         7.82695 
        1.04314         16.0361         7.71982 
        1.04929         15.8478         7.61495 
        1.05541         15.7812         7.51248 
        1.06154         15.6464         7.41165 
        1.06769          15.468         7.31253 
        1.07382         15.3166         7.21557 
        1.07993          15.192          7.1206 
        1.08607         15.0917         7.02695 
        1.09222         14.9328         6.93491 
        1.09836         14.8013         6.84464 
        1.10449         14.7191         6.75609 
        1.11063         14.6089         6.66901 
        1.11677         14.5325         6.58351 
         1.1229         14.3718         6.49967 
        1.12903         14.2394         6.41722 
        1.13518         14.1331         6.33614 
        1.14131         14.0401         6.25651 
        1.14745         13.8507          6.1783 
        1.15359          13.724         6.10143 
        1.15973         13.6512         6.02584 
        1.16584         13.5205         5.95188 
        1.17197         13.3874         5.87906 
        1.17811         13.3226         5.80724 
        1.18424         13.2122         5.73684 
        1.19038         13.1622         5.66741 
        1.19652         12.9996         5.59916 
        1.20267         12.9528         5.53205 
        1.20881         12.7921         5.46605 
        1.21495          12.723         5.40125 
        1.22108         12.6561         5.33751 
         1.2272         12.5474         5.27495 
        1.23334          12.481         5.21327 
        1.23949         12.3662         5.15243 
        1.24562         12.2451         5.09273 
        1.25174         12.2083         5.03408 
        1.25789         12.1048         4.97618 
        1.26402         12.0255          4.9193 
        1.27014         11.9669         4.86345 
        1.27628         11.8307         4.80831 
        1.28244         11.8172         4.75392 
        1.28858         11.6802         4.70045 
        1.29471         11.5628         4.64793 
        1.30084         11.4921         4.59626 
        1.30697         11.4464          4.5453 
        1.31312         11.3599         4.49505 
        1.31925         11.3004         4.44572 
        1.32537         11.1934         4.39719 
        1.33151         11.1223         4.34921 
        1.33765         11.0716         4.30197 
        1.34378         11.0202         4.25554 
        1.34992         10.9197         4.20976 
        1.35606          10.809         4.16456 
         1.3622         10.7453         4.12011 
        1.36833          10.721         4.07642 
        1.37445         10.6417         4.03338 
        1.38059         10.5607         3.99084 
        1.38675          10.512         3.94881 
        1.39288         10.4174         3.90755 
        1.39901         10.3466         3.86691 
        1.40515         10.2931         3.82675 
         1.4113          10.223         3.78718 
        1.41742         10.1763         3.74833 
        1.42355         10.0864         3.70995 
         1.4297          10.028         3.67199 
        1.43585         9.97801         3.63459 
        1.44198         9.94544         3.59785 
        1.44809         9.86541         3.56169 
        1.45423         9.79841         3.52589 
        1.46036         9.73169         3.49066 
        1.46649         9.67468         3.45589 
        1.47263         9.62711         3.42158 
        1.47877         9.55229         3.38775 
        1.48491         9.52145         3.35432 
        1.49104         9.45274         3.32142 
        1.49718         9.40721         3.28894 
        1.50333         9.35634         3.25684 
        1.50947         9.30027         3.22524 
         1.5156         9.25473         3.19411 
        1.52172         9.17548         3.16339 
        1.52787         9.16954         3.13302 
          1.534         9.09079         3.10308 
        1.54013          9.0515         3.07357 
        1.54627         8.98204         3.04439 
        1.55241         8.91144         3.01558 
        1.55855          8.8891         2.98719 
        1.56467         8.85951         2.95925 
         1.5708         8.79769         2.93159 
        1.57695          8.7445         2.90424 
        1.58308         8.69281          2.8773 
        1.58922         8.65376         2.85068 
        1.59535         8.61462         2.82442 
         1.6015           8.521         2.79845 
        1.60764         8.49029         2.77282 
        1.61376          8.4656         2.74758 
        1.61989         8.40134         2.72264 
        1.62604         8.38381         2.69795 
        1.63218         8.33502         2.67358 
        1.63831         8.27703         2.64957 
        1.64444         8.21921         2.62585 
        1.65059         8.17753         2.60237 
        1.65673         8.15881         2.57919 
        1.66285         8.09727         2.55637 
        1.66898         8.08444         2.53382 
        1.67512         8.04828         2.51149 
        1.68127         7.96753         2.48942 
         1.6874         7.95875         2.46766 
        1.69353           7.878         2.44617 
        1.69967         7.86335          2.4249 
        1.70581         7.81984         2.40388 
        1.71193         7.77619         2.38319 
        1.71806         7.74067         2.36271 
        1.72421         7.70058         2.34242 
        1.73035         7.67873          2.3224 
        1.73649          7.6454         2.30262 
        1.74262         7.56765         2.28308 
        1.74876         7.56436         2.26376 
        1.75489         7.53219         2.24471 
        1.76101         7.46099         2.22588 
        1.76715         7.46188         2.20724 
        1.77329         7.40477         2.18879 
        1.77943          7.3593         2.17055 
        1.78557         7.35922         2.15254 
        1.79171         7.30667         2.13473 
        1.79785         7.27954         2.11712 
        1.80399           7.238         2.09972 
        1.81012         7.20081         2.08253 
        1.81625          7.1627         2.06555 
        1.82239         7.13173         2.04873 
        1.82853         7.08348         2.03211 
        1.83466         7.04483         2.01568 
        1.84078         7.02331         1.99946 
        1.84692         7.00764         1.98339 
        1.85306         6.97283         1.96748 
         1.8592          6.9436         1.95176 
        1.86533         6.90178         1.93623 
        1.87147          6.8758         1.92085 
        1.87761         6.84728         1.90563 
        1.88375         6.81795         1.89059 
        1.88988         6.78097         1.87573 
        1.89601         6.74927         1.86103 
        1.90215         6.71709         1.84647 
        1.90829         6.69101         1.83207 
        1.91442         6.65939         1.81783 
        1.92056         6.65152         1.80375 
         1.9267         6.60841         1.78981 
        1.93284         6.58435         1.77601 
        1.93897         6.53819         1.76237 
        1.94509         6.50098         1.74892 
        1.95123         6.49472         1.73556 
        1.95737         6.47291         1.72234 
        1.96349         6.42301         1.70929 
        1.96964         6.39267         1.69634 
        1.97578         6.37712         1.68352 
        1.98192         6.35475         1.67086 
        1.98805         6.32153         1.65832 
        1.99419         6.30104         1.64592 
        2.00033          6.2666         1.63363 
        2.00647         6.24626         1.62148 
         2.0126         6.22169         1.60947 
        2.01874         6.18229         1.59756 
        2.02488         6.16895         1.58576 
        2.03101         6.14734         1.57411 
        2.03714         6.10599         1.56258 
        2.04328         6.07792         1.55116 
        2.04941         6.05488         1.53986 
        2.05554         6.03649         1.52868 
        2.06167          6.0248          1.5176 
        2.06781         5.98954         1.50662 
        2.07396         5.96393         1.49574 
        2.08009         5.92168         1.48499 
        2.08622         5.92809         1.47435 
        2.09237         5.89801          1.4638 
        2.09851         5.86418         1.45335 
        2.10464          5.8522         1.44302 
        2.11077         5.80849          1.4328 
        2.11691         5.80077         1.42266 
        2.12305         5.77694         1.41262 
        2.12918         5.74322          1.4027 
        2.13531         5.73102         1.39287 
        2.14145         5.70342         1.38311 
         2.1476         5.68868         1.37344 
        2.15372         5.66204         1.36391 
        2.15985         5.63843         1.35446 
        2.16599           5.623         1.34507 
        2.17213         5.61677         1.33578 
        2.17827         5.57825         1.32658 
         2.1844         5.56709         1.31748 
        2.19054          5.5431         1.30846 
        2.19666         5.51618         1.29953 
         2.2028         5.49248         1.29069 
        2.20893         5.47848         1.28192 
        2.21508         5.45109         1.27322 
        2.22122         5.42398          1.2646 
        2.22736         5.40257         1.25608 
        2.23349         5.38116         1.24764 
        2.23962         5.36896         1.23927 
        2.24577         5.35357         1.23097 
         2.2519         5.34507         1.22276 
        2.25802          5.2906         1.21464 
        2.26417         5.28466         1.20657 
        2.27031         5.26885         1.19856 
        2.27644         5.25587         1.19065 
        2.28257         5.21761         1.18282 
        2.28872         5.20421         1.17504 
        2.29486          5.1896         1.16733 
        2.30099         5.17752          1.1597 
        2.30712         5.14361         1.15214 
        2.31326         5.13314         1.14464 
         2.3194         5.10828         1.13721 
        2.32553         5.09498         1.12985 
        2.33166         5.07001         1.12257 
         2.3378         5.05848         1.11534 
        2.34394         5.03387         1.10817 
        2.35007          5.0205         1.10107 
        2.35619         5.00796         1.09404 
        2.36233         4.98136         1.08706 
        2.36848         4.96601         1.08013 
        2.37462         4.95086         1.07327 
        2.38075         4.93055         1.06648 
        2.38689         4.92191         1.05974 
        2.39303         4.89396         1.05306 
        2.39916         4.88665         1.04645 
        2.40529         4.86249         1.03989 
        2.41143          4.8549         1.03338 
        2.41757         4.82634         1.02693 
         2.4237         4.81798         1.02054 
        2.42983         4.79665         1.01421 
        2.43598         4.78563         1.00792 
        2.44211         4.76123         1.00169 
        2.44823         4.74242        0.995527 
        2.45437         4.73123        0.989399 
        2.46052         4.72337        0.983318 
        2.46665          4.7017        0.977298 
        2.47279         4.68149        0.971331 
        2.47892         4.66315        0.965411 
        2.48507         4.65017        0.959534 
         2.4912         4.63446        0.953717 
