# k  (h/Mpc)    Pcb(k)  (Mpc/h)^3    Pcb_linear(k)  (Mpc/h)^3
     0.00783031         183.655         185.002 
       0.013688         232.869         234.621 
       0.019231         242.548         243.248 
      0.0249154         229.345         229.611 
      0.0312784         202.251         202.347 
      0.0375637         174.029         174.083 
      0.0433917         152.344         152.049 
      0.0492413         135.589         135.507 
      0.0555754         123.444         123.132 
      0.0619321         114.126         114.429 
       0.067871         107.551          107.58 
      0.0738098          100.43         100.458 
      0.0800417         92.0437         91.9712 
      0.0862327         82.6972         82.7115 
      0.0921407         73.8628         73.8635 
      0.0982031          65.794         65.6525 
       0.104506         58.6847         58.7154 
       0.110769         53.6454         53.6496 
       0.116806         50.4013         50.2769 
       0.122832         47.9006         47.9159 
       0.129052          45.987         45.9366 
       0.135211         43.9854         43.9034 
       0.141259          41.523         41.5273 
       0.147318         38.6486         38.7277 
       0.153489         35.6377         35.6313 
       0.159709         32.6326         32.5712 
       0.165845         29.8436         29.8993 
       0.171974         27.8558         27.7478 
       0.178125         26.2251         26.1371 
       0.184229          25.016          24.988 
        0.19034         24.2189         24.1154 
       0.196428         23.3962         23.3323 
       0.202534         22.4372         22.4767 
       0.208729         21.4923         21.4514 
       0.214876         20.3791         20.2813 
       0.220989         19.0425         19.0405 
       0.227147         17.9389         17.8189 
        0.23329         16.8592         16.7247 
       0.239377         15.9645         15.8212 
       0.245482         15.2419         15.1054 
       0.251667         14.6255         14.5413 
       0.257832         14.2156           14.08 
       0.263955         13.7426         13.6548 
       0.270079         13.2923          13.207 
        0.27624         12.7536         12.7058 
       0.282372         12.2145         12.1561 
        0.28843         11.7068         11.5875 
       0.294538         11.1348          11.024 
       0.300721         10.5758         10.4977 
        0.30691         10.1665         10.0384 
       0.313033         9.76942         9.65551 
       0.319153         9.50212         9.33521 
       0.325316          9.1413         9.05424 
        0.33145         8.87735         8.79333 
       0.337538          8.6304         8.53236 
       0.343633         8.37305         8.25817 
       0.349808         8.06532         7.96515 
       0.355968          7.7606         7.66474 
       0.362074         7.49243         7.37116 
       0.368217         7.20748         7.09147 
       0.374374           6.985         6.83665 
       0.380519         6.72553          6.6101 
       0.386598          6.5141         6.41153 
       0.392688         6.32546         6.23188 
        0.39888         6.16779         6.06008 
       0.405048         6.00386         5.89295 
       0.411186         5.83046         5.72526 
       0.417313         5.66367         5.55446 
       0.423458         5.47336         5.38228 
       0.429607          5.3283          5.2121 
       0.435692         5.17317         5.04991 
       0.441815         5.00494          4.8968 
       0.447964         4.84753          4.7546 
       0.454126         4.73516         4.62312 
       0.460267         4.62976         4.50175 
       0.466387         4.50516         4.38753 
        0.47254         4.39986         4.27619 
       0.478662         4.28367         4.16705 
       0.484765         4.17824         4.05923 
       0.490885         4.06181         3.95184 
       0.497035         3.94309         3.84537 
       0.503198         3.85331         3.74192 
       0.509342         3.74277         3.64337 
       0.515458          3.6606          3.5503 
       0.521598         3.57305         3.46181 
       0.527764         3.49993         3.37776 
       0.533884         3.39871         3.29837 
           0.54         3.32918         3.22194 
       0.546137         3.24383         3.14707 
       0.552299         3.17557         3.07315 
       0.558452         3.10331         3.00078 
       0.564573         3.03554         2.93041 
       0.570708         2.96648         2.86171 
       0.576825         2.89976         2.79531 
       0.582926         2.82971         2.73143 
       0.589034         2.77826         2.67006 
       0.595184          2.7226         2.61094 
       0.601379         2.65656         2.55379 
       0.607522         2.59896         2.49901 
       0.613639         2.53795         2.44593 
       0.619772           2.496         2.39393 
       0.625918         2.44367         2.34301 
       0.632068         2.39431         2.29335 
       0.638161         2.34478         2.24546 
         0.6443         2.29571         2.19857 
       0.650464         2.24986         2.15289 
       0.656582         2.21262          2.1089 
       0.662703         2.16759         2.06622 
       0.668861         2.11515         2.02462 
       0.675024         2.07797         1.98426 
       0.681124         2.05577         1.94551 
       0.687237         2.00689         1.90777 
       0.693381         1.96031         1.87083 
       0.699536          1.9355         1.83474 
       0.705665         1.89859         1.79966 
       0.711789         1.85655         1.76544 
       0.717957         1.82424         1.73182 
        0.72409         1.79147         1.69925 
       0.730186         1.76657         1.66773 
       0.736317         1.72817          1.6369 
       0.742472         1.70258          1.6068 
       0.748622          1.6742         1.57754 
        0.75476         1.63898         1.54912 
       0.760888         1.61707         1.52146 
       0.767043         1.57536         1.49437 
       0.773185          1.5553         1.46798 
       0.779291         1.53665         1.44236 
       0.785407          1.5073         1.41729 
       0.791564         1.48192         1.39263 
       0.797719           1.456         1.36857 
       0.803834         1.43181         1.34522 
       0.809972         1.40919         1.32233 
       0.816124          1.3863         1.29994 
       0.822261         1.36536         1.27814 
       0.828378         1.34123         1.25692 
       0.834502         1.32023         1.23617 
       0.840667         1.30229         1.21576 
       0.846816         1.28081         1.19588 
       0.852925         1.25775         1.17658 
       0.859047         1.23933         1.15767 
       0.865192         1.22141         1.13911 
       0.871341         1.20439         1.12094 
       0.877463         1.18203         1.10326 
       0.883569          1.1654           1.086 
       0.889708         1.15066         1.06903 
       0.895864         1.13357         1.05237 
       0.902008         1.11382         1.03611 
       0.908149         1.09969         1.02019 
       0.914301         1.08618         1.00459 
       0.920448         1.07013        0.989336 
       0.926574         1.05704        0.974449 
       0.932687         1.04081        0.959901 
       0.938823         1.02199          0.9456 
       0.944975         1.01084        0.931559 
       0.951105        0.992225        0.917855 
       0.957225        0.979204        0.904451 
       0.963368        0.968065         0.89127 
       0.969511        0.956219        0.878352 
       0.975621        0.940777        0.865761 
       0.981748        0.924402        0.853386 
       0.987916         0.91348        0.841175 
        0.99406         0.90363        0.829249 
        1.00019        0.890624        0.817579 
        1.00632        0.881798        0.806145 
        1.01246        0.868933        0.794914 
        1.01859        0.857808        0.783915 
        1.02471        0.843597        0.773139 
        1.03085        0.832175        0.762529 
        1.03698        0.823814        0.752142 
        1.04314        0.812998        0.741904 
        1.04929        0.804643        0.731882 
        1.05541        0.790713        0.722086 
        1.06154        0.782979        0.712446 
        1.06769        0.773559        0.702968 
        1.07382         0.76344        0.693694 
        1.07993        0.754354        0.684609 
        1.08607        0.744771         0.67565 
        1.09222        0.734406        0.666843 
        1.09836        0.726565        0.658204 
        1.10449        0.716331        0.649729 
        1.11063        0.707325        0.641394 
        1.11677        0.700817        0.633209 
         1.1229        0.689535        0.625181 
        1.12903        0.683571        0.617286 
        1.13518        0.674405        0.609521 
        1.14131        0.667521        0.601895 
        1.14745        0.661436        0.594404 
        1.15359        0.651825        0.587039 
        1.15973        0.645268        0.579796 
        1.16584        0.636537        0.572709 
        1.17197        0.628694         0.56573 
        1.17811        0.621117        0.558846 
        1.18424        0.614319        0.552097 
        1.19038        0.606468        0.545441 
        1.19652        0.602215        0.538896 
        1.20267        0.595612         0.53246 
        1.20881        0.585961         0.52613 
        1.21495         0.58085        0.519913 
        1.22108        0.574949        0.513797 
         1.2272        0.567116        0.507794 
        1.23334        0.561551        0.501874 
        1.23949        0.556817        0.496034 
        1.24562        0.550204        0.490304 
        1.25174        0.544141        0.484672 
        1.25789        0.536698        0.479113 
        1.26402        0.532326         0.47365 
        1.27014        0.525023        0.468286 
        1.27628        0.520947         0.46299 
        1.28244        0.515528        0.457765 
        1.28858        0.508846        0.452628 
        1.29471        0.503926        0.447582 
        1.30084        0.498682        0.442617 
        1.30697        0.494961         0.43772 
        1.31312         0.48954        0.432891 
        1.31925        0.483995         0.42815 
        1.32537        0.479292        0.423484 
        1.33151        0.474125        0.418872 
        1.33765        0.469099        0.414331 
        1.34378         0.46336        0.409866 
        1.34992        0.460928        0.405464 
        1.35606        0.455025        0.401118 
         1.3622         0.45087        0.396843 
        1.36833         0.44721        0.392641 
        1.37445        0.442879        0.388502 
        1.38059         0.43806         0.38441 
        1.38675        0.433124        0.380367 
        1.39288        0.428222        0.376398 
        1.39901        0.425577        0.372488 
        1.40515        0.420779        0.368625 
         1.4113        0.417958        0.364818 
        1.41742        0.413475        0.361079 
        1.42355        0.407742        0.357386 
         1.4297        0.406034        0.353733 
        1.43585        0.400897        0.350133 
        1.44198        0.397799        0.346597 
        1.44809        0.393341        0.343116 
        1.45423        0.390348        0.339671 
        1.46036        0.386423        0.336279 
        1.46649        0.382892        0.332932 
        1.47263        0.378236        0.329628 
        1.47877        0.377077         0.32637 
        1.48491        0.371412        0.323151 
        1.49104        0.370219        0.319983 
        1.49718         0.36565        0.316854 
        1.50333        0.362887        0.313763 
        1.50947        0.359819        0.310719 
         1.5156        0.356045         0.30772 
        1.52172        0.353326         0.30476 
        1.52787        0.348946        0.301834 
          1.534        0.347032        0.298949 
        1.54013        0.343853        0.296106 
        1.54627        0.340968        0.293294 
        1.55241        0.337623        0.290518 
        1.55855        0.334803        0.287782 
        1.56467        0.332138        0.285089 
         1.5708          0.3288        0.282422 
        1.57695        0.325993        0.279786 
        1.58308        0.322216         0.27719 
        1.58922        0.320764        0.274625 
        1.59535        0.317371        0.272093 
         1.6015        0.315067        0.269589 
        1.60764        0.312143        0.267119 
        1.61376        0.309594        0.264686 
        1.61989        0.306702        0.262281 
        1.62604        0.304152        0.259901 
        1.63218        0.302303        0.257552 
        1.63831        0.299189        0.255237 
        1.64444        0.297046         0.25295 
        1.65059        0.293899        0.250686 
        1.65673        0.291858        0.248451 
        1.66285        0.289944         0.24625 
        1.66898        0.287084        0.244076 
        1.67512        0.284648        0.241923 
        1.68127        0.282123        0.239794 
         1.6874         0.28033        0.237696 
        1.69353        0.277848        0.235624 
        1.69967        0.275321        0.233571 
        1.70581        0.273869        0.231544 
        1.71193        0.271861        0.229549 
        1.71806        0.269261        0.227573 
        1.72421        0.266998        0.225617 
        1.73035        0.264784        0.223685 
        1.73649        0.263305        0.221777 
        1.74262        0.260528        0.219892 
        1.74876        0.259184        0.218028 
        1.75489        0.257069         0.21619 
        1.76101        0.254828        0.214373 
        1.76715         0.25308        0.212574 
        1.77329        0.250767        0.210794 
        1.77943        0.248789        0.209034 
        1.78557        0.247688        0.207296 
        1.79171        0.245703        0.205578 
        1.79785        0.243345        0.203879 
        1.80399         0.24105        0.202199 
        1.81012        0.239981        0.200541 
        1.81625        0.238346        0.198901 
        1.82239        0.236854        0.197278 
        1.82853        0.234469        0.195674 
        1.83466        0.232621        0.194089 
        1.84078         0.23106        0.192523 
        1.84692        0.229337        0.190972 
        1.85306        0.227839        0.189436 
         1.8592        0.226117         0.18792 
        1.86533        0.224657        0.186421 
        1.87147        0.222742        0.184936 
        1.87761        0.221068        0.183467 
        1.88375         0.21939        0.182016 
        1.88988        0.217828        0.180582 
        1.89601        0.215813        0.179162 
        1.90215        0.214618        0.177757 
        1.90829        0.212797        0.176367 
        1.91442        0.211884        0.174992 
        1.92056        0.210591        0.173633 
         1.9267        0.208739        0.172287 
        1.93284        0.206929        0.170955 
        1.93897        0.205744        0.169639 
        1.94509        0.204345         0.16834 
        1.95123        0.202713        0.167051 
        1.95737        0.201576        0.165775 
        1.96349        0.200062        0.164515 
        1.96964        0.198521        0.163265 
        1.97578        0.197168        0.162027 
        1.98192        0.196203        0.160804 
        1.98805        0.194883        0.159594 
        1.99419        0.193768        0.158397 
        2.00033        0.192025        0.157211 
        2.00647        0.190763        0.156037 
         2.0126        0.189667        0.154877 
        2.01874        0.188425        0.153728 
        2.02488        0.187131        0.152589 
        2.03101        0.185564        0.151464 
        2.03714        0.185117        0.150351 
        2.04328        0.182995        0.149248 
        2.04941        0.182352        0.148157 
        2.05554        0.181147        0.147077 
        2.06167        0.179868        0.146007 
        2.06781        0.178166        0.144948 
        2.07396        0.177456        0.143897 
        2.08009        0.176272        0.142859 
        2.08622         0.17533        0.141832 
        2.09237        0.173983        0.140813 
        2.09851        0.172645        0.139804 
        2.10464        0.171709        0.138806 
        2.11077        0.170475         0.13782 
        2.11691        0.169665         0.13684 
        2.12305        0.168081        0.135871 
        2.12918        0.167156        0.134913 
        2.13531        0.166266        0.133964 
        2.14145        0.165161        0.133022 
         2.1476        0.164224        0.132088 
        2.15372        0.163218        0.131167 
        2.15985        0.162051        0.130255 
        2.16599        0.160824        0.129348 
        2.17213        0.160278        0.128451 
        2.17827        0.159111        0.127563 
         2.1844        0.158184        0.126684 
        2.19054        0.157343        0.125813 
        2.19666         0.15636        0.124952 
         2.2028        0.154933        0.124097 
        2.20893        0.154343         0.12325 
        2.21508        0.153353        0.122411 
        2.22122        0.152504        0.121578 
        2.22736        0.151435        0.120755 
        2.23349        0.150451         0.11994 
        2.23962        0.149701        0.119132 
        2.24577        0.148904        0.118331 
         2.2519        0.147869        0.117538 
        2.25802        0.146987        0.116754 
        2.26417        0.146352        0.115975 
        2.27031        0.145195        0.115202 
        2.27644        0.144847        0.114438 
        2.28257        0.143608        0.113682 
        2.28872        0.142774         0.11293 
        2.29486        0.142029        0.112186 
        2.30099        0.141009         0.11145 
        2.30712        0.140344         0.11072 
        2.31326        0.139301        0.109996 
         2.3194        0.138713        0.109278 
        2.32553        0.138041        0.108568 
        2.33166        0.137032        0.107864 
         2.3378        0.136271        0.107166 
        2.34394        0.135556        0.106474 
        2.35007         0.13479        0.105789 
        2.35619        0.134273        0.105111 
        2.36233        0.133156        0.104437 
        2.36848        0.132546        0.103767 
        2.37462        0.131984        0.103105 
        2.38075        0.131115        0.102449 
        2.38689        0.130427        0.101798 
        2.39303        0.129766        0.101154 
        2.39916        0.128845        0.100515 
        2.40529        0.128157       0.0998818 
        2.41143        0.127228       0.0992537 
        2.41757        0.126712       0.0986308 
         2.4237        0.126077       0.0980143 
        2.42983        0.125539       0.0974031 
        2.43598        0.124618       0.0967955 
        2.44211        0.123679       0.0961941 
        2.44823        0.123411       0.0955991 
        2.45437        0.122706       0.0950075 
        2.46052         0.12202       0.0944205 
        2.46665        0.121283       0.0938394 
        2.47279        0.120624       0.0932634 
        2.47892        0.120377       0.0926918 
        2.48507        0.119313       0.0921245 
         2.4912        0.118885        0.091563 
