# k  (h/Mpc)    P(k)  (Mpc/h)^3    P_linear(k)  (Mpc/h)^3
     0.00783031         2070.23         2086.16 
       0.013688         2607.29          2642.4 
       0.019231         2720.73         2738.19 
      0.0249154         2584.73         2583.98 
      0.0312784         2271.34         2276.75 
      0.0375637         1949.46         1958.52 
      0.0433917         1712.64         1710.52 
      0.0492413         1520.43         1524.35 
      0.0555754         1388.81         1385.08 
      0.0619321         1272.32         1287.14 
       0.067871          1205.6         1210.08 
      0.0738098         1127.54         1129.96 
      0.0800417          1035.1         1034.48 
      0.0862327         928.088         930.319 
      0.0921407         829.551         830.791 
      0.0982031         742.222          738.43 
       0.104506         658.892           660.4 
       0.110769         603.574          603.42 
       0.116806         571.169         565.483 
       0.122832         539.905         538.927 
       0.129052         519.352         516.663 
       0.135211         498.955         493.794 
       0.141259         469.062         467.068 
       0.147318         434.545         435.579 
       0.153489         402.714         400.751 
       0.159709         371.988         366.333 
       0.165845         337.703         336.282 
       0.171974         320.342         312.083 
       0.178125         302.368         293.966 
       0.184229         286.199         281.042 
        0.19034         278.876         271.227 
       0.196428         269.639          262.42 
       0.202534         255.713         252.797 
       0.208729         247.649         241.265 
       0.214876         236.345         228.105 
       0.220989         219.064         214.149 
       0.227147         209.842         200.409 
        0.23329         198.681         188.103 
       0.239377         190.019          177.94 
       0.245482          180.63          169.89 
       0.251667         173.007         163.546 
       0.257832         170.247         158.357 
       0.263955         162.623         153.575 
       0.270079         157.265         148.539 
        0.27624         150.592         142.902 
       0.282372         145.136          136.72 
        0.28843          141.73         130.324 
       0.294538         134.695         123.986 
       0.300721         128.011         118.066 
        0.30691          124.77         112.902 
       0.313033         119.583         108.595 
       0.319153         117.371         104.993 
       0.325316         112.611         101.833 
        0.33145         109.256         98.8983 
       0.337538         106.218         95.9631 
       0.343633          103.25         92.8791 
       0.349808         99.7443         89.5833 
       0.355968         96.4984         86.2049 
       0.362074         94.2957         82.9028 
       0.368217         91.3124         79.7572 
       0.374374         89.0632         76.8914 
       0.380519         85.2173         74.3429 
       0.386598         82.9257         72.1101 
       0.392688         80.5781         70.0893 
        0.39888         79.1412         68.1573 
       0.405048         77.3336         66.2777 
       0.411186         75.4138         64.3914 
       0.417313         73.3022         62.4706 
       0.423458          71.211         60.5343 
       0.429607         69.8811           58.62 
       0.435692         68.5764         56.7958 
       0.441815         65.9834          55.074 
       0.447964         64.0028         53.4747 
       0.454126         62.8642         51.9955 
       0.460267         62.2625          50.631 
       0.466387         60.5599          49.346 
        0.47254         59.7191          48.094 
       0.478662         57.7877         46.8663 
       0.484765         56.6502          45.654 
       0.490885         55.0541         44.4459 
       0.497035          54.281         43.2486 
       0.503198         52.9907         42.0849 
       0.509342         51.5806         40.9766 
       0.515458         50.9342         39.9299 
       0.521598         49.7087         38.9346 
       0.527764         49.0455         37.9893 
       0.533884         48.0583         37.0965 
           0.54         47.0559         36.2368 
       0.546137          45.683         35.3947 
       0.552299         44.9276         34.5634 
       0.558452         44.0107         33.7495 
       0.564573         43.6459          32.958 
       0.570708         42.4329         32.1854 
       0.576825         41.9049         31.4385 
       0.582926         41.2129         30.7201 
       0.589034         40.4072         30.0298 
       0.595184         39.8822         29.3651 
       0.601379         38.8149         28.7222 
       0.607522          38.235         28.1061 
       0.613639         37.6652         27.5092 
       0.619772         37.0182         26.9242 
       0.625918         36.3098         26.3516 
       0.632068         36.0032         25.7931 
       0.638161         35.2678         25.2544 
         0.6443          34.751         24.7271 
       0.650464         33.9064         24.2133 
       0.656582         33.7049         23.7186 
       0.662703         33.3046         23.2386 
       0.668861         32.4372         22.7706 
       0.675024         32.0821         22.3168 
       0.681124         31.8562          21.881 
       0.687237         31.2122         21.4564 
       0.693381         30.6097          21.041 
       0.699536         30.4643         20.6352 
       0.705665         29.9015         20.2406 
       0.711789         29.3886         19.8557 
       0.717957         28.8216         19.4776 
        0.72409         28.5673         19.1112 
       0.730186         28.4296         18.7568 
       0.736317         27.8533           18.41 
       0.742472         27.5086         18.0715 
       0.748622         27.0837         17.7424 
        0.75476          26.443         17.4228 
       0.760888         26.3684         17.1117 
       0.767043          25.924          16.807 
       0.773185         25.6608         16.5103 
       0.779291         25.3876         16.2221 
       0.785407         24.9694           15.94 
       0.791564         24.8299         15.6628 
       0.797719         24.3032         15.3921 
       0.803834         24.1903         15.1295 
       0.809972         23.7429         14.8721 
       0.816124         23.4965         14.6203 
       0.822261         23.2435         14.3751 
       0.828378         23.0043         14.1364 
       0.834502         22.7729          13.903 
       0.840667         22.5323         13.6735 
       0.846816         22.0493           13.45 
       0.852925         21.9916         13.2329 
       0.859047         21.7429         13.0201 
       0.865192         21.4384         12.8114 
       0.871341         21.1668         12.6071 
       0.877463          20.951         12.4082 
       0.883569         20.8339         12.2141 
       0.889708         20.5054         12.0232 
       0.895864         20.2522         11.8359 
       0.902008         20.0241          11.653 
       0.908149         19.7843          11.474 
       0.914301         19.6874         11.2985 
       0.920448         19.3949         11.1269 
       0.926574         19.2522         10.9595 
       0.932687          19.004         10.7959 
       0.938823         18.7691         10.6351 
       0.944975         18.6299         10.4771 
       0.951105         18.4345          10.323 
       0.957225         18.3217         10.1722 
       0.963368         18.0429          10.024 
       0.969511         17.8714         9.87872 
       0.975621         17.7118         9.73711 
       0.981748         17.4917         9.59792 
       0.987916         17.3797         9.46059 
        0.99406         17.1818         9.32646 
        1.00019         17.0594         9.19521 
        1.00632         16.9137         9.06662 
        1.01246         16.7513          8.9403 
        1.01859         16.5558          8.8166 
        1.02471         16.3855          8.6954 
        1.03085         16.3218         8.57607 
        1.03698         16.1732         8.45925 
        1.04314         15.9737         8.34411 
        1.04929         15.7847         8.23139 
        1.05541         15.7213         8.12121 
        1.06154         15.5867         8.01279 
        1.06769         15.4547         7.90619 
        1.07382          15.235         7.80189 
        1.07993         15.1143         7.69971 
        1.08607         15.0459         7.59895 
        1.09222         14.8638          7.4999 
        1.09836         14.7904         7.40274 
        1.10449         14.6113         7.30742 
        1.11063          14.548         7.21368 
        1.11677         14.4586         7.12162 
         1.1229         14.3152         7.03133 
        1.12903         14.2059         6.94254 
        1.13518         14.0263         6.85521 
        1.14131          13.957         6.76944 
        1.14745         13.7662         6.68518 
        1.15359         13.6627         6.60235 
        1.15973         13.5556          6.5209 
        1.16584         13.4516         6.44118 
        1.17197         13.3347         6.36269 
        1.17811         13.2368         6.28527 
        1.18424         13.1498         6.20937 
        1.19038         13.0782          6.1345 
        1.19652         12.9556          6.0609 
        1.20267         12.8693         5.98851 
        1.20881         12.7254         5.91731 
        1.21495         12.6372         5.84739 
        1.22108         12.5876         5.77861 
         1.2272         12.4779          5.7111 
        1.23334         12.4146         5.64451 
        1.23949         12.2936         5.57883 
        1.24562         12.1914         5.51438 
        1.25174         12.1298         5.45105 
        1.25789         11.9936         5.38852 
        1.26402         11.9582         5.32708 
        1.27014         11.8934         5.26676 
        1.27628         11.7381         5.20719 
        1.28244          11.733         5.14843 
        1.28858         11.6196         5.09065 
        1.29471         11.4713          5.0339 
        1.30084         11.4049         4.97806 
        1.30697         11.3963         4.92299 
        1.31312          11.271         4.86867 
        1.31925         11.2123         4.81534 
        1.32537         11.1346         4.76287 
        1.33151         11.0547         4.71099 
        1.33765         10.9742         4.65992 
        1.34378         10.9538         4.60971 
        1.34992         10.8426         4.56021 
        1.35606         10.7484         4.51132 
         1.3622         10.6722         4.46324 
        1.36833         10.6338         4.41598 
        1.37445         10.5662         4.36943 
        1.38059         10.4967         4.32341 
        1.38675         10.4274         4.27794 
        1.39288         10.3288          4.2333 
        1.39901         10.2757         4.18933 
        1.40515         10.2102         4.14588 
         1.4113          10.133         4.10306 
        1.41742         10.0973         4.06101 
        1.42355         10.0004         4.01947 
         1.4297         9.96043         3.97839 
        1.43585         9.90845          3.9379 
        1.44198         9.84957         3.89813 
        1.44809         9.78459         3.85898 
        1.45423           9.707         3.82023 
        1.46036         9.66015         3.78208 
        1.46649         9.59643         3.74444 
        1.47263         9.55398         3.70728 
        1.47877         9.48823         3.67064 
        1.48491         9.44497         3.63444 
        1.49104         9.36428         3.59881 
        1.49718         9.33482         3.56362 
        1.50333         9.27247         3.52885 
        1.50947         9.20397         3.49461 
         1.5156         9.17744         3.46088 
        1.52172         9.11628          3.4276 
        1.52787         9.07053         3.39469 
          1.534         9.01398         3.36224 
        1.54013         8.97365         3.33026 
        1.54627         8.91005         3.29863 
        1.55241          8.8378         3.26742 
        1.55855         8.82822         3.23664 
        1.56467         8.76884         3.20635 
         1.5708          8.7242         3.17637 
        1.57695         8.65684         3.14672 
        1.58308         8.60198         3.11752 
        1.58922         8.57327         3.08867 
        1.59535         8.52364         3.06019 
         1.6015         8.45035         3.03204 
        1.60764         8.42274         3.00425 
        1.61376         8.39485         2.97688 
        1.61989          8.3174         2.94984 
        1.62604          8.2974         2.92307 
        1.63218         8.25813         2.89665 
        1.63831         8.20644         2.87062 
        1.64444         8.13969          2.8449 
        1.65059         8.10456         2.81943 
        1.65673         8.08245          2.7943 
        1.66285          8.0375         2.76955 
        1.66898         7.99854         2.74509 
        1.67512         7.94806         2.72087 
        1.68127         7.88944         2.69693 
         1.6874         7.86989         2.67333 
        1.69353         7.81317         2.65003 
        1.69967         7.78937         2.62695 
        1.70581         7.73347         2.60415 
        1.71193         7.71432         2.58171 
        1.71806         7.67238         2.55949 
        1.72421         7.62067         2.53748 
        1.73035         7.59277         2.51576 
        1.73649         7.55826         2.49429 
        1.74262         7.49299          2.4731 
        1.74876         7.49714         2.45213 
        1.75489         7.44682         2.43145 
        1.76101         7.38943         2.41102 
        1.76715         7.37968         2.39079 
        1.77329         7.34323         2.37077 
        1.77943         7.28254         2.35097 
        1.78557         7.28312         2.33143 
        1.79171         7.24115          2.3121 
        1.79785         7.20979         2.29299 
        1.80399         7.14375          2.2741 
        1.81012         7.13198         2.25545 
        1.81625         7.08375         2.23702 
        1.82239          7.0594         2.21876 
        1.82853         7.01475         2.20072 
        1.83466         6.96901         2.18289 
        1.84078         6.95433         2.16528 
        1.84692         6.92463         2.14784 
        1.85306         6.89271         2.13056 
         1.8592         6.87099         2.11351 
        1.86533         6.84185         2.09665 
        1.87147         6.80114         2.07995 
        1.87761          6.7825         2.06343 
        1.88375         6.73842         2.04711 
        1.88988          6.7053         2.03098 
        1.89601         6.68767         2.01501 
        1.90215         6.63759         1.99921 
        1.90829         6.62435         1.98358 
        1.91442         6.58244         1.96811 
        1.92056         6.57868         1.95283 
         1.9267         6.52575         1.93769 
        1.93284         6.52249         1.92271 
        1.93897         6.47492         1.90791 
        1.94509         6.43072          1.8933 
        1.95123         6.42399          1.8788 
        1.95737          6.3989         1.86445 
        1.96349         6.34915         1.85028 
        1.96964         6.32723         1.83622 
        1.97578         6.30573         1.82229 
        1.98192          6.2738         1.80854 
        1.98805          6.2534         1.79493 
        1.99419         6.23399         1.78146 
        2.00033         6.19054         1.76813 
        2.00647         6.17947         1.75493 
         2.0126           6.152         1.74189 
        2.01874         6.12259         1.72896 
        2.02488           6.101         1.71615 
        2.03101         6.06071         1.70349 
        2.03714         6.03451         1.69097 
        2.04328          6.0187         1.67857 
        2.04941         5.98453          1.6663 
        2.05554         5.97492         1.65416 
        2.06167         5.94867         1.64212 
        2.06781         5.91753         1.63021 
        2.07396         5.89125         1.61839 
        2.08009         5.86991         1.60671 
        2.08622         5.85504         1.59516 
        2.09237         5.83859          1.5837 
        2.09851         5.79303         1.57235 
        2.10464         5.77898         1.56113 
        2.11077         5.75792         1.55004 
        2.11691         5.74481         1.53902 
        2.12305         5.70798         1.52812 
        2.12918         5.69282         1.51734 
        2.13531         5.66484         1.50667 
        2.14145         5.64644         1.49608 
         2.1476         5.62389         1.48557 
        2.15372         5.59617         1.47522 
        2.15985         5.58433         1.46496 
        2.16599          5.5625         1.45476 
        2.17213         5.55265         1.44468 
        2.17827         5.51015         1.43469 
         2.1844         5.49225          1.4248 
        2.19054         5.47847           1.415 
        2.19666         5.45448         1.40531 
         2.2028         5.42126          1.3957 
        2.20893         5.41831         1.38618 
        2.21508         5.39611         1.37673 
        2.22122         5.35335         1.36737 
        2.22736         5.34494         1.35812 
        2.23349          5.3255         1.34895 
        2.23962         5.31499         1.33987 
        2.24577         5.27885         1.33085 
         2.2519         5.27843         1.32194 
        2.25802         5.23143         1.31312 
        2.26417         5.22599         1.30435 
        2.27031          5.2044         1.29566 
        2.27644         5.18458         1.28707 
        2.28257          5.1657         1.27856 
        2.28872         5.15256         1.27011 
        2.29486          5.1283         1.26174 
        2.30099         5.11122         1.25346 
        2.30712         5.09137         1.24525 
        2.31326         5.07339         1.23711 
         2.3194          5.0518         1.22903 
        2.32553         5.03115         1.22105 
        2.33166         5.01978         1.21314 
         2.3378         5.00123         1.20528 
        2.34394         4.97946          1.1975 
        2.35007         4.95753         1.18979 
        2.35619         4.95246         1.18216 
        2.36233         4.92054         1.17458 
        2.36848         4.91325         1.16705 
        2.37462          4.8943         1.15961 
        2.38075         4.88429         1.15223 
        2.38689         4.86495         1.14491 
        2.39303         4.83998         1.13766 
        2.39916         4.82926         1.13048 
        2.40529         4.80506         1.12336 
        2.41143         4.79617         1.11629 
        2.41757         4.78118         1.10929 
         2.4237         4.75863         1.10235 
        2.42983         4.75007         1.09548 
        2.43598         4.73608         1.08864 
        2.44211         4.71346         1.08188 
        2.44823         4.68928         1.07519 
        2.45437          4.6767         1.06854 
        2.46052         4.66523         1.06193 
        2.46665         4.65169          1.0554 
        2.47279         4.62547         1.04892 
        2.47892         4.61297         1.04249 
        2.48507         4.60324         1.03611 
         2.4912         4.58424          1.0298 
