# k  (h/Mpc)    Pcb(k)  (Mpc/h)^3    Pcb_linear(k)  (Mpc/h)^3
     0.00783031         1347.89         1360.54 
       0.013688         1748.17         1748.93 
       0.019231         1838.81         1838.75 
      0.0249154         1756.67         1768.36 
      0.0312784         1598.07         1601.25 
      0.0375637         1424.15         1421.82 
      0.0433917         1274.47         1278.95 
      0.0492413         1167.62         1167.95 
      0.0555754         1070.93         1078.26 
      0.0619321         1009.35         1005.76 
       0.067871         935.948         941.063 
      0.0738098          866.54         872.023 
      0.0800417         786.341         794.083 
      0.0862327         711.928         715.799 
      0.0921407         645.265         646.616 
      0.0982031         583.455         586.338 
       0.104506         539.898          537.38 
       0.110769         503.035         501.271 
       0.116806         473.174         474.701 
       0.122832         452.688         451.915 
       0.129052         426.238          428.44 
       0.135211         400.935         403.062 
       0.141259         376.541         376.027 
       0.147318         350.814         348.346 
       0.153489         322.893         321.706 
       0.159709         300.601         298.325 
       0.165845         284.771         279.542 
       0.171974         267.537         264.809 
       0.178125         256.055         253.006 
       0.184229         246.616         242.826 
        0.19034         233.597         232.857 
       0.196428         225.409         222.324 
       0.202534         216.157         210.976 
       0.208729         203.395         199.054 
       0.214876         190.805         187.515 
       0.220989          182.96             177 
       0.227147         171.671         167.808 
        0.23329         164.294         160.112 
       0.239377          158.78         153.704 
       0.245482         151.288         148.065 
       0.251667         147.768          142.69 
       0.257832           142.3          137.31 
       0.263955         136.769          131.78 
       0.270079         131.395         126.103 
        0.27624         127.206         120.428 
       0.282372         121.745         115.041 
        0.28843         116.403          110.16 
       0.294538         111.939         105.765 
       0.300721         109.152         101.838 
        0.30691           104.6         98.3141 
       0.313033         101.508          95.083 
       0.319153         97.0165         91.9622 
       0.325316         95.4145         88.8417 
        0.33145         91.9027         85.7245 
       0.337538         89.3677         82.6531 
       0.343633         86.1553         79.6576 
       0.349808         83.5362         76.7761 
       0.355968          81.031         74.1002 
       0.362074         78.4773         71.6585 
       0.368217         76.2979         69.3976 
       0.374374         73.9621         67.2821 
       0.380519         72.1549         65.2762 
       0.386598         70.2485         63.3516 
       0.392688         68.7233         61.4591 
        0.39888         66.7029          59.569 
       0.405048         65.0982         57.7277 
       0.411186         63.5529         55.9582 
       0.417313         61.4062         54.2728 
       0.423458         59.9197         52.6722 
       0.429607         58.2912         51.1635 
       0.435692         56.5509         49.7538 
       0.441815         55.6295         48.4021 
       0.447964          54.712         47.0976 
       0.454126         52.6359         45.8322 
       0.460267         51.6605         44.6036 
       0.466387         50.1921           43.41 
        0.47254         49.4323         42.2455 
       0.478662         48.5164         41.1268 
       0.484765         47.1669         40.0543 
       0.490885         46.0816         39.0239 
       0.497035         45.4833         38.0341 
       0.503198         44.3229         37.0844 
       0.509342         43.2187         36.1733 
       0.515458         42.3447         35.2966 
       0.521598         41.6517         34.4439 
       0.527764          40.772         33.6129 
       0.533884         40.0634         32.8113 
           0.54         39.2644         32.0337 
       0.546137         38.6089         31.2781 
       0.552299         37.9904         30.5455 
       0.558452         36.8201         29.8404 
       0.564573         36.3391         29.1633 
       0.570708         35.7604         28.5073 
       0.576825         34.8662         27.8743 
       0.582926         34.2791         27.2626 
       0.589034         33.3689         26.6684 
       0.595184         32.9455         26.0874 
       0.601379         32.3649         25.5188 
       0.607522         31.8089         24.9709 
       0.613639         31.5059         24.4411 
       0.619772         30.6887         23.9258 
       0.625918         30.5281         23.4252 
       0.632068         30.0165         22.9397 
       0.638161         29.3893         22.4729 
         0.6443           28.81         22.0162 
       0.650464         28.3135         21.5706 
       0.656582          28.131         21.1403 
       0.662703         27.6124         20.7213 
       0.668861         27.1255         20.3113 
       0.675024          26.651          19.912 
       0.681124         26.2043         19.5277 
       0.687237         25.7943          19.153 
       0.693381         25.5523         18.7865 
       0.699536          24.896         18.4292 
       0.705665         24.7664         18.0829 
       0.711789         24.2953         17.7459 
       0.717957          23.967         17.4152 
        0.72409          23.599         17.0949 
       0.730186         23.2962         16.7846 
       0.736317          23.056         16.4803 
       0.742472         22.6766         16.1825 
       0.748622         22.4106         15.8924 
        0.75476         21.9864         15.6101 
       0.760888         21.7379         15.3352 
       0.767043         21.4862         15.0659 
       0.773185         21.0838         14.8037 
       0.779291          20.959         14.5493 
       0.785407         20.6711         14.3005 
       0.791564         20.3163         14.0561 
       0.797719          19.955         13.8175 
       0.803834         19.8776          13.586 
       0.809972          19.711         13.3591 
       0.816124         19.2551         13.1368 
       0.822261          19.091         12.9203 
       0.828378         18.8664         12.7094 
       0.834502         18.6861          12.503 
       0.840667         18.4283         12.2999 
       0.846816         18.1198         12.1019 
       0.852925         17.9598         11.9096 
       0.859047         17.7584         11.7211 
       0.865192          17.609         11.5361 
       0.871341         17.4518          11.355 
       0.877463         17.1603         11.1786 
       0.883569         16.9239         11.0065 
       0.889708         16.6759         10.8372 
       0.895864         16.5843          10.671 
       0.902008         16.4355         10.5086 
       0.908149         16.2562         10.3498 
       0.914301         16.0965          10.194 
       0.920448          15.813         10.0416 
       0.926574         15.6744          9.8929 
       0.932687         15.5363         9.74752 
       0.938823         15.3282         9.60456 
       0.944975         15.1442         9.46416 
       0.951105         15.0332         9.32709 
       0.957225         14.9167         9.19299 
       0.963368         14.7461         9.06108 
       0.969511         14.6184         8.93177 
       0.975621         14.4646          8.8057 
       0.981748         14.3047         8.68175 
       0.987916         14.1973         8.55942 
        0.99406         13.9969         8.43992 
        1.00019         13.7913         8.32296 
        1.00632         13.7892         8.20833 
        1.01246         13.6303         8.09571 
        1.01859          13.436         7.98539 
        1.02471         13.3572         7.87728 
        1.03085         13.2361         7.77081 
        1.03698         13.0456         7.66654 
        1.04314         12.9716         7.56376 
        1.04929         12.8012         7.46311 
        1.05541         12.6743         7.36471 
        1.06154         12.5778         7.26786 
        1.06769         12.5252         7.17261 
        1.07382         12.3403          7.0794 
        1.07993         12.2541         6.98806 
        1.08607         12.1495         6.89797 
        1.09222         12.0464         6.80939 
        1.09836         11.9168         6.72247 
        1.10449         11.8209         6.63719 
        1.11063          11.724          6.5533 
        1.11677         11.6495          6.4709 
         1.1229         11.5629         6.39007 
        1.12903         11.4408         6.31056 
        1.13518         11.3078         6.23234 
        1.14131         11.2168         6.15551 
        1.14745         11.1166         6.08001 
        1.15359          11.051         6.00578 
        1.15973         10.9646         5.93276 
        1.16584         10.8098         5.86129 
        1.17197         10.7471          5.7909 
        1.17811         10.6947         5.72146 
        1.18424         10.6088         5.65336 
        1.19038         10.5525         5.58617 
        1.19652          10.442         5.52011 
        1.20267          10.325         5.45512 
        1.20881         10.3061          5.3912 
        1.21495          10.215         5.32841 
        1.22108         10.0985         5.26663 
         1.2272         10.0487         5.20598 
        1.23334         9.92984         5.14615 
        1.23949         9.85956         5.08712 
        1.24562         9.82045         5.02918 
        1.25174          9.7294         4.97224 
        1.25789         9.66552         4.91602 
        1.26402         9.60998         4.86076 
        1.27014         9.52826          4.8065 
        1.27628         9.43075          4.7529 
        1.28244         9.34369         4.70002 
        1.28858         9.33252         4.64802 
        1.29471         9.23472         4.59693 
        1.30084         9.14908         4.54665 
        1.30697         9.15267         4.49706 
        1.31312         8.99502         4.44813 
        1.31925         8.95871          4.4001 
        1.32537         8.89752         4.35282 
        1.33151          8.8619         4.30607 
        1.33765         8.76467         4.26004 
        1.34378         8.69996         4.21478 
        1.34992         8.65333         4.17014 
        1.35606         8.58754         4.12606 
         1.3622          8.5435          4.0827 
        1.36833         8.48115         4.04006 
        1.37445         8.42889         3.99806 
        1.38059         8.39729         3.95653 
        1.38675         8.32281         3.91549 
        1.39288         8.26928          3.8752 
        1.39901         8.18422          3.8355 
        1.40515         8.15253         3.79627 
         1.4113         8.10489          3.7576 
        1.41742         8.05053         3.71962 
        1.42355         7.97994          3.6821 
         1.4297         7.92482         3.64498 
        1.43585         7.90048          3.6084 
        1.44198         7.87254         3.57245 
        1.44809         7.78883         3.53707 
        1.45423         7.73414         3.50203 
        1.46036         7.68951         3.46753 
        1.46649         7.63294         3.43349 
        1.47263         7.57778         3.39988 
        1.47877         7.53368         3.36673 
        1.48491         7.49038         3.33398 
        1.49104          7.4504         3.30173 
        1.49718         7.40815         3.26988 
        1.50333         7.36379         3.23841 
        1.50947         7.31382         3.20741 
         1.5156         7.27154         3.17687 
        1.52172         7.23366         3.14673 
        1.52787         7.19093         3.11692 
          1.534          7.1365         3.08753 
        1.54013         7.11192         3.05856 
        1.54627         7.04498          3.0299 
        1.55241          7.0125         3.00161 
        1.55855          6.9842         2.97372 
        1.56467         6.93263         2.94626 
         1.5708         6.90311         2.91907 
        1.57695         6.84072         2.89219 
        1.58308         6.80206         2.86571 
        1.58922         6.78484         2.83954 
        1.59535         6.74839         2.81371 
         1.6015         6.69899         2.78817 
        1.60764           6.656         2.76295 
        1.61376         6.62438         2.73812 
        1.61989         6.59397         2.71357 
        1.62604         6.54415         2.68928 
        1.63218         6.52909         2.66529 
        1.63831         6.49335         2.64166 
        1.64444         6.45762          2.6183 
        1.65059         6.38902         2.59517 
        1.65673         6.38072         2.57234 
        1.66285         6.32306         2.54986 
        1.66898         6.30399         2.52764 
        1.67512         6.26713         2.50563 
        1.68127         6.23408         2.48388 
         1.6874         6.20938         2.46242 
        1.69353         6.16259         2.44124 
        1.69967         6.13542         2.42026 
        1.70581         6.10208         2.39953 
        1.71193         6.07598         2.37912 
        1.71806          6.0504         2.35891 
        1.72421         6.00676         2.33889 
        1.73035          5.9896         2.31913 
        1.73649         5.95316          2.2996 
        1.74262          5.9097         2.28031 
        1.74876         5.89974         2.26123 
        1.75489         5.87409         2.24241 
        1.76101         5.82291         2.22381 
        1.76715          5.8055         2.20539 
        1.77329         5.77929         2.18716 
        1.77943         5.72726         2.16913 
        1.78557         5.72212         2.15134 
        1.79171         5.68034         2.13373 
        1.79785         5.65568         2.11633 
        1.80399          5.6235         2.09912 
        1.81012          5.6053         2.08212 
        1.81625         5.56842         2.06532 
        1.82239         5.54691         2.04868 
        1.82853         5.52083         2.03224 
        1.83466         5.50319         2.01599 
        1.84078         5.47267         1.99993 
        1.84692         5.45674         1.98403 
        1.85306         5.41109         1.96827 
         1.8592         5.38226         1.95272 
        1.86533         5.36412         1.93734 
        1.87147         5.34408         1.92211 
        1.87761         5.31348         1.90704 
        1.88375         5.28832         1.89214 
        1.88988         5.25692         1.87743 
        1.89601         5.24445         1.86286 
        1.90215         5.22241         1.84843 
        1.90829         5.18838         1.83417 
        1.91442         5.17084         1.82005 
        1.92056         5.13685          1.8061 
         1.9267         5.12117         1.79227 
        1.93284         5.09817         1.77859 
        1.93897         5.07333         1.76507 
        1.94509         5.03953         1.75173 
        1.95123         5.02014         1.73849 
        1.95737         4.99292         1.72537 
        1.96349         4.97904         1.71243 
        1.96964          4.9662         1.69958 
        1.97578         4.93049         1.68685 
        1.98192          4.9171         1.67429 
        1.98805         4.89728         1.66184 
        1.99419         4.87537         1.64953 
        2.00033         4.85859         1.63733 
        2.00647         4.83148         1.62527 
         2.0126         4.81526         1.61334 
        2.01874         4.77966         1.60152 
        2.02488         4.77027          1.5898 
        2.03101         4.73679         1.57822 
        2.03714         4.72218         1.56677 
        2.04328         4.70127         1.55542 
        2.04941         4.66991         1.54419 
        2.05554         4.66057         1.53308 
        2.06167         4.64703         1.52207 
        2.06781         4.62407         1.51116 
        2.07396         4.61179         1.50035 
        2.08009         4.58736         1.48965 
        2.08622         4.56002         1.47908 
        2.09237         4.55509         1.46859 
        2.09851          4.5276         1.45819 
        2.10464         4.50981         1.44792 
        2.11077         4.48749         1.43775 
        2.11691         4.47469         1.42767 
        2.12305         4.45785         1.41767 
        2.12918         4.44815          1.4078 
        2.13531         4.42316         1.39802 
        2.14145         4.40635         1.38831 
         2.1476         4.37939         1.37869 
        2.15372         4.36716          1.3692 
        2.15985         4.35244         1.35979 
        2.16599         4.33143         1.35044 
        2.17213         4.31233          1.3412 
        2.17827         4.29955         1.33204 
         2.1844         4.27859         1.32297 
        2.19054         4.27044         1.31399 
        2.19666         4.24518          1.3051 
         2.2028         4.22772         1.29629 
        2.20893         4.21584         1.28755 
        2.21508         4.19093         1.27888 
        2.22122         4.17862          1.2703 
        2.22736         4.16163          1.2618 
        2.23349         4.15565         1.25339 
        2.23962         4.13107         1.24505 
        2.24577         4.11335         1.23678 
         2.2519         4.10521          1.2286 
        2.25802         4.08503          1.2205 
        2.26417         4.07004         1.21246 
        2.27031         4.05143         1.20447 
        2.27644         4.04018         1.19659 
        2.28257          4.0207         1.18877 
        2.28872         4.01076         1.18101 
        2.29486         3.99184         1.17332 
        2.30099         3.97762         1.16572 
        2.30712         3.95911         1.15818 
        2.31326         3.94508         1.15069 
         2.3194         3.93338         1.14328 
        2.32553         3.91205         1.13594 
        2.33166         3.90712         1.12867 
         2.3378         3.88986         1.12145 
        2.34394         3.87684         1.11429 
        2.35007         3.85871         1.10721 
        2.35619         3.85235          1.1002 
        2.36233         3.84021         1.09323 
        2.36848         3.81601         1.08631 
        2.37462          3.8084         1.07946 
        2.38075         3.79474         1.07268 
        2.38689         3.77904         1.06595 
        2.39303          3.7682         1.05928 
        2.39916         3.75255         1.05267 
        2.40529         3.73877         1.04612 
        2.41143         3.72762         1.03962 
        2.41757         3.71272         1.03317 
         2.4237         3.70139         1.02679 
        2.42983         3.67013         1.02047 
        2.43598         3.67964         1.01418 
        2.44211         3.65476         1.00795 
        2.44823          3.6493          1.0018 
        2.45437         3.62882        0.995671 
        2.46052         3.62151        0.989593 
        2.46665         3.61098        0.983576 
        2.47279         3.59776        0.977611 
        2.47892         3.58616        0.971692 
        2.48507         3.57509        0.965816 
         2.4912         3.55326            0.96 
