# k  (h/Mpc)    P(k)  (Mpc/h)^3    P_linear(k)  (Mpc/h)^3
     0.00783031         6925.22         7020.24 
       0.013688         8937.45         8899.69 
       0.019231         9310.28         9308.23 
      0.0249154         8798.48         8935.31 
      0.0312784         7999.05         8065.68 
      0.0375637         7091.49         7100.91 
      0.0433917         6210.83         6298.88 
      0.0492413          5616.9         5652.72 
      0.0555754         5015.36         5129.94 
      0.0619321         4746.57         4740.78 
       0.067871         4351.91         4441.21 
      0.0738098         4065.99         4155.23 
      0.0800417         3720.43         3839.43 
      0.0862327          3425.8         3504.53 
      0.0921407         3140.26         3179.59 
      0.0982031         2815.34         2863.94 
       0.104506         2597.37          2577.5 
       0.110769         2369.58         2347.78 
       0.116806         2188.81         2178.32 
       0.122832         2075.39         2050.74 
       0.129052         1938.61         1947.25 
       0.135211         1851.04         1856.49 
       0.141259          1780.4         1765.88 
       0.147318         1691.26         1666.94 
       0.153489         1566.66         1557.61 
       0.159709         1476.05         1444.04 
       0.165845         1400.52         1336.34 
       0.171974         1301.53         1240.01 
       0.178125         1228.01         1158.72 
       0.184229          1171.2         1093.94 
        0.19034         1094.84         1042.54 
       0.196428          1075.7         1000.45 
       0.202534         1044.37         962.539 
       0.208729         998.064         924.245 
       0.214876          950.13         883.885 
       0.220989         922.898         840.925 
       0.227147         872.136          796.06 
        0.23329         834.527         751.917 
       0.239377         812.394         711.033 
       0.245482         757.127         674.521 
       0.251667         747.253         642.792 
       0.257832         719.941         616.062 
       0.263955         696.253         593.265 
       0.270079         673.051         572.737 
        0.27624         665.373         552.962 
       0.282372         638.273         533.158 
        0.28843         622.388         513.015 
       0.294538         593.683         492.263 
       0.300721         589.225         471.324 
        0.30691         561.698         451.119 
       0.313033         549.577         432.485 
       0.319153         531.389         415.571 
       0.325316         516.134         400.328 
        0.33145         501.376         386.721 
       0.337538         495.133         374.377 
       0.343633         479.503         362.743 
       0.349808         464.714           351.3 
       0.355968         459.725         339.995 
       0.362074         449.771         328.805 
       0.368217          437.69         317.658 
       0.374374         421.603         306.742 
       0.380519         416.421         296.303 
       0.386598         406.572         286.571 
       0.392688          403.17         277.478 
        0.39888         391.866         268.907 
       0.405048         384.051         260.945 
       0.411186         376.199         253.472 
       0.417313         369.543         246.331 
       0.423458         362.923         239.374 
       0.429607         354.959         232.562 
       0.435692         346.139         225.957 
       0.441815         343.712         219.457 
       0.447964         337.223         213.132 
       0.454126         325.182         207.046 
       0.460267         321.456         201.258 
       0.466387         317.776         195.779 
        0.47254         311.152         190.555 
       0.478662         309.553         185.603 
       0.484765         300.748          180.87 
       0.490885          296.98         176.294 
       0.497035         292.433         171.836 
       0.503198         285.904         167.487 
       0.509342         283.291         163.265 
       0.515458         279.724         159.184 
       0.521598         275.324         155.216 
       0.527764         270.721         151.368 
       0.533884         267.511          147.69 
           0.54         263.841         144.161 
       0.546137         262.534         140.756 
       0.552299          257.46         137.463 
       0.558452         254.306         134.287 
       0.564573         250.136         131.227 
       0.570708         246.001         128.252 
       0.576825         242.891         125.371 
       0.582926          239.96         122.576 
       0.589034         236.892         119.855 
       0.595184         234.672         117.197 
       0.601379          232.45         114.604 
       0.607522         227.669         112.116 
       0.613639         226.793         109.716 
       0.619772         221.682         107.386 
       0.625918         220.067         105.123 
       0.632068          217.38         102.926 
       0.638161         216.228         100.813 
         0.6443         212.737         98.7436 
       0.650464         210.737          96.723 
       0.656582         209.085         94.7706 
       0.662703          206.38         92.8696 
       0.668861         203.424         91.0094 
       0.675024         201.212         89.1993 
       0.681124         200.293         87.4585 
       0.687237         197.018         85.7627 
       0.693381         194.432         84.1055 
       0.699536         193.029         82.4903 
       0.705665         192.887         80.9249 
       0.711789         188.951         79.4016 
       0.717957         188.216         77.9069 
        0.72409          185.83          76.459 
       0.730186         183.096         75.0567 
       0.736317         182.064          73.682 
       0.742472         180.952         72.3369 
       0.748622         179.564          71.027 
        0.75476         177.983         69.7526 
       0.760888         175.507         68.5117 
       0.767043          174.54         67.2963 
       0.773185         172.734         66.1133 
       0.779291         170.212         64.9657 
       0.785407         169.435          63.844 
       0.791564          167.82          62.742 
       0.797719         165.749         61.6668 
       0.803834         165.016         60.6238 
       0.809972         163.054         59.6015 
       0.816124         162.991         58.6007 
       0.822261         160.806         57.6257 
       0.828378         159.397          56.676 
       0.834502         159.033          55.747 
       0.840667         156.691          54.833 
       0.846816         155.582         53.9423 
       0.852925         154.349          53.077 
       0.859047          152.72          52.229 
       0.865192         151.984         51.3969 
       0.871341         150.375         50.5824 
       0.877463         149.287         49.7894 
       0.883569         148.058         49.0155 
       0.889708         147.143         48.2541 
       0.895864         145.696         47.5071 
       0.902008         144.802         46.7775 
       0.908149         144.048         46.0638 
       0.914301         142.465         45.3639 
       0.920448         141.594         44.6793 
       0.926574          140.78         44.0112 
       0.932687         139.998         43.3583 
       0.938823         138.166         42.7164 
       0.944975         137.157         42.0861 
       0.951105         136.412         41.4708 
       0.957225         134.754         40.8689 
       0.963368         134.006          40.277 
       0.969511          133.51         39.6969 
       0.975621          132.91         39.1314 
       0.981748         131.966         38.5755 
       0.987916         130.485          38.027 
        0.99406         129.906         37.4912 
        1.00019         128.937         36.9669 
        1.00632          128.13         36.4532 
        1.01246         127.155         35.9485 
        1.01859         125.697         35.4542 
        1.02471         125.836           34.97 
        1.03085          124.54         34.4931 
        1.03698          123.54         34.0262 
        1.04314         122.571          33.566 
        1.04929          121.88         33.1154 
        1.05541         121.144          32.675 
        1.06154         120.369         32.2415 
        1.06769         120.033         31.8153 
        1.07382         119.371         31.3983 
        1.07993         118.465         30.9897 
        1.08607         117.477         30.5867 
        1.09222         116.881         30.1905 
        1.09836         115.961         29.8018 
        1.10449         115.276         29.4205 
        1.11063         114.616         29.0454 
        1.11677         114.039          28.677 
         1.1229         112.883         28.3157 
        1.12903         112.046         27.9602 
        1.13518         112.224         27.6107 
        1.14131         111.149         27.2673 
        1.14745         110.258         26.9299 
        1.15359         109.668         26.5983 
        1.15973         109.328         26.2721 
        1.16584         108.425         25.9528 
        1.17197         107.778         25.6384 
        1.17811         107.123         25.3283 
        1.18424         106.367         25.0242 
        1.19038         105.838         24.7242 
        1.19652         105.275         24.4293 
        1.20267         104.494         24.1392 
        1.20881         103.905         23.8539 
        1.21495         103.181         23.5737 
        1.22108         102.604          23.298 
         1.2272         101.943         23.0274 
        1.23334         101.475         22.7605 
        1.23949         100.571         22.4972 
        1.24562         100.428         22.2388 
        1.25174         99.6251         21.9849 
        1.25789         99.1216         21.7342 
        1.26402         98.7203         21.4879 
        1.27014         97.7991          21.246 
        1.27628         97.5727         21.0071 
        1.28244          96.718         20.7714 
        1.28858         96.3087         20.5397 
        1.29471         95.7301         20.3121 
        1.30084         95.1494         20.0881 
        1.30697         94.5851         19.8672 
        1.31312         94.2199         19.6493 
        1.31925         93.7227         19.4353 
        1.32537         93.2774         19.2248 
        1.33151         92.3909         19.0166 
        1.33765         91.9305         18.8117 
        1.34378         91.3521         18.6102 
        1.34992         91.1444         18.4115 
        1.35606         90.6123         18.2153 
         1.3622          89.797         18.0223 
        1.36833          89.638         17.8325 
        1.37445         88.9683         17.6456 
        1.38059         88.3973         17.4608 
        1.38675         87.9184         17.2782 
        1.39288         87.3751          17.099 
        1.39901         87.2707         16.9224 
        1.40515         86.7972         16.7479 
         1.4113         85.9824         16.5759 
        1.41742         85.8331          16.407 
        1.42355         85.1218         16.2401 
         1.4297         84.7323         16.0751 
        1.43585         84.1523         15.9124 
        1.44198         83.9359         15.7526 
        1.44809         83.3324         15.5953 
        1.45423          82.926         15.4395 
        1.46036         82.6048         15.2862 
        1.46649         82.0874         15.1349 
        1.47263         81.6852         14.9856 
        1.47877         81.3921         14.8383 
        1.48491         80.8652         14.6928 
        1.49104           80.36         14.5495 
        1.49718         79.9352         14.4081 
        1.50333         79.5065         14.2683 
        1.50947         78.9719         14.1306 
         1.5156          78.797          13.995 
        1.52172         78.2731         13.8612 
        1.52787         78.0711         13.7288 
          1.534         77.6462         13.5983 
        1.54013         77.0455         13.4697 
        1.54627         76.7266         13.3425 
        1.55241         76.2544          13.217 
        1.55855         75.8807         13.0932 
        1.56467         75.3591         12.9713 
         1.5708         75.1534         12.8507 
        1.57695         74.8775         12.7314 
        1.58308         74.2851         12.6139 
        1.58922         74.1253         12.4978 
        1.59535         73.8167         12.3833 
         1.6015         73.2011           12.27 
        1.60764         73.0201         12.1581 
        1.61376         72.5003          12.048 
        1.61989         72.1218         11.9392 
        1.62604         71.8554         11.8314 
        1.63218         71.6276         11.7251 
        1.63831         71.1427         11.6203 
        1.64444         70.8295         11.5167 
        1.65059          70.214         11.4142 
        1.65673         70.0517         11.3131 
        1.66285         69.7073         11.2134 
        1.66898         69.3439         11.1149 
        1.67512         68.8771         11.0174 
        1.68127         68.5376          10.921 
         1.6874         68.2811         10.8259 
        1.69353          67.927         10.7321 
        1.69967         67.5666         10.6391 
        1.70581         67.3915         10.5473 
        1.71193         67.0746         10.4569 
        1.71806         66.4757         10.3674 
        1.72421         66.3936         10.2787 
        1.73035         65.9219         10.1912 
        1.73649         65.5298         10.1047 
        1.74262         65.3338         10.0193 
        1.74876         65.0346         9.93484 
        1.75489          64.608         9.85152 
        1.76101         64.4084         9.76917 
        1.76715         63.9684         9.68766 
        1.77329         63.7166         9.60697 
        1.77943         63.4367         9.52718 
        1.78557         63.1894          9.4484 
        1.79171          62.797         9.37051 
        1.79785         62.5801         9.29347 
        1.80399          62.176         9.21733 
        1.81012          62.036         9.14213 
        1.81625         61.4598         9.06781 
        1.82239         61.2323         8.99421 
        1.82853         60.8443         8.92146 
        1.83466         60.6857         8.84958 
        1.84078          60.184         8.77857 
        1.84692         59.9945         8.70823 
        1.85306         59.7686         8.63857 
         1.8592         59.3675         8.56978 
        1.86533         59.1241         8.50179 
        1.87147         58.8285         8.43445 
        1.87761         58.5993         8.36781 
        1.88375         58.4163         8.30197 
        1.88988         58.2347         8.23692 
        1.89601          57.717         8.17252 
        1.90215         57.4959         8.10876 
        1.90829         57.3106         8.04572 
        1.91442         56.9714         7.98333 
        1.92056         56.6721         7.92167 
         1.9267         56.3217          7.8606 
        1.93284         56.0685         7.80013 
        1.93897          55.838         7.74041 
        1.94509         55.4672         7.68145 
        1.95123         55.3418         7.62295 
        1.95737         55.0999         7.56502 
        1.96349         54.7916         7.50784 
        1.96964         54.5968         7.45108 
        1.97578         54.2631         7.39489 
        1.98192         54.0533         7.33939 
        1.98805          53.853         7.28445 
        1.99419         53.4637         7.23007 
        2.00033         53.2293         7.17622 
        2.00647         53.0538         7.12293 
         2.0126         52.7134         7.07028 
        2.01874          52.455         7.01807 
        2.02488         52.3257         6.96635 
        2.03101         51.9698         6.91525 
        2.03714         51.7244          6.8647 
        2.04328         51.4534         6.81461 
        2.04941         51.1855         6.76505 
        2.05554         50.8842         6.71603 
        2.06167         50.8461         6.66742 
        2.06781         50.5405         6.61929 
        2.07396         50.2213         6.57156 
        2.08009         50.0723         6.52439 
        2.08622         49.7155         6.47773 
        2.09237         49.5441         6.43144 
        2.09851         49.2654         6.38559 
        2.10464         49.0575         6.34027 
        2.11077         48.9013         6.29544 
        2.11691         48.5834         6.25094 
        2.12305         48.2766         6.20687 
        2.12918         48.1027         6.16333 
        2.13531         47.8981         6.12021 
        2.14145         47.6986          6.0774 
         2.1476         47.4933         6.03495 
        2.15372         47.1847         5.99311 
        2.15985         47.0481         5.95164 
        2.16599         46.8698         5.91043 
        2.17213         46.7523         5.86966 
        2.17827         46.3716         5.82929 
         2.1844         46.0744         5.78933 
        2.19054         45.8949         5.74973 
        2.19666         45.7302         5.71056 
         2.2028         45.5429         5.67172 
        2.20893         45.3548         5.63322 
        2.21508         45.1576         5.59503 
        2.22122         44.8809         5.55719 
        2.22736         44.6371         5.51977 
        2.23349           44.51         5.48271 
        2.23962          44.206         5.44597 
        2.24577          44.014         5.40953 
         2.2519         43.8114         5.37348 
        2.25802          43.751         5.33781 
        2.26417         43.4312         5.30237 
        2.27031         43.2776         5.26722 
        2.27644          42.933         5.23248 
        2.28257         42.8475         5.19807 
        2.28872         42.5402         5.16389 
        2.29486         42.4167         5.13003 
        2.30099         42.2454         5.09655 
        2.30712         42.0336         5.06334 
        2.31326         41.8712         5.03038 
         2.3194         41.6343         4.99773 
        2.32553         41.4611         4.96542 
        2.33166         41.2413         4.93342 
         2.3378         41.0528         4.90165 
        2.34394          40.757         4.87015 
        2.35007         40.6249         4.83897 
        2.35619         40.5859          4.8081 
        2.36233         40.3697         4.77743 
        2.36848         40.0455         4.74696 
        2.37462         40.0236         4.71683 
        2.38075         39.7329         4.68698 
        2.38689         39.6395         4.65737 
        2.39303         39.4458         4.62802 
        2.39916         39.2433         4.59895 
        2.40529         38.9653         4.57013 
        2.41143          38.863         4.54154 
        2.41757         38.7117         4.51318 
         2.4237         38.5377         4.48511 
        2.42983          38.356         4.45729 
        2.43598         38.1337         4.42963 
        2.44211         38.0179         4.40224 
        2.44823         37.8098         4.37515 
        2.45437         37.6872         4.34822 
        2.46052         37.4479         4.32149 
        2.46665         37.3219         4.29503 
        2.47279         37.1662          4.2688 
        2.47892         36.9232         4.24277 
        2.48507          36.784         4.21693 
         2.4912         36.6184         4.19136 
