# k  (h/Mpc)    P(k)  (Mpc/h)^3    P_linear(k)  (Mpc/h)^3
     0.00783031         1294.21         1308.77 
       0.013688         1689.82         1692.32 
       0.019231          1786.7         1787.76 
      0.0249154          1711.7         1724.02 
      0.0312784          1551.7         1555.66 
      0.0375637         1364.76         1362.88 
      0.0433917         1196.73         1200.63 
      0.0492413         1070.39         1070.03 
      0.0555754         960.934         966.473 
      0.0619321         897.435         893.204 
       0.067871         836.781         840.605 
      0.0738098         788.036         792.529 
      0.0800417         731.836         738.943 
      0.0862327          675.55         679.471 
      0.0921407         616.887         618.602 
      0.0982031          553.37         556.488 
       0.104506         500.039         497.692 
       0.110769         451.485         449.114 
       0.116806         412.962         412.995 
       0.122832         388.678         386.571 
       0.129052         366.277         366.857 
       0.135211         350.639          351.55 
       0.141259         338.083         337.441 
       0.147318         323.693         321.934 
       0.153489         303.942          303.69 
       0.159709         284.336         283.153 
       0.165845          266.15         262.123 
       0.171974         244.271         242.047 
       0.178125         227.556         224.266 
       0.184229         214.084         209.767 
        0.19034         200.372         198.478 
       0.196428          193.76         189.918 
       0.202534         188.366         183.125 
       0.208729         180.939         177.014 
       0.214876         173.325         170.822 
       0.220989         168.462         163.983 
       0.227147         158.814         156.274 
        0.23329         150.982         148.017 
       0.239377         143.853         139.757 
       0.245482         134.848         131.915 
       0.251667         129.767         124.837 
       0.257832         123.899         118.864 
       0.263955         119.038         113.988 
       0.270079         114.999         109.958 
        0.27624         112.471         106.457 
       0.282372         108.833         103.195 
        0.28843         104.905         99.9307 
       0.294538         101.281          96.451 
       0.300721         98.5484         92.7108 
        0.30691         93.9537         88.8429 
       0.313033         90.5024         85.0418 
       0.319153         85.9026         81.4343 
       0.325316         84.0497         78.1135 
        0.33145         80.8226         75.1865 
       0.337538         78.6238         72.6379 
       0.343633         76.0677         70.3857 
       0.349808          74.094         68.3067 
       0.355968         72.1259         66.3353 
       0.362074         70.0028         64.4006 
       0.368217         68.0815         62.4245 
       0.374374         65.9013         60.4102 
       0.380519         64.1381         58.3869 
       0.386598         62.2934         56.4216 
       0.392688         60.7757         54.5336 
        0.39888         58.8986         52.7343 
       0.405048          57.465         51.0858 
       0.411186         56.1014         49.5803 
       0.417313         54.2754         48.1962 
       0.423458         53.0286          46.896 
       0.429607         51.6214         45.6489 
       0.435692         50.1385         44.4448 
       0.441815         49.2705         43.2464 
       0.447964         48.4212         42.0493 
       0.454126         46.5689         40.8656 
       0.460267           45.67          39.713 
       0.466387         44.3265         38.6035 
        0.47254         43.6307         37.5397 
       0.478662         42.8058         36.5404 
       0.484765         41.6007         35.5998 
       0.490885         40.6528         34.7075 
       0.497035         40.1373         33.8544 
       0.503198         39.1234         33.0327 
       0.509342         38.1506         32.2361 
       0.515458         37.3674         31.4606 
       0.521598         36.7283         30.6985 
       0.527764         35.9439         29.9489 
       0.533884         35.3116         29.2228 
           0.54         34.5847         28.5194 
       0.546137         33.9953         27.8396 
       0.552299         33.4376         27.1846 
       0.558452         32.4131         26.5573 
       0.564573         31.9942         25.9581 
       0.570708         31.4638         25.3805 
       0.576825         30.6741         24.8246 
       0.582926         30.1622         24.2865 
       0.589034         29.3565         23.7611 
       0.595184          28.979         23.2446 
       0.601379         28.4485         22.7377 
       0.607522         27.9712         22.2483 
       0.613639         27.6843         21.7747 
       0.619772         26.9679         21.3139 
       0.625918         26.8127         20.8663 
       0.632068          26.366          20.433 
       0.638161         25.8007          20.018 
         0.6443         25.2919         19.6131 
       0.650464          24.847         19.2188 
       0.656582         24.6853         18.8383 
       0.662703         24.2299         18.4672 
       0.668861         23.7929         18.1032 
       0.675024         23.3674         17.7482 
       0.681124         22.9782         17.4059 
       0.687237         22.6183         17.0719 
       0.693381         22.4011         16.7452 
       0.699536         21.8155         16.4267 
       0.705665         21.6879         16.1181 
       0.711789          21.281          15.818 
       0.717957         20.9803         15.5238 
        0.72409         20.6589         15.2392 
       0.730186         20.3909         14.9638 
       0.736317         20.1783         14.6938 
       0.742472         19.8495         14.4295 
       0.748622         19.6023         14.1719 
        0.75476         19.2284          13.921 
       0.760888         19.0063         13.6764 
       0.767043          18.784         13.4366 
       0.773185         18.4219          13.203 
       0.779291         18.3184         12.9764 
       0.785407         18.0604          12.755 
       0.791564         17.7537         12.5375 
       0.797719         17.4346         12.3253 
       0.803834          17.364         12.1196 
       0.809972         17.2116          11.918 
       0.816124         16.8222         11.7206 
       0.822261         16.6579         11.5282 
       0.828378         16.4625         11.3408 
       0.834502         16.3139         11.1573 
       0.840667          16.073         10.9767 
       0.846816         15.8012         10.8006 
       0.852925         15.6618         10.6295 
       0.859047         15.4837         10.4618 
       0.865192         15.3526         10.2971 
       0.871341         15.2116          10.136 
       0.877463         14.9573         9.97908 
       0.883569         14.7492         9.82594 
       0.889708         14.5282         9.67527 
       0.895864         14.4393         9.52742 
       0.902008          14.306         9.38301 
       0.908149         14.1509         9.24171 
       0.914301          14.001         9.10312 
       0.920448         13.7636         8.96753 
       0.926574         13.6358         8.83519 
       0.932687         13.5145         8.70582 
       0.938823         13.3312         8.57859 
       0.944975         13.1717         8.45363 
       0.951105         13.0668         8.33163 
       0.957225         12.9751         8.21226 
       0.963368         12.8231         8.09485 
       0.969511          12.704         7.97975 
       0.975621         12.5639         7.86752 
       0.981748         12.4255         7.75719 
       0.987916         12.3289         7.64829 
        0.99406         12.1511         7.54191 
        1.00019         11.9722         7.43779 
        1.00632         11.9664         7.33575 
        1.01246         11.8281         7.23549 
        1.01859         11.6585         7.13728 
        1.02471          11.586         7.04103 
        1.03085         11.4778         6.94625 
        1.03698          11.314         6.85342 
        1.04314         11.2486         6.76192 
        1.04929         11.1001         6.67232 
        1.05541         10.9865         6.58471 
        1.06154         10.9045         6.49848 
        1.06769         10.8569         6.41368 
        1.07382         10.6922         6.33068 
        1.07993         10.6107         6.24935 
        1.08607         10.5289         6.16913 
        1.09222         10.4332         6.09025 
        1.09836         10.3247         6.01286 
        1.10449         10.2347         5.93691 
        1.11063          10.147         5.86219 
        1.11677         10.0842          5.7888 
         1.1229         10.0052         5.71681 
        1.12903         9.89603         5.64598 
        1.13518         9.78447          5.5763 
        1.14131         9.69882         5.50785 
        1.14745         9.60838         5.44059 
        1.15359          9.5531         5.37445 
        1.15973         9.47545         5.30939 
        1.16584         9.34419          5.2457 
        1.17197         9.28504         5.18298 
        1.17811          9.2393         5.12109 
        1.18424         9.16562         5.06041 
        1.19038         9.11608         5.00054 
        1.19652         9.01905         4.94166 
        1.20267         8.91647         4.88374 
        1.20881         8.89599         4.82676 
        1.21495         8.81776         4.77079 
        1.22108         8.71749         4.71572 
         1.2272         8.67431         4.66166 
        1.23334         8.56889         4.60832 
        1.23949         8.50629          4.5557 
        1.24562         8.47034         4.50406 
        1.25174          8.3887         4.45329 
        1.25789         8.33386         4.40316 
        1.26402          8.2823          4.3539 
        1.27014         8.21199         4.30552 
        1.27628         8.13234         4.25773 
        1.28244         8.05162         4.21058 
        1.28858         8.04062         4.16422 
        1.29471         7.95364         4.11866 
        1.30084         7.88028         4.07383 
        1.30697         7.88392          4.0296 
        1.31312         7.74375         3.98597 
        1.31925         7.71233         3.94314 
        1.32537         7.65776         3.90097 
        1.33151          7.6279         3.85928 
        1.33765         7.54139         3.81823 
        1.34378         7.48649         3.77785 
        1.34992         7.45013         3.73804 
        1.35606         7.38326         3.69872 
         1.3622         7.34713         3.66004 
        1.36833         7.29268         3.62201 
        1.37445         7.24724         3.58454 
        1.38059         7.22029         3.54748 
        1.38675         7.15673         3.51087 
        1.39288         7.10926         3.47492 
        1.39901          7.0367         3.43949 
        1.40515         7.00543         3.40448 
         1.4113         6.96121         3.36998 
        1.41742         6.91521         3.33608 
        1.42355         6.85505         3.30259 
         1.4297         6.80653         3.26947 
        1.43585         6.78549         3.23681 
        1.44198         6.75879         3.20473 
        1.44809         6.68655         3.17314 
        1.45423         6.63913         3.14187 
        1.46036         6.59734         3.11107 
        1.46649         6.54862         3.08068 
        1.47263         6.50236         3.05067 
        1.47877          6.4607         3.02108 
        1.48491         6.42457         2.99184 
        1.49104         6.39037         2.96304 
        1.49718         6.35183         2.93461 
        1.50333         6.31526         2.90651 
        1.50947         6.26977         2.87883 
         1.5156         6.23347         2.85156 
        1.52172         6.19963         2.82464 
        1.52787         6.16431         2.79802 
          1.534         6.11599         2.77177 
        1.54013         6.09288         2.74589 
        1.54627         6.03501          2.7203 
        1.55241         6.00501         2.69503 
        1.55855         5.98221         2.67012 
        1.56467          5.9383         2.64559 
         1.5708         5.90793          2.6213 
        1.57695         5.85776         2.59729 
        1.58308         5.82163         2.57363 
        1.58922         5.80829         2.55025 
        1.59535         5.77422         2.52718 
         1.6015         5.73151         2.50435 
        1.60764         5.69509         2.48183 
        1.61376         5.66667         2.45964 
        1.61989         5.63973         2.43771 
        1.62604         5.59713         2.41599 
        1.63218         5.58443         2.39456 
        1.63831         5.55033         2.37344 
        1.64444         5.51832         2.35256 
        1.65059         5.46355         2.33189 
        1.65673         5.45535         2.31149 
        1.66285         5.40682         2.29139 
        1.66898         5.38758         2.27153 
        1.67512          5.3538         2.25186 
        1.68127         5.32553         2.23241 
         1.6874         5.30672         2.21324 
        1.69353         5.26013          2.1943 
        1.69967         5.24064         2.17554 
        1.70581         5.21366         2.15701 
        1.71193         5.18879         2.13876 
        1.71806         5.16476         2.12069 
        1.72421         5.13034         2.10279 
        1.73035         5.11396         2.08512 
        1.73649         5.08033         2.06765 
        1.74262         5.04527         2.05041 
        1.74876         5.03539         2.03334 
        1.75489         5.01009         2.01651 
        1.76101         4.96665         1.99987 
        1.76715         4.95232          1.9834 
        1.77329         4.93054          1.9671 
        1.77943         4.88465         1.95097 
        1.78557         4.87822         1.93505 
        1.79171         4.84555          1.9193 
        1.79785         4.82186         1.90373 
        1.80399         4.79586         1.88833 
        1.81012         4.77995         1.87313 
        1.81625         4.74849          1.8581 
        1.82239         4.72687         1.84321 
        1.82853         4.70267          1.8285 
        1.83466         4.69002         1.81396 
        1.84078         4.66327         1.79959 
        1.84692          4.6484         1.78536 
        1.85306         4.60938         1.77126 
         1.8592          4.5852         1.75734 
        1.86533         4.56865         1.74358 
        1.87147         4.55164         1.72995 
        1.87761         4.52519         1.71646 
        1.88375         4.50201         1.70313 
        1.88988         4.47532         1.68996 
        1.89601         4.46333         1.67692 
        1.90215         4.44325         1.66401 
        1.90829         4.41356         1.65124 
        1.91442         4.39964          1.6386 
        1.92056         4.37002         1.62611 
         1.9267         4.35727         1.61374 
        1.93284         4.33816         1.60148 
        1.93897         4.31668         1.58938 
        1.94509         4.28719         1.57743 
        1.95123         4.27044         1.56558 
        1.95737         4.24623         1.55383 
        1.96349         4.23476         1.54224 
        1.96964         4.22375         1.53073 
        1.97578         4.19136         1.51934 
        1.98192         4.18033         1.50809 
        1.98805         4.16323         1.49694 
        1.99419         4.14345         1.48592 
        2.00033         4.13023         1.47499 
        2.00647         4.10584         1.46418 
         2.0126          4.0925          1.4535 
        2.01874         4.06125         1.44291 
        2.02488         4.05284         1.43241 
        2.03101         4.02375         1.42204 
        2.03714         4.01079         1.41178 
        2.04328          3.9944         1.40161 
        2.04941         3.96625         1.39155 
        2.05554         3.95936          1.3816 
        2.06167         3.94604         1.37173 
        2.06781         3.92696         1.36196 
        2.07396          3.9152         1.35226 
        2.08009          3.8942         1.34268 
        2.08622         3.87116         1.33321 
        2.09237         3.86633          1.3238 
        2.09851         3.84354         1.31449 
        2.10464         3.82955         1.30528 
        2.11077         3.81044         1.29617 
        2.11691         3.79668         1.28713 
        2.12305         3.78353         1.27817 
        2.12918          3.7742         1.26932 
        2.13531         3.75421         1.26056 
        2.14145         3.73844         1.25186 
         2.1476         3.71576         1.24323 
        2.15372         3.70391         1.23472 
        2.15985         3.69085         1.22629 
        2.16599         3.67492         1.21791 
        2.17213          3.6552         1.20962 
        2.17827         3.64531          1.2014 
         2.1844         3.62809         1.19327 
        2.19054         3.62043         1.18522 
        2.19666         3.59927         1.17725 
         2.2028         3.58361         1.16935 
        2.20893         3.57293         1.16151 
        2.21508         3.55292         1.15374 
        2.22122         3.54113         1.14604 
        2.22736         3.52632         1.13842 
        2.23349         3.52018         1.13088 
        2.23962         3.49956          1.1234 
        2.24577          3.4858         1.11598 
         2.2519         3.47611         1.10864 
        2.25802         3.46218         1.10138 
        2.26417         3.44855         1.09416 
        2.27031          3.4322           1.087 
        2.27644         3.42274         1.07993 
        2.28257         3.40498         1.07292 
        2.28872           3.397         1.06595 
        2.29486         3.37973         1.05906 
        2.30099         3.36763         1.05223 
        2.30712         3.35155         1.04547 
        2.31326         3.34102         1.03875 
         2.3194         3.32988          1.0321 
        2.32553         3.31318         1.02551 
        2.33166         3.30718         1.01899 
         2.3378         3.29278         1.01251 
        2.34394         3.28122         1.00609 
        2.35007         3.26584        0.999731 
        2.35619         3.26047        0.993437 
        2.36233         3.24799        0.987182 
        2.36848         3.22965        0.980969 
        2.37462         3.22208        0.974822 
        2.38075         3.20889        0.968734 
        2.38689          3.1983        0.962693 
        2.39303         3.18697        0.956705 
        2.39916         3.17434        0.950774 
        2.40529         3.16246        0.944894 
        2.41143         3.15184         0.93906 
        2.41757         3.13913        0.933272 
         2.4237         3.12954        0.927544 
        2.42983         3.10527        0.921865 
        2.43598         3.11202        0.916218 
        2.44211         3.09084        0.910628 
        2.44823         3.08608        0.905098 
        2.45437         3.06931        0.899598 
        2.46052         3.06262         0.89414 
        2.46665         3.05361        0.888736 
        2.47279         3.04077        0.883379 
        2.47892         3.03171        0.878063 
        2.48507         3.02139        0.872786 
         2.4912         3.00292        0.867562 
