# k  (h/Mpc)    Pcb(k)  (Mpc/h)^3    Pcb_linear(k)  (Mpc/h)^3
     0.00783031         10261.6         10395.8 
       0.013688         12987.5         12895.4 
       0.019231         13258.2           13240 
      0.0249154           12267         12485.9 
      0.0312784         10961.5         11067.1 
      0.0375637         9584.48          9594.9 
      0.0433917            8285         8418.97 
      0.0492413         7448.35         7500.01 
      0.0555754         6598.29         6774.99 
      0.0619321         6253.06         6242.73 
       0.067871         5694.22         5830.85 
      0.0738098         5299.48         5431.46 
      0.0800417         4813.27         4986.28 
      0.0862327         4407.65         4516.14 
      0.0921407         4026.19         4066.63 
      0.0982031         3588.05          3639.1 
       0.104506         3313.64         3261.03 
       0.110769         3021.08         2966.17 
       0.116806         2798.87         2754.05 
       0.122832         2653.73         2596.37 
       0.129052         2472.76         2466.83 
       0.135211         2359.83         2348.66 
       0.141259          2268.2         2226.22 
       0.147318         2147.93         2090.64 
       0.153489         1979.46         1941.96 
       0.159709         1864.31         1790.72 
       0.165845         1771.18         1651.24 
       0.171974         1651.61          1530.2 
       0.178125         1560.31         1431.01 
       0.184229         1488.49         1353.67 
        0.19034         1395.44         1292.59 
       0.196428         1372.08         1241.42 
       0.202534         1328.65         1193.27 
       0.208729         1269.04         1142.67 
       0.214876         1210.39          1088.5 
       0.220989         1171.95         1031.23 
       0.227147         1112.38         972.644 
        0.23329         1064.59         916.581 
       0.239377         1039.89         866.152 
       0.245482         969.805         822.239 
       0.251667         960.532         784.723 
       0.257832          923.97         753.199 
       0.263955         894.275         725.822 
       0.270079         863.354         700.366 
        0.27624         854.405         675.059 
       0.282372         818.616         649.234 
        0.28843         803.751             623 
       0.294538         763.936         596.315 
       0.300721         759.712         569.969 
        0.30691         725.257         545.127 
       0.313033         710.787         522.699 
       0.319153         691.625         502.608 
       0.325316          670.28         484.565 
        0.33145         652.581         468.308 
       0.337538         643.686          453.29 
       0.343633         624.478         438.821 
       0.349808         603.851         424.387 
       0.355968         599.337         410.023 
       0.362074         589.145         395.903 
       0.368217         572.478         381.987 
       0.374374         549.205         368.578 
       0.380519         546.088          355.95 
       0.386598         532.529         344.289 
       0.392688         529.893         333.465 
        0.39888         514.221          323.22 
       0.405048         504.633         313.625 
       0.411186         495.782         304.521 
       0.417313         486.458         295.715 
       0.423458         478.004         287.092 
       0.429607         468.995         278.647 
       0.435692         458.198         270.487 
       0.441815         454.693         262.531 
       0.447964         445.282         254.862 
       0.454126          433.76         247.529 
       0.460267         427.153         240.593 
       0.466387         422.369          234.04 
        0.47254          414.16         227.766 
       0.478662         412.953         221.787 
       0.484765         399.954         216.046 
       0.490885         396.112         210.471 
       0.497035           388.9         205.021 
       0.503198         382.784         199.712 
       0.509342         379.808         194.579 
       0.515458           375.7         189.637 
       0.521598         367.809          184.85 
       0.527764         361.237         180.225 
       0.533884          358.86         175.819 
           0.54         353.904         171.589 
       0.546137         352.482         167.498 
       0.552299         345.241         163.532 
       0.558452         342.909         159.701 
       0.564573         337.581         156.006 
       0.570708         331.896         152.409 
       0.576825          326.03         148.925 
       0.582926         323.788         145.553 
       0.589034         320.665          142.28 
       0.595184          317.58          139.09 
       0.601379         313.962         135.983 
       0.607522         308.674         133.001 
       0.613639         307.292         130.125 
       0.619772         300.101         127.332 
       0.625918         298.971         124.618 
       0.632068         294.553         121.982 
       0.638161         293.388         119.445 
         0.6443         288.325         116.959 
       0.650464         285.776         114.532 
       0.656582         284.255          112.19 
       0.662703         282.125         109.913 
       0.668861         277.088         107.687 
       0.675024          274.19         105.524 
       0.681124          272.98         103.443 
       0.687237         269.696         101.416 
       0.693381         265.724         99.4347 
       0.699536         263.475          97.503 
       0.705665         261.839         95.6309 
       0.711789         258.958         93.8097 
       0.717957         257.423         92.0235 
        0.72409           254.6         90.2939 
       0.730186         251.834         88.6194 
       0.736317         249.198         86.9784 
       0.742472         248.037         85.3732 
       0.748622         245.934         83.8103 
        0.75476         243.846         82.2902 
       0.760888         240.622         80.8104 
       0.767043         240.526         79.3615 
       0.773185         237.461         77.9515 
       0.779291         233.368         76.5841 
       0.785407         232.826         75.2479 
       0.791564         230.431         73.9354 
       0.797719         227.962         72.6551 
       0.803834         226.654         71.4135 
       0.809972         225.058         70.1967 
       0.816124         225.089         69.0057 
       0.822261         221.591         67.8457 
       0.828378         219.883          66.716 
       0.834502         219.465         65.6113 
       0.840667         216.081         64.5245 
       0.846816         214.792         63.4656 
       0.852925         213.708         62.4373 
       0.859047         211.722         61.4297 
       0.865192          209.85         60.4411 
       0.871341         207.964         59.4738 
       0.877463         206.591         58.5321 
       0.883569         205.534         57.6133 
       0.889708         203.644         56.7096 
       0.895864         201.162         55.8231 
       0.902008         200.544         54.9575 
       0.908149         199.724         54.1108 
       0.914301         197.254         53.2806 
       0.920448         195.812         52.4687 
       0.926574         194.799         51.6766 
       0.932687         194.406         50.9026 
       0.938823         191.994         50.1418 
       0.944975         190.412         49.3948 
       0.951105          189.65         48.6658 
       0.957225         187.684         47.9528 
       0.963368         185.629         47.2517 
       0.969511         184.957         46.5647 
       0.975621         183.638         45.8951 
       0.981748         183.406          45.237 
       0.987916         181.248         44.5877 
        0.99406         179.786         43.9537 
        1.00019         179.651         43.3333 
        1.00632         177.915         42.7255 
        1.01246         176.746         42.1285 
        1.01859         175.871         41.5439 
        1.02471         174.303         40.9712 
        1.03085         172.494         40.4074 
        1.03698         171.722         39.8555 
        1.04314         170.425         39.3115 
        1.04929         169.154         38.7791 
        1.05541         168.795         38.2587 
        1.06154         167.388         37.7466 
        1.06769         167.253         37.2431 
        1.07382         165.792         36.7506 
        1.07993         164.322         36.2681 
        1.08607         163.464         35.7923 
        1.09222         162.703         35.3246 
        1.09836         161.246         34.8658 
        1.10449         159.854         34.4157 
        1.11063         158.643         33.9731 
        1.11677         158.397         33.5385 
         1.1229         156.836         33.1122 
        1.12903         156.098          32.693 
        1.13518         155.683         32.2807 
        1.14131         154.078         31.8758 
        1.14745         153.608         31.4781 
        1.15359         152.431         31.0871 
        1.15973         151.981         30.7026 
        1.16584          150.33         30.3263 
        1.17197         149.764         29.9558 
        1.17811         148.869         29.5904 
        1.18424         148.085         29.2321 
        1.19038          147.63         28.8787 
        1.19652         146.458         28.5314 
        1.20267         145.703         28.1897 
        1.20881         144.405         27.8537 
        1.21495         143.875         27.5238 
        1.22108         143.148         27.1992 
         1.2272         141.871         26.8807 
        1.23334          141.26         26.5665 
        1.23949         139.987         26.2567 
        1.24562         139.476         25.9526 
        1.25174         137.998         25.6539 
        1.25789         137.539         25.3589 
        1.26402          136.86         25.0691 
        1.27014         135.957         24.7846 
        1.27628         135.303         24.5036 
        1.28244          134.73         24.2265 
        1.28858         134.082         23.9541 
        1.29471         132.579         23.6864 
        1.30084         132.178         23.4231 
        1.30697         131.367         23.1634 
        1.31312         130.981         22.9073 
        1.31925         129.792         22.6559 
        1.32537         129.254         22.4085 
        1.33151         127.999          22.164 
        1.33765         127.705         21.9232 
        1.34378         126.833         21.6865 
        1.34992         126.574         21.4531 
        1.35606         125.738         21.2227 
         1.3622         124.771          20.996 
        1.36833         124.079         20.7733 
        1.37445         123.282         20.5538 
        1.38059         122.902         20.3369 
        1.38675         121.935         20.1226 
        1.39288         121.533         19.9122 
        1.39901         121.068          19.705 
        1.40515         120.171         19.5002 
         1.4113         119.082         19.2984 
        1.41742         118.865         19.1002 
        1.42355         117.986         18.9045 
         1.4297         117.347         18.7109 
        1.43585         116.373         18.5201 
        1.44198          116.24         18.3327 
        1.44809         115.327         18.1482 
        1.45423         114.545         17.9656 
        1.46036         114.305         17.7859 
        1.46649         113.512         17.6085 
        1.47263         112.945         17.4334 
        1.47877         112.484         17.2608 
        1.48491         111.421         17.0902 
        1.49104         111.126         16.9223 
        1.49718         110.177         16.7565 
        1.50333         109.779         16.5927 
        1.50947         109.261         16.4315 
         1.5156         108.584         16.2726 
        1.52172         107.905         16.1158 
        1.52787         107.498         15.9608 
          1.534         106.836         15.8079 
        1.54013         106.103         15.6573 
        1.54627         105.711         15.5084 
        1.55241         105.004         15.3613 
        1.55855         104.572         15.2164 
        1.56467         104.109         15.0738 
         1.5708         103.328         14.9325 
        1.57695         103.129         14.7929 
        1.58308         102.142         14.6554 
        1.58922         102.033         14.5196 
        1.59535          101.35         14.3855 
         1.6015         100.809         14.2529 
        1.60764         100.219         14.1221 
        1.61376         99.9893         13.9933 
        1.61989         99.2057         13.8659 
        1.62604         98.8335         13.7399 
        1.63218         98.3138         13.6155 
        1.63831         97.5236          13.493 
        1.64444         97.2047         13.3719 
        1.65059         96.6033          13.252 
        1.65673         95.8106         13.1337 
        1.66285         95.7065         13.0172 
        1.66898         95.0152          12.902 
        1.67512         94.5628          12.788 
        1.68127         94.0227         12.6753 
         1.6874         93.4766         12.5642 
        1.69353         92.9726         12.4545 
        1.69967         92.4906         12.3459 
        1.70581          92.141         12.2386 
        1.71193         91.8186         12.1329 
        1.71806         91.0643         12.0283 
        1.72421         90.6392         11.9247 
        1.73035         90.1348         11.8225 
        1.73649         89.6264         11.7215 
        1.74262         89.1851         11.6217 
        1.74876         88.8286          11.523 
        1.75489         88.0703         11.4257 
        1.76101         87.8414         11.3296 
        1.76715          87.245         11.2344 
        1.77329         86.9395         11.1402 
        1.77943            86.3          11.047 
        1.78557         86.0925          10.955 
        1.79171         85.4395         10.8641 
        1.79785         85.0742         10.7742 
        1.80399         84.6972         10.6853 
        1.81012         84.3334         10.5975 
        1.81625         83.7457         10.5108 
        1.82239         83.4413         10.4249 
        1.82853         83.1444           10.34 
        1.83466         82.5149         10.2561 
        1.84078         82.3531         10.1733 
        1.84692         81.6091         10.0912 
        1.85306          81.166         10.0099 
         1.8592         80.7696         9.92968 
        1.86533         80.4346         9.85037 
        1.87147         79.8025         9.77183 
        1.87761         79.5835         9.69411 
        1.88375         79.1765         9.61733 
        1.88988         78.7738         9.54146 
        1.89601         78.3119         9.46637 
        1.90215         77.9676         9.39202 
        1.90829         77.6304         9.31851 
        1.91442          77.193         9.24578 
        1.92056         76.5599         9.17389 
         1.9267         76.4288         9.10269 
        1.93284         75.8459          9.0322 
        1.93897         75.4686         8.96259 
        1.94509         75.1752         8.89386 
        1.95123         74.7398         8.82568 
        1.95737         74.5309         8.75816 
        1.96349         73.8936         8.69152 
        1.96964         73.5878         8.62538 
        1.97578         73.3738          8.5599 
        1.98192         72.8753         8.49523 
        1.98805         72.5657         8.43123 
        1.99419         72.0546         8.36787 
        2.00033         71.7891         8.30514 
        2.00647         71.4737         8.24307 
         2.0126         70.9561         8.18174 
        2.01874         70.5767         8.12093 
        2.02488         70.3299         8.06069 
        2.03101         70.0453         8.00118 
        2.03714          69.516         7.94232 
        2.04328         69.3123         7.88398 
        2.04941          68.866         7.82628 
        2.05554         68.6077          7.7692 
        2.06167         68.1935          7.7126 
        2.06781         67.8413         7.65657 
        2.07396         67.4941         7.60101 
        2.08009         67.2183         7.54609 
        2.08622         66.9346         7.49179 
        2.09237         66.5022         7.43791 
        2.09851         66.3105         7.38455 
        2.10464         65.8628          7.3318 
        2.11077         65.4387         7.27962 
        2.11691         65.2041         7.22785 
        2.12305         64.8768         7.17657 
        2.12918         64.5669         7.12591 
        2.13531         64.1669         7.07574 
        2.14145         63.8514         7.02593 
         2.1476         63.6147         6.97655 
        2.15372         63.2778         6.92789 
        2.15985         62.9187         6.87964 
        2.16599         62.6169         6.83171 
        2.17213         62.3324          6.7843 
        2.17827         62.0068         6.73734 
         2.1844         61.6181         6.69087 
        2.19054         61.3328         6.64482 
        2.19666         61.0501         6.59927 
         2.2028         60.9389          6.5541 
        2.20893         60.5382         6.50934 
        2.21508         60.1543         6.46494 
        2.22122         59.9627         6.42094 
        2.22736         59.6429         6.37744 
        2.23349         59.3308         6.33436 
        2.23962         58.9452         6.29164 
        2.24577         58.6064         6.24929 
         2.2519         58.3661         6.20738 
        2.25802         58.1696         6.16592 
        2.26417          57.766         6.12473 
        2.27031          57.546         6.08387 
        2.27644         57.2873          6.0435 
        2.28257         56.9345         6.00351 
        2.28872         56.6913          5.9638 
        2.29486         56.4473         5.92445 
        2.30099          56.135         5.88554 
        2.30712         55.9213         5.84696 
        2.31326         55.5255         5.80867 
         2.3194         55.3429         5.77073 
        2.32553         54.9545          5.7332 
        2.33166         54.7031         5.69602 
         2.3378         54.4682         5.65912 
        2.34394         54.0805         5.62253 
        2.35007         53.8127         5.58632 
        2.35619         53.6733         5.55047 
        2.36233         53.5017         5.51485 
        2.36848         53.1197         5.47946 
        2.37462         52.8453         5.44447 
        2.38075         52.6339         5.40981 
        2.38689         52.3881         5.37542 
        2.39303         52.1544         5.34134 
        2.39916         51.9757         5.30759 
        2.40529         51.6714         5.27413 
        2.41143         51.4204         5.24093 
        2.41757         51.1056         5.20801 
         2.4237         50.9367         5.17543 
        2.42983         50.5937         5.14313 
        2.43598         50.3561         5.11102 
        2.44211         50.1621         5.07923 
        2.44823         49.8905         5.04779 
        2.45437         49.6449         5.01653 
        2.46052         49.3228         4.98551 
        2.46665         49.1285          4.9548 
        2.47279         48.9328         4.92436 
        2.47892         48.7596         4.89416 
        2.48507         48.4462         4.86418 
         2.4912         48.3101         4.83451 
