# k  (h/Mpc)    Pcb(k)  (Mpc/h)^3    Pcb_linear(k)  (Mpc/h)^3
     0.00783031          3888.1         3930.63 
       0.013688         4891.66         4877.97 
       0.019231         5014.76         5009.21 
      0.0249154         4676.54         4724.37 
      0.0312784         4171.46         4187.79 
      0.0375637         3637.04         3630.86 
      0.0433917         3164.53         3185.95 
      0.0492413         2834.84         2838.24 
      0.0555754         2533.13          2563.9 
      0.0619321         2375.51          2362.5 
       0.067871         2185.27         2206.65 
      0.0738098         2033.46         2055.51 
      0.0800417          1855.4         1887.05 
      0.0862327         1692.03         1709.13 
      0.0921407         1534.26         1539.02 
      0.0982031          1367.4         1377.23 
       0.104506         1247.66         1234.15 
       0.110769          1135.4         1122.56 
       0.116806         1047.68         1042.28 
       0.122832         994.259         982.609 
       0.129052         933.302         933.585 
       0.135211         888.993         888.863 
       0.141259         850.066         842.529 
       0.147318         803.076         791.218 
       0.153489         741.841         734.947 
       0.159709         691.166         677.712 
       0.165845         648.865         624.925 
       0.171974         599.008         579.118 
       0.178125          564.35         541.578 
       0.184229         537.446         512.307 
        0.19034         503.761          489.19 
       0.196428         492.385         469.826 
       0.202534         478.258         451.602 
       0.208729         455.386         432.455 
       0.214876         431.214         411.953 
       0.220989         416.214         390.278 
       0.227147         390.201         368.106 
        0.23329         371.095         346.889 
       0.239377         357.268         327.804 
       0.245482          333.82         311.184 
       0.251667         326.735         296.986 
       0.257832         314.953         285.055 
       0.263955         303.779         274.694 
       0.270079         293.344          265.06 
        0.27624         287.872         255.483 
       0.282372         276.706         245.709 
        0.28843         266.135         235.781 
       0.294538         254.808         225.681 
       0.300721          249.85         215.711 
        0.30691         237.771         206.309 
       0.313033         230.818         197.821 
       0.319153         220.543         190.217 
       0.325316         215.789         183.389 
        0.33145         208.341         177.236 
       0.337538         204.683         171.552 
       0.343633         197.933         166.076 
       0.349808         192.044         160.614 
       0.355968         187.847         155.178 
       0.362074         182.225         149.834 
       0.368217         177.086         144.567 
       0.374374         171.661         139.492 
       0.380519         167.658         134.713 
       0.386598         163.145           130.3 
       0.392688         160.283         126.203 
        0.39888         155.968         122.326 
       0.405048         152.452         118.695 
       0.411186         149.028         115.249 
       0.417313         145.176         111.917 
       0.423458         142.001         108.653 
       0.429607         138.386         105.457 
       0.435692         133.963         102.369 
       0.441815         132.747         99.3577 
       0.447964         130.457         96.4552 
       0.454126         124.771         93.6802 
       0.460267          123.19         91.0551 
       0.466387         120.855         88.5751 
        0.47254         118.721         86.2006 
       0.478662         117.102         83.9378 
       0.484765          113.85          81.765 
       0.490885         111.764         79.6549 
       0.497035         110.306         77.5924 
       0.503198         107.303         75.5831 
       0.509342         105.011         73.6407 
       0.515458         103.432         71.7702 
       0.521598         102.008         69.9585 
       0.527764         100.302         68.2083 
       0.533884         98.5688         66.5408 
           0.54         96.7354         64.9397 
       0.546137         95.7114         63.3916 
       0.552299         94.2633         61.8905 
       0.558452         91.8605         60.4404 
       0.564573         90.2131          59.042 
       0.570708         89.1731         57.6809 
       0.576825          87.613         56.3625 
       0.582926          85.948         55.0861 
       0.589034         84.1823         53.8474 
       0.595184         83.2292         52.6402 
       0.601379         82.2017         51.4642 
       0.607522         80.1636         50.3355 
       0.613639         79.9842         49.2473 
       0.619772         78.0562         48.1901 
       0.625918         77.4687          47.163 
       0.632068         76.4232         46.1655 
       0.638161         75.3307         45.2054 
         0.6443         74.2032         44.2646 
       0.650464         73.1473         43.3461 
       0.656582         72.3935         42.4597 
       0.662703         70.9357         41.5978 
       0.668861         70.1544         40.7555 
       0.675024         69.2208         39.9366 
       0.681124         68.1703         39.1493 
       0.687237         67.0112         38.3821 
       0.693381         66.4606         37.6322 
       0.699536         65.2928         36.9011 
       0.705665         65.5873         36.1926 
       0.711789         63.8107         35.5033 
       0.717957          63.293         34.8273 
        0.72409         62.4159         34.1727 
       0.730186         61.4189          33.539 
       0.736317         61.1835          32.918 
       0.742472         60.2198         32.3105 
       0.748622         59.7294          31.719 
        0.75476         58.9853         31.1437 
       0.760888         58.1074         30.5836 
       0.767043         57.5256         30.0353 
       0.773185         56.7619         29.5016 
       0.779291         56.4812         28.9841 
       0.785407         55.9195         28.4784 
       0.791564         55.0333         27.9817 
       0.797719         54.1665         27.4972 
       0.803834           54.03         27.0273 
       0.809972         53.1844         26.5667 
       0.816124         52.4466          26.116 
       0.822261         52.1317          25.677 
       0.828378         51.7187         25.2494 
       0.834502         51.1024         24.8313 
       0.840667         50.6535           24.42 
       0.846816         49.9463         24.0193 
       0.852925         49.5164         23.6301 
       0.859047         48.8688         23.2488 
       0.865192         48.5782         22.8746 
       0.871341         48.3288         22.5085 
       0.877463         47.3611         22.1521 
       0.883569         47.0426         21.8044 
       0.889708         46.7432         21.4624 
       0.895864         46.2931         21.1269 
       0.902008         45.9014         20.7993 
       0.908149         45.4986         20.4788 
       0.914301         45.2442         20.1646 
       0.920448         44.5567         19.8574 
       0.926574         44.2756         19.5576 
       0.932687         43.8548         19.2647 
       0.938823         43.2352         18.9767 
       0.944975         43.1053          18.694 
       0.951105         42.6834         18.4181 
       0.957225         42.1665         18.1483 
       0.963368         42.0544          17.883 
       0.969511         41.7017         17.6229 
       0.975621         41.3499         17.3695 
       0.981748         40.8239         17.1205 
       0.987916         40.6281         16.8747 
        0.99406         40.3204         16.6348 
        1.00019         39.8038            16.4 
        1.00632          39.626         16.1699 
        1.01246         39.3252          15.944 
        1.01859         38.8225         15.7228 
        1.02471         38.8296          15.506 
        1.03085         38.4352         15.2927 
        1.03698         37.9301         15.0838 
        1.04314         37.6234         14.8779 
        1.04929         37.4238         14.6764 
        1.05541         37.0153         14.4794 
        1.06154         36.9167         14.2856 
        1.06769         36.5979         14.0951 
        1.07382         36.3187         13.9087 
        1.07993         36.1899         13.7261 
        1.08607         35.7136          13.546 
        1.09222          35.601          13.369 
        1.09836         35.2317         13.1953 
        1.10449         35.0347          13.025 
        1.11063         34.5774         12.8575 
        1.11677         34.4573          12.693 
         1.1229         34.3461         12.5317 
        1.12903         33.8688          12.373 
        1.13518         33.7169          12.217 
        1.14131         33.6402         12.0638 
        1.14745         33.2849         11.9132 
        1.15359         33.1735         11.7653 
        1.15973         32.7887         11.6197 
        1.16584         32.4976         11.4773 
        1.17197          32.529         11.3371 
        1.17811         32.1047         11.1988 
        1.18424         31.8428         11.0632 
        1.19038         31.8058         10.9295 
        1.19652         31.5964          10.798 
        1.20267         31.3626         10.6687 
        1.20881         31.1321         10.5416 
        1.21495         30.9156         10.4167 
        1.22108          30.716         10.2939 
         1.2272         30.3825         10.1733 
        1.23334         30.2935         10.0544 
        1.23949         30.0966         9.93713 
        1.24562         29.9672         9.82206 
        1.25174          29.806         9.70899 
        1.25789          29.587         9.59736 
        1.26402         29.4403         9.48769 
        1.27014         29.1346         9.38001 
        1.27628         28.9718         9.27368 
        1.28244         28.8438          9.1688 
        1.28858         28.7271         9.06569 
        1.29471         28.5189         8.96439 
        1.30084         28.3379         8.86475 
        1.30697         28.1293         8.76647 
        1.31312         27.8926         8.66954 
        1.31925         27.7864         8.57439 
        1.32537         27.6852         8.48077 
        1.33151         27.4555         8.38821 
        1.33765         27.3927         8.29709 
        1.34378         27.2496          8.2075 
        1.34992         26.8757         8.11918 
        1.35606         26.8163         8.03197 
         1.3622         26.6615         7.94619 
        1.36833         26.5029         7.86188 
        1.37445         26.4804         7.77883 
        1.38059         26.2946         7.69673 
        1.38675         26.0202         7.61562 
        1.39288         25.9732         7.53601 
        1.39901         25.7526         7.45757 
        1.40515         25.6554         7.38007 
         1.4113         25.5129          7.3037 
        1.41742         25.2674         7.22871 
        1.42355         25.2398         7.15463 
         1.4297         25.0781         7.08136 
        1.43585         25.0278         7.00915 
        1.44198         24.7639         6.93822 
        1.44809         24.6844         6.86841 
        1.45423         24.5792          6.7993 
        1.46036         24.4894         6.73126 
        1.46649         24.3104         6.66414 
        1.47263         24.1582         6.59787 
        1.47877         24.0547         6.53254 
        1.48491         23.9193         6.46799 
        1.49104         23.8745         6.40444 
        1.49718         23.6467         6.34171 
        1.50333         23.5875         6.27971 
        1.50947         23.4877         6.21868 
         1.5156         23.2879         6.15854 
        1.52172         23.1294          6.0992 
        1.52787         23.1316         6.04053 
          1.534         22.9447          5.9827 
        1.54013           22.77         5.92569 
        1.54627         22.7234         5.86932 
        1.55241          22.573         5.81367 
        1.55855         22.4621         5.75883 
        1.56467         22.3829         5.70484 
         1.5708         22.2915          5.6514 
        1.57695         22.0722         5.59856 
        1.58308         22.1088         5.54652 
        1.58922          21.945          5.4951 
        1.59535         21.8121         5.44436 
         1.6015         21.7109         5.39418 
        1.60764          21.656         5.34467 
        1.61376          21.526         5.29591 
        1.61989         21.3355         5.24772 
        1.62604         21.3287         5.20003 
        1.63218         21.1748         5.15296 
        1.63831         21.1323         5.10657 
        1.64444         20.9608         5.06075 
        1.65059         20.8717         5.01537 
        1.65673          20.809          4.9706 
        1.66285         20.6766          4.9265 
        1.66898         20.6189         4.88292 
        1.67512         20.5342         4.83979 
        1.68127         20.3823         4.79713 
         1.6874         20.2923         4.75508 
        1.69353         20.2564         4.71356 
        1.69967         20.0888         4.67244 
        1.70581         20.0049         4.63183 
        1.71193         19.8995         4.59185 
        1.71806         19.8388         4.55226 
        1.72421          19.738         4.51306 
        1.73035         19.6741         4.47436 
        1.73649         19.5485         4.43613 
        1.74262         19.5173         4.39837 
        1.74876            19.4         4.36103 
        1.75489         19.3136          4.3242 
        1.76101         19.2288         4.28781 
        1.76715         19.1823         4.25178 
        1.77329         19.0763         4.21612 
        1.77943         18.9656         4.18086 
        1.78557         18.8947         4.14606 
        1.79171         18.8417         4.11164 
        1.79785         18.7028         4.07761 
        1.80399         18.6335         4.04397 
        1.81012         18.5907         4.01075 
        1.81625         18.4788         3.97792 
        1.82239         18.4463         3.94541 
        1.82853         18.2862         3.91328 
        1.83466         18.2156         3.88154 
        1.84078         18.0906         3.85019 
        1.84692         18.0904         3.81913 
        1.85306         17.9793         3.78837 
         1.8592         17.9191         3.75801 
        1.86533         17.8488         3.72799 
        1.87147         17.7606         3.69826 
        1.87761         17.7259         3.66885 
        1.88375         17.5828         3.63979 
        1.88988         17.5637         3.61108 
        1.89601          17.465         3.58266 
        1.90215         17.3787         3.55452 
        1.90829         17.3395          3.5267 
        1.91442         17.2532         3.49917 
        1.92056         17.1913         3.47197 
         1.9267         17.1243         3.44502 
        1.93284         17.0194         3.41834 
        1.93897         16.9527           3.392 
        1.94509         16.8899         3.36599 
        1.95123         16.8088         3.34018 
        1.95737         16.7435         3.31463 
        1.96349         16.6785         3.28941 
        1.96964         16.6039         3.26438 
        1.97578         16.5543          3.2396 
        1.98192         16.4409         3.21512 
        1.98805         16.4145          3.1909 
        1.99419         16.3257         3.16692 
        2.00033         16.2645         3.14318 
        2.00647         16.2203         3.11969 
         2.0126         16.0938         3.09647 
        2.01874         16.0436         3.07346 
        2.02488         15.9809         3.05066 
        2.03101         15.9704         3.02814 
        2.03714         15.8876         3.00586 
        2.04328         15.7928         2.98379 
        2.04941         15.7174         2.96195 
        2.05554         15.7235         2.94034 
        2.06167         15.6302         2.91893 
        2.06781          15.572         2.89772 
        2.07396         15.5121         2.87669 
        2.08009         15.4457         2.85591 
        2.08622         15.3656         2.83536 
        2.09237         15.3201         2.81496 
        2.09851         15.2533         2.79477 
        2.10464         15.1871         2.77481 
        2.11077          15.124         2.75506 
        2.11691         15.0789         2.73546 
        2.12305         15.0005         2.71606 
        2.12918         14.9435         2.69689 
        2.13531         14.9088          2.6779 
        2.14145         14.8217         2.65905 
         2.1476          14.787         2.64036 
        2.15372         14.7347         2.62194 
        2.15985         14.6474         2.60368 
        2.16599          14.614         2.58554 
        2.17213         14.5749          2.5676 
        2.17827         14.5168         2.54983 
         2.1844         14.4564         2.53224 
        2.19054         14.3802         2.51481 
        2.19666         14.3482         2.49757 
         2.2028          14.292         2.48048 
        2.20893         14.2304         2.46354 
        2.21508         14.1754         2.44673 
        2.22122         14.0988         2.43008 
        2.22736         14.0525         2.41362 
        2.23349         13.9896         2.39731 
        2.23962         13.9535         2.38115 
        2.24577         13.8834         2.36512 
         2.2519         13.8665         2.34926 
        2.25802         13.8099         2.33357 
        2.26417         13.7584         2.31798 
        2.27031         13.7015         2.30251 
        2.27644         13.6425         2.28724 
        2.28257         13.5963          2.2721 
        2.28872         13.5377         2.25707 
        2.29486         13.5144         2.24218 
        2.30099          13.464         2.22745 
        2.30712         13.4098         2.21285 
        2.31326         13.3676         2.19836 
         2.3194          13.283           2.184 
        2.32553         13.2629          2.1698 
        2.33166         13.1652         2.15573 
         2.3378           13.15         2.14176 
        2.34394         13.0929         2.12791 
        2.35007          13.032         2.11421 
        2.35619         12.9901         2.10064 
        2.36233         12.9424         2.08716 
        2.36848         12.9244         2.07377 
        2.37462         12.8872         2.06052 
        2.38075         12.8004         2.04741 
        2.38689         12.7716         2.03439 
        2.39303         12.7287         2.02149 
        2.39916         12.6814         2.00872 
        2.40529         12.6411         1.99606 
        2.41143         12.5849         1.98349 
        2.41757         12.5596         1.97103 
         2.4237          12.489          1.9587 
        2.42983         12.4555         1.94648 
        2.43598         12.4152         1.93433 
        2.44211         12.3497          1.9223 
        2.44823         12.3098          1.9104 
        2.45437         12.2905         1.89857 
        2.46052         12.2396         1.88683 
        2.46665         12.1783          1.8752 
        2.47279         12.1386         1.86368 
        2.47892         12.0999         1.85225 
        2.48507         12.0701         1.84091 
         2.4912         12.0291         1.82968 
