# k  (h/Mpc)    Pcb(k)  (Mpc/h)^3    Pcb_linear(k)  (Mpc/h)^3
     0.00783031         24007.2         24161.6 
       0.013688         25284.1         26020.6 
       0.019231         22921.3         23287.3 
      0.0249154         19141.3         18962.2 
      0.0312784         14308.9         14337.8 
      0.0375637         10878.3           10956 
      0.0433917         9030.96         8972.92 
      0.0492413         7844.05         7838.19 
      0.0555754         7237.48         7173.68 
      0.0619321         6538.36         6698.26 
       0.067871         6127.38         6175.65 
      0.0738098         5519.39         5492.99 
      0.0800417          4747.4         4667.71 
      0.0862327         3963.62         3877.55 
      0.0921407         3414.88         3263.88 
      0.0982031         3028.09         2825.57 
       0.104506         2692.54         2560.35 
       0.110769         2562.99         2429.99 
       0.116806         2495.79         2357.85 
       0.122832         2375.19         2274.31 
       0.129052         2216.94         2135.72 
       0.135211         2095.92         1942.85 
       0.141259         1864.99          1726.2 
       0.147318         1672.91          1518.7 
       0.153489         1523.51         1346.53 
       0.159709         1442.19         1225.48 
       0.165845         1327.89         1153.18 
       0.171974         1303.99         1112.28 
       0.178125         1264.51         1082.86 
       0.184229         1173.54          1047.8 
        0.19034          1146.8         997.082 
       0.196428         1098.15         930.859 
       0.202534         1008.48         856.162 
       0.208729         978.224         782.496 
       0.214876         917.545         720.193 
       0.220989         862.814         672.955 
       0.227147         836.806         639.514 
        0.23329         802.706         616.162 
       0.239377         798.215         597.365 
       0.245482         755.201         577.773 
       0.251667         727.484         554.027 
       0.257832         710.364         526.052 
       0.263955         671.171         495.775 
       0.270079         643.981         465.816 
        0.27624         616.001         438.639 
       0.282372         603.624         415.964 
        0.28843         592.003         398.027 
       0.294538         562.479         383.417 
       0.300721         548.993         370.656 
        0.30691          534.88         358.306 
       0.313033         510.821         345.477 
       0.319153         503.986         331.682 
       0.325316         493.959         317.172 
        0.33145         480.337         302.808 
       0.337538         461.445         289.409 
       0.343633         449.889         277.318 
       0.349808         437.821          266.63 
       0.355968         429.592         257.291 
       0.362074         412.156         248.963 
       0.368217           409.1         241.048 
       0.374374         402.633         233.196 
       0.380519         385.832           225.3 
       0.386598         381.217         217.413 
       0.392688         370.396         209.613 
        0.39888          362.22         201.997 
       0.405048         352.569         194.875 
       0.411186         352.269         188.351 
       0.417313         346.045         182.376 
       0.423458         337.566         176.805 
       0.429607          326.31          171.54 
       0.435692         321.781         166.517 
       0.441815         315.639         161.555 
       0.447964         309.099         156.654 
       0.454126         305.452         151.858 
       0.460267         300.133         147.226 
       0.466387         292.396         142.804 
        0.47254          289.93         138.594 
       0.478662         283.239         134.644 
       0.484765         278.388         130.912 
       0.490885         276.183         127.341 
       0.497035         269.065         123.896 
       0.503198         268.253         120.559 
       0.509342         262.928          117.32 
       0.515458         257.498          114.18 
       0.521598         254.228         111.125 
       0.527764         250.135         108.169 
       0.533884         246.937         105.351 
           0.54         243.951         102.647 
       0.546137         238.821         100.044 
       0.552299         236.826         97.5346 
       0.558452          232.73         95.1244 
       0.564573         232.246         92.8081 
       0.570708         226.606          90.557 
       0.576825         223.315         88.3766 
       0.582926         222.286         86.2668 
       0.589034         217.497         84.2208 
       0.595184          216.22         82.2297 
       0.601379         212.525         80.2939 
       0.607522         207.593         78.4396 
       0.613639         207.012         76.6541 
       0.619772         205.787         74.9213 
       0.625918         201.815         73.2392 
       0.632068         199.745         71.6081 
       0.638161         198.271         70.0409 
         0.6443         194.894         68.5091 
       0.650464         193.265          67.017 
       0.656582         190.619         65.5793 
       0.662703          190.45          64.183 
       0.668861           185.9         62.8194 
       0.675024         185.203         61.4946 
       0.681124         182.231          60.222 
       0.687237         181.444         58.9836 
       0.693381         177.892          57.775 
       0.699536         177.647         56.5987 
       0.705665         175.374         55.4605 
       0.711789         172.712         54.3548 
       0.717957         171.972         53.2717 
        0.72409         169.587          52.224 
       0.730186          169.85         51.2108 
       0.736317         167.237         50.2189 
       0.742472         165.705         49.2497 
       0.748622         164.072          48.307 
        0.75476         163.027         47.3911 
       0.760888         161.359         46.5005 
       0.767043         158.704         45.6294 
       0.773185         156.912         44.7826 
       0.779291         156.543         43.9623 
       0.785407         155.177         43.1614 
       0.791564          153.87         42.3755 
       0.797719         151.613         41.6097 
       0.803834         151.492         40.8677 
       0.809972         149.557         40.1413 
       0.816124         147.524          39.431 
       0.822261         146.446         38.7398 
       0.828378         145.787         38.0674 
       0.834502         144.227         37.4104 
       0.840667         143.866         36.7647 
       0.846816         141.754         36.1361 
       0.852925         141.391         35.5261 
       0.859047         139.264          34.929 
       0.865192         138.888         34.3437 
       0.871341          137.95         33.7715 
       0.877463         136.463         33.2149 
       0.883569         136.187         32.6722 
       0.889708         135.264          32.139 
       0.895864         133.157         31.6163 
       0.902008          132.26         31.1064 
       0.908149         130.871          30.608 
       0.914301         130.198         30.1198 
       0.920448         129.542         29.6427 
       0.926574         128.138         29.1777 
       0.932687         127.888         28.7236 
       0.938823         126.935         28.2776 
       0.944975         126.568         27.8401 
       0.951105         124.913         27.4134 
       0.957225         124.039         26.9965 
       0.963368         123.727         26.5868 
       0.969511         122.465         26.1856 
       0.975621         120.606         25.7949 
       0.981748         120.614         25.4112 
       0.987916         119.774         25.0329 
        0.99406          118.86         24.6637 
        1.00019         118.471         24.3028 
        1.00632         117.388         23.9494 
        1.01246         116.425         23.6025 
        1.01859          115.44          23.263 
        1.02471         114.686         22.9307 
        1.03085         114.354         22.6037 
        1.03698         113.494         22.2839 
        1.04314         112.838         21.9688 
        1.04929         112.233         21.6606 
        1.05541         111.922         21.3595 
        1.06154         110.781         21.0634 
        1.06769         110.031         20.7725 
        1.07382         108.893         20.4881 
        1.07993         108.827         20.2096 
        1.08607         108.532         19.9351 
        1.09222          107.18         19.6655 
        1.09836         106.621         19.4012 
        1.10449         106.193         19.1421 
        1.11063         105.137         18.8874 
        1.11677         104.734         18.6374 
         1.1229         103.945         18.3924 
        1.12903         102.844         18.1515 
        1.13518         102.521         17.9148 
        1.14131         102.309         17.6825 
        1.14745         101.434         17.4544 
        1.15359         100.912         17.2303 
        1.15973         100.204           17.01 
        1.16584         99.7342         16.7946 
        1.17197         99.1382         16.5826 
        1.17811         98.4471         16.3736 
        1.18424         97.9161         16.1688 
        1.19038         97.3324          15.967 
        1.19652         96.4816         15.7686 
        1.20267         95.9284         15.5737 
        1.20881         95.4225         15.3821 
        1.21495         95.2305          15.194 
        1.22108         94.4691         15.0091 
         1.2272         94.4858         14.8277 
        1.23334         93.5048         14.6489 
        1.23949         92.9186         14.4726 
        1.24562         92.3759         14.2997 
        1.25174         92.2628         14.1299 
        1.25789         91.5022         13.9624 
        1.26402         90.9068         13.7978 
        1.27014         90.4797         13.6363 
        1.27628           90.08         13.4769 
        1.28244         89.4489         13.3198 
        1.28858         89.0906         13.1654 
        1.29471         88.4375         13.0137 
        1.30084          88.092         12.8646 
        1.30697         87.4652         12.7176 
        1.31312         87.2486         12.5727 
        1.31925         86.3292         12.4304 
        1.32537         86.0776         12.2906 
        1.33151         85.5777         12.1524 
        1.33765         85.2211         12.0163 
        1.34378         84.8622         11.8827 
        1.34992         84.3149         11.7509 
        1.35606          84.113         11.6209 
         1.3622          83.599         11.4931 
        1.36833         83.0692         11.3675 
        1.37445         82.5165         11.2439 
        1.38059         82.0962         11.1217 
        1.38675         81.8771          11.001 
        1.39288         81.2649         10.8826 
        1.39901         80.8358          10.766 
        1.40515         80.5533         10.6509 
         1.4113         79.9897         10.5374 
        1.41742         79.9688         10.4261 
        1.42355         79.3221         10.3161 
         1.4297         78.7973         10.2074 
        1.43585         78.6931         10.1003 
        1.44198         78.2994         9.99521 
        1.44809         77.6776         9.89176 
        1.45423         77.4628          9.7894 
        1.46036         76.7518         9.68867 
        1.46649         76.3741         9.58932 
        1.47263          76.273         9.49128 
        1.47877         75.9118         9.39466 
        1.48491           75.32         9.29923 
        1.49104         75.1169         9.20532 
        1.49718         74.6539         9.11264 
        1.50333         74.1817         9.02109 
        1.50947          74.051         8.93098 
         1.5156         73.5026         8.84224 
        1.52172         73.0057         8.75469 
        1.52787         72.8045         8.66817 
          1.534         72.4454         8.58291 
        1.54013          72.195         8.49888 
        1.54627         71.8412         8.41583 
        1.55241         71.4588         8.33388 
        1.55855         70.9297         8.25313 
        1.56467         70.5847         8.17367 
         1.5708         70.3118         8.09503 
        1.57695         69.9582          8.0173 
        1.58308         69.5423         7.94078 
        1.58922         69.3011          7.8652 
        1.59535         69.1374         7.79062 
         1.6015         68.6146         7.71691 
        1.60764         68.2485         7.64418 
        1.61376         68.2454         7.57259 
        1.61989         67.7026         7.50186 
        1.62604         67.5242         7.43187 
        1.63218         66.9771         7.36281 
        1.63831          66.913         7.29479 
        1.64444         66.3939          7.2276 
        1.65059         66.0104          7.1611 
        1.65673         65.8113         7.09551 
        1.66285          65.576         7.03092 
        1.66898         64.9804         6.96711 
        1.67512         64.7398         6.90397 
        1.68127         64.4585         6.84155 
         1.6874         64.4534         6.78005 
        1.69353         63.8594         6.71933 
        1.69967         63.5707         6.65921 
        1.70581          63.339         6.59986 
        1.71193         63.0913         6.54145 
        1.71806         62.6064         6.48362 
        1.72421         62.4193         6.42638 
        1.73035         62.1481         6.36989 
        1.73649         61.8051         6.31409 
        1.74262         61.4434           6.259 
        1.74876         61.2754         6.20454 
        1.75489         61.1447         6.15083 
        1.76101         60.7071         6.09778 
        1.76715         60.5439         6.04527 
        1.77329         60.1544         5.99332 
        1.77943         59.8376         5.94196 
        1.78557         59.6761         5.89127 
        1.79171         59.3079         5.84117 
        1.79785         59.1605         5.79163 
        1.80399         58.7543         5.74269 
        1.81012         58.5059         5.69437 
        1.81625         58.2332         5.64663 
        1.82239         57.9659         5.59936 
        1.82853         57.7204         5.55265 
        1.83466         57.4794         5.50653 
        1.84078          57.097         5.46097 
        1.84692         56.9213         5.41585 
        1.85306         56.7781         5.37119 
         1.8592         56.5298          5.3271 
        1.86533          56.086         5.28352 
        1.87147         55.9396         5.24039 
        1.87761         55.6348         5.19771 
        1.88375         55.3878         5.15556 
        1.88988         55.2035         5.11392 
        1.89601          54.899         5.07271 
        1.90215         54.7946         5.03193 
        1.90829         54.3889         4.99162 
        1.91442          54.153         4.95174 
        1.92056         53.9782         4.91233 
         1.9267         53.5731         4.87331 
        1.93284         53.4738         4.83469 
        1.93897         53.2001         4.79656 
        1.94509         53.0159         4.75892 
        1.95123         52.7526         4.72159 
        1.95737          52.371         4.68464 
        1.96349         52.3609         4.64817 
        1.96964         52.1917         4.61198 
        1.97578         51.6575         4.57617 
        1.98192         51.5313          4.5408 
        1.98805         51.3609         4.50581 
        1.99419         51.1181         4.47118 
        2.00033         50.8781         4.43689 
        2.00647         50.6094         4.40298 
         2.0126         50.4716         4.36947 
        2.01874         50.2245         4.33627 
        2.02488         50.0844         4.30337 
        2.03101         49.7503         4.27088 
        2.03714         49.5251         4.23876 
        2.04328         49.4003         4.20693 
        2.04941         49.0827         4.17545 
        2.05554         48.8463         4.14431 
        2.06167         48.7019         4.11345 
        2.06781         48.4738          4.0829 
        2.07396         48.2535         4.05261 
        2.08009         47.9363         4.02269 
        2.08622         47.7738          3.9931 
        2.09237         47.6241         3.96374 
        2.09851         47.3252         3.93468 
        2.10464         47.1114         3.90596 
        2.11077         46.9898         3.87755 
        2.11691         46.7149         3.84937 
        2.12305         46.5422         3.82146 
        2.12918         46.3373          3.7939 
        2.13531         46.1397         3.76661 
        2.14145         45.8711         3.73952 
         2.1476          45.714         3.71266 
        2.15372           45.55          3.6862 
        2.15985         45.2907         3.65998 
        2.16599         45.0905         3.63393 
        2.17213         45.0179         3.60816 
        2.17827         44.6629         3.58265 
         2.1844         44.6032         3.55741 
        2.19054         44.3847          3.5324 
        2.19666         44.1412         3.50767 
         2.2028         43.9628         3.48315 
        2.20893         43.7659         3.45885 
        2.21508         43.6482         3.43476 
        2.22122          43.329         3.41089 
        2.22736         43.1863         3.38729 
        2.23349         43.0004         3.36392 
        2.23962         42.9036         3.34076 
        2.24577         42.6717          3.3178 
         2.2519         42.4164         3.29508 
        2.25802           42.27         3.27262 
        2.26417         42.0822          3.2503 
        2.27031         41.8607         3.22816 
        2.27644         41.7352          3.2063 
        2.28257         41.5495         3.18464 
        2.28872         41.3858         3.16313 
        2.29486         41.1515         3.14183 
        2.30099         40.9885         3.12077 
        2.30712         40.8324         3.09989 
        2.31326         40.6282         3.07917 
         2.3194         40.3955         3.05865 
        2.32553         40.2797         3.03835 
        2.33166         40.1541         3.01824 
         2.3378         39.8605         2.99829 
        2.34394         39.8384         2.97851 
        2.35007         39.6274         2.95893 
        2.35619         39.4147         2.93955 
        2.36233         39.2611         2.92031 
        2.36848          39.133         2.90119 
        2.37462         38.9555         2.88229 
        2.38075          38.713         2.86357 
        2.38689         38.5865           2.845 
        2.39303         38.4696          2.8266 
        2.39916         38.3064         2.80838 
        2.40529         38.1374         2.79032 
        2.41143          38.006         2.77241 
        2.41757         37.7663         2.75464 
         2.4237         37.6496         2.73707 
        2.42983         37.5153         2.71965 
        2.43598         37.3928         2.70233 
        2.44211         37.1253         2.68519 
        2.44823          37.009         2.66824 
        2.45437         36.8435         2.65139 
        2.46052         36.7218         2.63467 
        2.46665         36.5213         2.61812 
        2.47279         36.3238         2.60172 
        2.47892         36.2177         2.58545 
        2.48507         36.0572          2.5693 
         2.4912         35.8877         2.55332 
