# k  (h/Mpc)    P(k)  (Mpc/h)^3    P_linear(k)  (Mpc/h)^3
     0.00783031         9400.46         9478.74 
       0.013688         10746.6         10984.1 
       0.019231         10330.3           10449 
      0.0249154         9069.67         9029.32 
      0.0312784         7251.98         7269.25 
      0.0375637         5808.98         5851.49 
      0.0433917         4962.03         4949.83 
      0.0492413         4373.47         4387.25 
      0.0555754         4035.28         4020.15 
      0.0619321         3667.08         3742.66 
       0.067871         3432.21         3457.62 
      0.0738098         3106.33         3108.41 
      0.0800417         2714.77         2696.44 
      0.0862327         2314.84         2300.08 
      0.0921407         2013.89          1984.7 
      0.0982031          1801.3         1749.77 
       0.104506         1618.94         1596.53 
       0.110769         1534.57         1509.59 
       0.116806          1491.9         1453.23 
       0.122832         1412.34         1393.12 
       0.129052         1329.18         1307.64 
       0.135211          1243.3         1197.62 
       0.141259         1115.99          1077.5 
       0.147318         998.828         962.756 
       0.153489          913.95         866.201 
       0.159709         860.159         796.121 
       0.165845         793.697         751.607 
       0.171974         782.439         723.531 
       0.178125         756.571          701.38 
       0.184229         711.032          676.26 
        0.19034         688.866         642.961 
       0.196428         654.789         601.788 
       0.202534         598.647         556.596 
       0.208729           575.6         512.521 
       0.214876         542.801         475.245 
       0.220989         504.859         446.693 
       0.227147         492.491         426.009 
        0.23329         474.787         410.983 
       0.239377         467.319         398.347 
       0.245482         444.261          384.99 
       0.251667         425.271         369.063 
       0.257832         417.097         350.662 
       0.263955         390.672         331.067 
       0.270079          372.41          311.94 
        0.27624         355.007         294.716 
       0.282372         344.664         280.447 
        0.28843         340.783         269.145 
       0.294538         323.786         259.861 
       0.300721         313.049         251.598 
        0.30691         307.574         243.426 
       0.313033         293.094         234.819 
       0.319153         287.414         225.519 
       0.325316         279.382         215.773 
        0.33145         270.741         206.196 
       0.337538         260.107         197.339 
       0.343633         251.687         189.449 
       0.349808         244.224         182.512 
       0.355968         238.859         176.492 
       0.362074         231.638         171.073 
       0.368217         228.216         165.862 
       0.374374         222.443         160.612 
       0.380519         213.099          155.25 
       0.386598         209.411         149.884 
       0.392688         203.054         144.565 
        0.39888         198.612         139.398 
       0.405048         193.812         134.627 
       0.411186          191.65         130.278 
       0.417313         187.482         126.326 
       0.423458         182.433         122.653 
       0.429607         177.468          119.15 
       0.435692         174.594         115.772 
       0.441815         170.516         112.414 
       0.447964         165.458          109.06 
       0.454126         162.711         105.758 
       0.460267         160.718         102.584 
       0.466387         156.635         99.5717 
        0.47254         154.758         96.7097 
       0.478662         149.872         94.0376 
       0.484765         147.647         91.5289 
       0.490885         144.953         89.1272 
       0.497035         143.166         86.7902 
       0.503198         141.039         84.5081 
       0.509342         137.311         82.2884 
       0.515458         135.107         80.1316 
       0.521598         131.761         78.0248 
       0.527764          130.53         75.9824 
       0.533884         129.529         74.0408 
           0.54         126.225          72.192 
       0.546137         123.282         70.4171 
       0.552299         121.542         68.7034 
       0.558452         119.462         67.0497 
       0.564573         118.833         65.4541 
       0.570708         115.559         63.9019 
       0.576825         114.145         62.3987 
       0.582926         112.875         60.9417 
       0.589034         110.905         59.5253 
       0.595184         109.632         58.1441 
       0.601379         107.439         56.8003 
       0.607522           105.1         55.5159 
       0.613639         104.357         54.2827 
       0.619772         102.697         53.0876 
       0.625918         101.944         51.9272 
       0.632068         99.4872         50.7993 
       0.638161         98.4874         49.7114 
         0.6443          97.757         48.6448 
       0.650464         95.6033          47.604 
       0.656582         95.1206          46.601 
       0.662703         93.9677         45.6275 
       0.668861         91.9337         44.6785 
       0.675024         91.8568         43.7574 
       0.681124         90.2454         42.8728 
       0.687237         88.9765         42.0114 
       0.693381         87.8858         41.1698 
       0.699536         86.9469         40.3492 
       0.705665         85.8931         39.5538 
       0.711789         84.6293         38.7801 
       0.717957         83.5789         38.0216 
        0.72409          82.689         37.2874 
       0.730186         82.3873         36.5773 
       0.736317          81.116         35.8821 
       0.742472         79.7225         35.2028 
       0.748622         78.5664         34.5422 
        0.75476         78.5929         33.9002 
       0.760888         77.7847         33.2758 
       0.767043         76.1988         32.6647 
       0.773185         75.2378         32.0703 
       0.779291          74.468         31.4941 
       0.785407          73.849         30.9312 
       0.791564         73.3602         30.3784 
       0.797719         72.1535         29.8394 
       0.803834         71.9115         29.3169 
       0.809972         71.2122         28.8051 
       0.816124         70.0925         28.3045 
       0.822261         69.3228         27.8171 
       0.828378           69.14         27.3428 
       0.834502          68.284         26.8792 
       0.840667         67.7284         26.4234 
       0.846816         66.9935         25.9795 
       0.852925         66.1912         25.5488 
       0.859047         65.8662         25.1269 
       0.865192         65.0664         24.7132 
       0.871341         64.3984         24.3087 
       0.877463         63.7623         23.9151 
       0.883569         63.7217         23.5312 
       0.889708         62.9927         23.1538 
       0.895864         62.5033         22.7838 
       0.902008          61.745         22.4227 
       0.908149         60.9741         22.0696 
       0.914301         60.7471         21.7236 
       0.920448         60.6468         21.3854 
       0.926574         59.3247         21.0556 
       0.932687         59.1471         20.7335 
       0.938823         58.6984          20.417 
       0.944975          57.983         20.1063 
       0.951105         57.4748         19.8033 
       0.957225         57.2659         19.5071 
       0.963368         56.6811         19.2159 
       0.969511         56.2937         18.9307 
       0.975621          55.654         18.6528 
       0.981748         55.2724         18.3798 
       0.987916           54.77         18.1105 
        0.99406         54.5856         17.8477 
        1.00019          53.852         17.5906 
        1.00632          53.444         17.3389 
        1.01246         53.1569         17.0917 
        1.01859         52.8583         16.8497 
        1.02471         52.3711         16.6127 
        1.03085         51.8937         16.3795 
        1.03698          51.585         16.1512 
        1.04314         51.1513         15.9264 
        1.04929         50.7673         15.7063 
        1.05541         50.4386         15.4913 
        1.06154         50.0575         15.2799 
        1.06769         49.6486         15.0721 
        1.07382         49.1534         14.8688 
        1.07993         49.0148         14.6697 
        1.08607         48.5898         14.4735 
        1.09222         48.3735         14.2807 
        1.09836         47.9843         14.0917 
        1.10449         47.6751         13.9063 
        1.11063         47.2851          13.724 
        1.11677         47.1142         13.5451 
         1.1229         46.5956         13.3697 
        1.12903         46.3984         13.1972 
        1.13518         46.1547         13.0277 
        1.14131         45.7542         12.8612 
        1.14745         45.5091         12.6978 
        1.15359         44.9286         12.5371 
        1.15973         44.9468         12.3792 
        1.16584         44.5805         12.2247 
        1.17197         44.1925         12.0726 
        1.17811          43.931         11.9227 
        1.18424         43.3779         11.7757 
        1.19038         43.2656         11.6308 
        1.19652         43.0784         11.4884 
        1.20267         42.7147         11.3484 
        1.20881         42.4675         11.2107 
        1.21495         42.2536         11.0756 
        1.22108         42.1674         10.9427 
         1.2272         41.6605         10.8123 
        1.23334         41.5163         10.6837 
        1.23949         41.2107         10.5569 
        1.24562         40.9366         10.4325 
        1.25174          40.725         10.3103 
        1.25789         40.5317         10.1897 
        1.26402         40.2544         10.0713 
        1.27014         40.1152         9.95498 
        1.27628         39.7234         9.84018 
        1.28244         39.7322         9.72698 
        1.28858         39.3196         9.61571 
        1.29471         38.9963         9.50644 
        1.30084          38.685         9.39896 
        1.30697         38.7515         9.29299 
        1.31312         38.4372          9.1885 
        1.31925          38.105         9.08595 
        1.32537         37.8965         8.98507 
        1.33151         37.6649         8.88536 
        1.33765         37.5452         8.78723 
        1.34378         37.3101         8.69078 
        1.34992         37.0787          8.5957 
        1.35606         36.7396         8.50185 
         1.3622         36.6833         8.40957 
        1.36833         36.5337         8.31887 
        1.37445         36.1381         8.22957 
        1.38059         36.0197          8.1413 
        1.38675         35.7793         8.05412 
        1.39288         35.6702         7.96856 
        1.39901         35.3651         7.88429 
        1.40515          35.259         7.80104 
         1.4113         35.1462         7.71903 
        1.41742         34.8849         7.63851 
        1.42355         34.6694         7.55899 
         1.4297         34.5809         7.48036 
        1.43585         34.3535         7.40288 
        1.44198          34.089         7.32679 
        1.44809          33.864         7.25191 
        1.45423         33.7918         7.17781 
        1.46036         33.6743         7.10487 
        1.46649         33.3844         7.03291 
        1.47263         33.2249          6.9619 
        1.47877         33.0715          6.8919 
        1.48491         32.8555         6.82275 
        1.49104         32.6822         6.75469 
        1.49718         32.5859         6.68751 
        1.50333         32.4306         6.62114 
        1.50947         32.1827         6.55581 
         1.5156         32.1053         6.49146 
        1.52172         31.8466         6.42796 
        1.52787         31.7972          6.3652 
          1.534         31.5144         6.30334 
        1.54013         31.5611         6.24237 
        1.54627         31.2478          6.1821 
        1.55241         31.1175         6.12262 
        1.55855         30.9546           6.064 
        1.56467         30.7048         6.00631 
         1.5708         30.7283         5.94921 
        1.57695         30.5464         5.89276 
        1.58308         30.3049         5.83718 
        1.58922          30.178         5.78228 
        1.59535         30.1159          5.7281 
         1.6015         30.0325         5.67454 
        1.60764         29.7518         5.62169 
        1.61376         29.6072         5.56966 
        1.61989         29.4121         5.51825 
        1.62604         29.3059         5.46737 
        1.63218         29.0593         5.41717 
        1.63831         29.0498         5.36771 
        1.64444         28.9265         5.31885 
        1.65059         28.7231         5.27048 
        1.65673         28.6272         5.22276 
        1.66285         28.5318         5.17577 
        1.66898         28.3574         5.12933 
        1.67512         28.1993         5.08338 
        1.68127         28.0984         5.03795 
         1.6874         28.0007         4.99317 
        1.69353         27.8347         4.94896 
        1.69967         27.7319         4.90519 
        1.70581         27.5708         4.86196 
        1.71193         27.4466         4.81941 
        1.71806         27.3606         4.77728 
        1.72421         27.1972         4.73558 
        1.73035         27.0821         4.69442 
        1.73649         26.9134         4.65375 
        1.74262         26.7495          4.6136 
        1.74876         26.8185          4.5739 
        1.75489         26.5542         4.53474 
        1.76101         26.4986         4.49606 
        1.76715         26.2926         4.45777 
        1.77329         26.1378         4.41988 
        1.77943           26.15         4.38242 
        1.78557         26.0428         4.34544 
        1.79171         25.8695         4.30889 
        1.79785         25.7925         4.27274 
        1.80399         25.6199         4.23702 
        1.81012         25.5477         4.20176 
        1.81625         25.3407         4.16691 
        1.82239           25.27          4.1324 
        1.82853         25.1868          4.0983 
        1.83466         25.0472         4.06462 
        1.84078         24.9203         4.03136 
        1.84692         24.8002         3.99841 
        1.85306         24.6917         3.96579 
         1.8592         24.6252         3.93358 
        1.86533         24.5155         3.90175 
        1.87147         24.3988         3.87023 
        1.87761         24.2677         3.83905 
        1.88375         24.1729         3.80825 
        1.88988         24.0687         3.77782 
        1.89601         23.9469         3.74771 
        1.90215         23.8492         3.71789 
        1.90829         23.7519         3.68842 
        1.91442         23.6312         3.65926 
        1.92056         23.5644         3.63045 
         1.9267         23.4997         3.60191 
        1.93284         23.3916         3.57367 
        1.93897         23.2817         3.54577 
        1.94509         23.1672         3.51824 
        1.95123         23.0828         3.49093 
        1.95737          22.974         3.46389 
        1.96349         22.9259          3.4372 
        1.96964         22.7728         3.41072 
        1.97578         22.6614          3.3845 
        1.98192         22.5613         3.35861 
        1.98805         22.4603         3.33299 
        1.99419         22.3686         3.30764 
        2.00033         22.2839         3.28254 
        2.00647         22.2272          3.2577 
         2.0126         22.0634         3.23316 
        2.01874         22.0195         3.20884 
        2.02488         21.8792         3.18475 
        2.03101         21.8007         3.16095 
        2.03714         21.7316         3.13741 
        2.04328         21.6292         3.11408 
        2.04941         21.5062         3.09102 
        2.05554         21.4587          3.0682 
        2.06167          21.375         3.04558 
        2.06781         21.2651         3.02318 
        2.07396         21.1915         3.00098 
        2.08009         21.0683         2.97904 
        2.08622         21.0151         2.95734 
        2.09237         20.9084         2.93581 
        2.09851         20.8773          2.9145 
        2.10464         20.7335         2.89343 
        2.11077         20.6863          2.8726 
        2.11691         20.5554         2.85192 
        2.12305         20.5121         2.83145 
        2.12918         20.4055         2.81123 
        2.13531         20.3187          2.7912 
        2.14145         20.2574         2.77132 
         2.1476          20.156         2.75161 
        2.15372         20.1042         2.73219 
        2.15985         19.9933         2.71294 
        2.16599         19.8793         2.69382 
        2.17213         19.8388         2.67491 
        2.17827         19.7533         2.65618 
         2.1844         19.6482         2.63764 
        2.19054         19.6364         2.61928 
        2.19666         19.5094         2.60111 
         2.2028         19.4833         2.58311 
        2.20893         19.3791         2.56526 
        2.21508         19.3023         2.54756 
        2.22122         19.2162         2.53002 
        2.22736         19.1578         2.51269 
        2.23349         19.0813         2.49552 
        2.23962          19.004          2.4785 
        2.24577         18.9043         2.46162 
         2.2519         18.8159         2.44493 
        2.25802         18.7212         2.42841 
        2.26417         18.6549           2.412 
        2.27031         18.5893         2.39573 
        2.27644         18.5369         2.37966 
        2.28257         18.4762         2.36373 
        2.28872         18.4078         2.34792 
        2.29486         18.3384         2.33226 
        2.30099           18.23         2.31677 
        2.30712         18.1853         2.30142 
        2.31326         18.0912         2.28617 
         2.3194         18.0449         2.27108 
        2.32553         17.9706         2.25614 
        2.33166         17.8954         2.24135 
         2.3378         17.8159         2.22667 
        2.34394         17.7576         2.21212 
        2.35007         17.6834         2.19771 
        2.35619         17.6563         2.18345 
        2.36233         17.5207         2.16929 
        2.36848         17.4879         2.15522 
        2.37462         17.4504          2.1413 
        2.38075         17.3474         2.12752 
        2.38689         17.2592         2.11385 
        2.39303         17.2136          2.1003 
        2.39916          17.131         2.08689 
        2.40529         17.0856         2.07359 
        2.41143         16.9958          2.0604 
        2.41757         16.9088         2.04732 
         2.4237         16.8734         2.03437 
        2.42983         16.8048         2.02154 
        2.43598         16.7224         2.00878 
        2.44211         16.6778         1.99616 
        2.44823         16.5833         1.98367 
        2.45437         16.5608         1.97125 
        2.46052         16.4958         1.95893 
        2.46665         16.4497         1.94674 
        2.47279         16.3505         1.93465 
        2.47892         16.3043         1.92266 
        2.48507         16.2488         1.91076 
         2.4912          16.186         1.89898 
