# k  (h/Mpc)    P(k)  (Mpc/h)^3    P_linear(k)  (Mpc/h)^3
     0.00783031         3659.66         3686.21 
       0.013688         4763.33         4843.06 
       0.019231         5134.81         5179.86 
      0.0249154         5061.03         5063.54 
      0.0312784         4626.19          4653.8 
      0.0375637          4125.3         4167.19 
      0.0433917         3742.44         3752.95 
      0.0492413         3385.75         3415.24 
      0.0555754         3128.67         3138.14 
      0.0619321         2861.46         2925.45 
       0.067871         2719.97          2753.5 
      0.0738098          2557.3         2581.91 
      0.0800417         2371.66         2388.48 
      0.0862327         2159.74         2183.95 
      0.0921407         1967.54         1988.59 
      0.0982031         1797.25         1802.66 
       0.104506         1617.52         1637.53 
       0.110769         1493.28         1507.36 
       0.116806         1418.19         1411.69 
       0.122832         1330.29         1337.98 
       0.129052         1272.24         1274.58 
       0.135211         1223.78         1214.77 
       0.141259         1150.92         1152.59 
       0.147318          1071.9         1084.81 
       0.153489         1009.75         1012.06 
       0.159709         952.051         939.455 
       0.165845         870.931         873.385 
       0.171974         838.362         816.385 
       0.178125          796.38         769.468 
       0.184229         745.454         732.181 
        0.19034         725.895         701.644 
       0.196428         700.828         674.875 
       0.202534         660.967         648.836 
       0.208729         645.707         621.303 
       0.214876         621.737         592.259 
       0.220989         580.365         562.261 
       0.227147         565.484         532.277 
        0.23329         541.922         504.107 
       0.239377         524.745         479.042 
       0.245482         497.991         457.231 
       0.251667          477.35         438.367 
       0.257832         470.932         422.098 
       0.263955         446.797         407.484 
       0.270079         432.631         393.496 
        0.27624         414.634         379.404 
       0.282372         403.888         365.075 
        0.28843         400.064         350.726 
       0.294538         381.124         336.392 
       0.300721         365.962         322.476 
        0.30691         359.618          309.51 
       0.313033         344.893         297.852 
       0.319153         338.643         287.353 
       0.325316         328.036         277.785 
        0.33145         319.629         268.984 
       0.337538         309.698         260.686 
       0.343633         300.554         252.579 
       0.349808         292.288         244.458 
       0.355968           285.4         236.413 
       0.362074         279.258         228.579 
       0.368217         273.969         220.946 
       0.374374         268.026         213.658 
       0.380519         256.947         206.829 
       0.386598         252.116         200.519 
       0.392688          246.11         194.623 
        0.39888         240.989         188.983 
       0.405048         236.415         183.634 
       0.411186         233.008         178.505 
       0.417313          227.72         173.515 
       0.423458         222.021         168.621 
       0.429607         217.994         163.843 
       0.435692         213.948         159.251 
       0.441815          208.76         154.796 
       0.447964         203.072         150.519 
       0.454126         199.522         146.434 
       0.460267         197.866         142.561 
       0.466387         193.759         138.884 
        0.47254         191.594         135.342 
       0.478662         185.501         131.944 
       0.484765         183.061         128.663 
       0.490885         179.661          125.47 
       0.497035         178.373         122.346 
       0.503198         174.591         119.308 
       0.509342         170.237         116.375 
       0.515458         168.634         113.557 
       0.521598         164.657          110.83 
       0.527764          162.92         108.193 
       0.533884         162.056         105.676 
           0.54         157.956         103.252 
       0.546137         154.346           100.9 
       0.552299         152.727         98.6121 
       0.558452          150.02         96.3957 
       0.564573         149.455         94.2546 
       0.570708         145.398         92.1701 
       0.576825          143.82         90.1514 
       0.582926         142.308         88.1976 
       0.589034         140.234          86.301 
       0.595184         138.749          84.452 
       0.601379         135.307         82.6493 
       0.607522         133.588          80.917 
       0.613639         132.436         79.2437 
       0.619772         130.508         77.6146 
       0.625918         129.215         76.0285 
       0.632068         127.051         74.4859 
       0.638161         125.028         72.9995 
         0.6443         124.422         71.5424 
       0.650464         122.147         70.1194 
       0.656582         121.624         68.7453 
       0.662703         120.213         67.4082 
       0.668861         117.713         66.1003 
       0.675024         117.651         64.8277 
       0.681124         115.789         63.6028 
       0.687237         113.565          62.408 
       0.693381         113.141         61.2389 
       0.699536         111.835          60.098 
       0.705665         110.079          58.991 
       0.711789         108.734          57.913 
       0.717957         107.569         56.8546 
        0.72409         106.868         55.8289 
       0.730186         106.056         54.8351 
       0.736317         104.179         53.8607 
       0.742472         103.183         52.9069 
       0.748622         101.691         51.9775 
        0.75476         100.883         51.0729 
       0.760888         100.476         50.1916 
       0.767043          98.742         49.3279 
       0.773185         97.7641         48.4865 
       0.779291         96.6916         47.6698 
       0.785407         95.3591          46.871 
       0.791564         95.4246         46.0858 
       0.797719         94.3617         45.3191 
       0.803834         93.3372         44.5751 
       0.809972         92.7003         43.8453 
       0.816124         91.7134         43.1306 
       0.822261         90.5494          42.434 
       0.828378         90.2727         41.7551 
       0.834502         88.9477         41.0907 
       0.840667         88.4977         40.4367 
       0.846816         87.4648          39.799 
       0.852925          86.861         39.1792 
       0.859047         86.4245         38.5714 
       0.865192         85.1035         37.9748 
       0.871341         84.2657         37.3905 
       0.877463         83.8134         36.8212 
       0.883569         83.5015         36.2655 
       0.889708         82.7431         35.7185 
       0.895864         81.9351         35.1815 
       0.902008         81.2191         34.6568 
       0.908149         80.4927         34.1432 
       0.914301         80.0783         33.6394 
       0.920448         79.5884         33.1463 
       0.926574         78.1695          32.665 
       0.932687          77.881         32.1943 
       0.938823         77.2189         31.7314 
       0.944975         76.4629         31.2766 
       0.951105         75.8306         30.8325 
       0.957225         75.7364         30.3978 
       0.963368         74.9219         29.9702 
       0.969511         74.2801         29.5509 
       0.975621         73.7794          29.142 
       0.981748         73.0338         28.7398 
       0.987916         72.5448         28.3429 
        0.99406         72.0918          27.955 
        1.00019         71.4425         27.5752 
        1.00632         70.9906         27.2029 
        1.01246         70.4744         26.8371 
        1.01859         70.0812         26.4786 
        1.02471         69.2655         26.1272 
        1.03085         69.0122         25.7811 
        1.03698         68.5002          25.442 
        1.04314         68.1214         25.1077 
        1.04929         67.4871         24.7802 
        1.05541         67.0979           24.46 
        1.06154         66.8163         24.1447 
        1.06769         65.9063         23.8345 
        1.07382         65.7205         23.5309 
        1.07993         65.2591         23.2334 
        1.08607         64.7589         22.9398 
        1.09222         64.5003          22.651 
        1.09836         63.9585         22.3676 
        1.10449         63.5892         22.0894 
        1.11063         63.0656         21.8157 
        1.11677          63.046         21.5468 
         1.1229         62.3237         21.2829 
        1.12903         62.1702         21.0233 
        1.13518         61.9461         20.7678 
        1.14131         61.2702         20.5167 
        1.14745         60.6557           20.27 
        1.15359         60.2295         20.0274 
        1.15973         60.0366         19.7886 
        1.16584         59.6822         19.5549 
        1.17197         59.0028         19.3246 
        1.17811         58.8089         19.0974 
        1.18424         58.1502         18.8745 
        1.19038         58.0375         18.6545 
        1.19652         57.8063         18.4382 
        1.20267         57.4283         18.2254 
        1.20881         57.0348          18.016 
        1.21495         56.7769         17.8102 
        1.22108         56.5271         17.6078 
         1.2272         56.1501          17.409 
        1.23334         55.7886         17.2128 
        1.23949          55.466         17.0192 
        1.24562         54.9863         16.8292 
        1.25174          54.715         16.6424 
        1.25789          54.709         16.4579 
        1.26402         54.2448         16.2765 
        1.27014         53.8783         16.0984 
        1.27628         53.4387         15.9224 
        1.28244         53.3281         15.7487 
        1.28858         52.9122         15.5779 
        1.29471         52.7612           15.41 
        1.30084         52.2965         15.2448 
        1.30697         52.1269         15.0818 
        1.31312         51.6951         14.9209 
        1.31925         51.3693          14.763 
        1.32537         51.1682         14.6075 
        1.33151         50.8385         14.4537 
        1.33765         50.6587         14.3022 
        1.34378         50.4318         14.1532 
        1.34992         50.1061         14.0062 
        1.35606         49.8244         13.8611 
         1.3622         49.4443         13.7182 
        1.36833         49.1851         13.5778 
        1.37445         48.9197         13.4394 
        1.38059         48.7228         13.3025 
        1.38675         48.2593         13.1672 
        1.39288         48.2349         13.0343 
        1.39901         47.8866         12.9034 
        1.40515         47.6884          12.774 
         1.4113         47.6458         12.6464 
        1.41742         47.3333          12.521 
        1.42355         46.8812         12.3972 
         1.4297         46.6386         12.2746 
        1.43585         46.3343         12.1538 
        1.44198         46.1757         12.0351 
        1.44809         45.9591         11.9182 
        1.45423         45.7849         11.8024 
        1.46036         45.5348         11.6884 
        1.46649         45.3152         11.5759 
        1.47263         44.9998         11.4648 
        1.47877         44.8738         11.3552 
        1.48491         44.7168         11.2469 
        1.49104         44.3619         11.1402 
        1.49718          44.178         11.0348 
        1.50333         44.0674         10.9307 
        1.50947         43.7205         10.8281 
         1.5156         43.5549          10.727 
        1.52172         43.2021         10.6272 
        1.52787         43.0336         10.5285 
          1.534         42.8632         10.4312 
        1.54013         42.6905         10.3352 
        1.54627         42.3461         10.2403 
        1.55241         42.2341         10.1465 
        1.55855         42.0326         10.0541 
        1.56467         41.9303         9.96304 
         1.5708         41.6955         9.87289 
        1.57695         41.4498         9.78374 
        1.58308         41.1194         9.69589 
        1.58922          40.937         9.60908 
        1.59535         40.8264         9.52336 
         1.6015         40.6723         9.43859 
        1.60764         40.5113         9.35489 
        1.61376         40.2546         9.27244 
        1.61989         39.9997         9.19094 
        1.62604         39.8703         9.11023 
        1.63218         39.6468         9.03056 
        1.63831         39.5639         8.95203 
        1.64444          39.324         8.87441 
        1.65059         39.1347         8.79753 
        1.65673          38.941         8.72165 
        1.66285         38.8152         8.64689 
        1.66898         38.5634         8.57299 
        1.67512         38.4731         8.49981 
        1.68127         38.2411         8.42743 
         1.6874         38.0834         8.35606 
        1.69353           37.94         8.28556 
        1.69967         37.7494         8.21572 
        1.70581         37.4314         8.14671 
        1.71193          37.252         8.07877 
        1.71806         37.1994         8.01146 
        1.72421         37.0872         7.94479 
        1.73035         36.8323         7.87897 
        1.73649         36.6073          7.8139 
        1.74262         36.4274         7.74963 
        1.74876         36.2398         7.68605 
        1.75489         36.1527         7.62332 
        1.76101         36.0415         7.56131 
        1.76715         35.8422         7.49991 
        1.77329         35.6517         7.43912 
        1.77943         35.5787         7.37898 
        1.78557         35.3704         7.31961 
        1.79171         35.2087         7.26088 
        1.79785         35.0347         7.20279 
        1.80399         34.9215         7.14535 
        1.81012         34.7858         7.08862 
        1.81625         34.5274         7.03253 
        1.82239         34.4295         6.97697 
        1.82853         34.2858         6.92205 
        1.83466         34.1204         6.86777 
        1.84078         33.9428         6.81413 
        1.84692         33.8438         6.76099 
        1.85306         33.6381         6.70835 
         1.8592         33.5302         6.65636 
        1.86533         33.3385         6.60495 
        1.87147         33.2055         6.55403 
        1.87761         33.0789         6.50363 
        1.88375         33.0139         6.45382 
        1.88988         32.7422          6.4046 
        1.89601         32.6279         6.35586 
        1.90215         32.5008         6.30759 
        1.90829         32.4055         6.25985 
        1.91442         32.1473         6.21261 
        1.92056         32.1011          6.1659 
         1.9267         31.9556         6.11962 
        1.93284         31.8594          6.0738 
        1.93897         31.6863         6.02853 
        1.94509          31.564         5.98383 
        1.95123         31.3894         5.93947 
        1.95737         31.3118         5.89553 
        1.96349         31.1054         5.85215 
        1.96964         31.1007         5.80908 
        1.97578         30.8872         5.76644 
        1.98192         30.7357          5.7243 
        1.98805         30.5214         5.68259 
        1.99419         30.5308          5.6413 
        2.00033         30.3567         5.60039 
        2.00647         30.2287         5.55991 
         2.0126         30.0748          5.5199 
        2.01874         29.9268         5.48022 
        2.02488         29.8268         5.44091 
        2.03101         29.6759         5.40205 
        2.03714          29.541         5.36361 
        2.04328         29.4541         5.32551 
        2.04941         29.3075         5.28781 
        2.05554          29.271          5.2505 
        2.06167         29.1052          5.2135 
        2.06781         28.9707         5.17686 
        2.07396         28.9017         5.14052 
        2.08009         28.7421          5.1046 
        2.08622          28.606         5.06906 
        2.09237         28.5177         5.03379 
        2.09851         28.2958         4.99885 
        2.10464         28.2483         4.96431 
        2.11077         28.2168         4.93013 
        2.11691         28.0226          4.8962 
        2.12305         27.9317          4.8626 
        2.12918         27.7902         4.82939 
        2.13531         27.7058         4.79649 
        2.14145         27.5202         4.76382 
         2.1476         27.3901         4.73142 
        2.15372         27.3086         4.69949 
        2.15985         27.2295         4.66782 
        2.16599         27.1124         4.63635 
        2.17213         27.0273         4.60522 
        2.17827         26.8315         4.57437 
         2.1844         26.7676         4.54384 
        2.19054          26.701         4.51358 
        2.19666         26.5618         4.48364 
         2.2028         26.4818         4.45394 
        2.20893         26.2768          4.4245 
        2.21508         26.2085          4.3953 
        2.22122         26.0991         4.36635 
        2.22736         26.0372         4.33773 
        2.23349         25.9245         4.30936 
        2.23962         25.8741         4.28124 
        2.24577         25.7094         4.25335 
         2.2519         25.6134         4.22575 
        2.25802          25.426         4.19843 
        2.26417         25.3784         4.17129 
        2.27031         25.3019         4.14436 
        2.27644         25.2554         4.11775 
        2.28257         25.0905         4.09137 
        2.28872          25.034         4.06518 
        2.29486         24.9246         4.03922 
        2.30099         24.7559         4.01354 
        2.30712         24.6942         3.98808 
        2.31326         24.5908          3.9628 
         2.3194         24.5127         3.93775 
        2.32553          24.407         3.91296 
        2.33166         24.2701          3.8884 
         2.3378         24.2419         3.86402 
        2.34394          24.119         3.83983 
        2.35007          24.004          3.8159 
        2.35619         23.9136         3.79219 
        2.36233         23.8292         3.76863 
        2.36848         23.7353         3.74523 
        2.37462         23.6108         3.72207 
        2.38075         23.5112         3.69914 
        2.38689          23.432         3.67638 
        2.39303         23.3424         3.65381 
        2.39916         23.2532         3.63146 
        2.40529         23.1445          3.6093 
        2.41143          23.076         3.58731 
        2.41757          22.956         3.56549 
         2.4237         22.8768          3.5439 
        2.42983         22.8108         3.52249 
        2.43598         22.7164          3.5012 
        2.44211         22.6011         3.48012 
        2.44823         22.5638         3.45926 
        2.45437         22.4666         3.43852 
        2.46052          22.348         3.41793 
        2.46665         22.2851         3.39755 
        2.47279         22.1478         3.37734 
        2.47892         22.0957         3.35728 
        2.48507         22.0109         3.33737 
         2.4912         21.9265         3.31766 
