# k  (h/Mpc)    P(k)  (Mpc/h)^3    P_linear(k)  (Mpc/h)^3
     0.00783031          2380.9         2399.06 
       0.013688         3107.41         3152.56 
       0.019231         3347.94         3372.11 
      0.0249154         3295.15         3296.57 
      0.0312784         3017.02         3029.94 
      0.0375637         2693.46          2713.2 
      0.0433917            2441         2443.54 
      0.0492413          2210.9         2223.68 
      0.0555754         2041.96         2043.29 
      0.0619321         1874.01         1904.81 
       0.067871         1778.81         1792.87 
      0.0738098         1671.24         1681.15 
      0.0800417         1549.95         1555.21 
      0.0862327         1412.19         1422.04 
      0.0921407         1285.97         1294.83 
      0.0982031         1172.93         1173.78 
       0.104506         1056.81         1066.26 
       0.110769         974.945         981.494 
       0.116806         923.641         919.202 
       0.122832         867.592         871.214 
       0.129052         829.902         829.929 
       0.135211         796.387         790.988 
       0.141259         750.247         750.496 
       0.147318         699.871         706.367 
       0.153489          658.07         658.995 
       0.159709         617.775         611.718 
       0.165845         566.321         568.698 
       0.171974         542.292         531.583 
       0.178125         513.483         501.034 
       0.184229         482.696         476.755 
        0.19034         468.586         456.871 
       0.196428         451.505         439.441 
       0.202534         427.017         422.486 
       0.208729         415.578         404.558 
       0.214876         399.932         385.646 
       0.220989         373.339         366.113 
       0.227147         362.501         346.589 
        0.23329         346.491         328.247 
       0.239377         333.562         311.926 
       0.245482          316.81         297.724 
       0.251667         303.138         285.441 
       0.257832         297.928         274.847 
       0.263955         283.318         265.331 
       0.270079         274.149         256.223 
        0.27624         262.709         247.047 
       0.282372         254.948         237.717 
        0.28843         251.454         228.374 
       0.294538         240.045          219.04 
       0.300721         229.603         209.979 
        0.30691         224.965         201.536 
       0.313033         215.862         193.945 
       0.319153          211.85         187.109 
       0.325316         203.651         180.879 
        0.33145         197.812         175.148 
       0.337538         192.112         169.745 
       0.343633         186.668         164.466 
       0.349808         181.136         159.178 
       0.355968          176.19         153.939 
       0.362074         172.739         148.839 
       0.368217          168.42         143.868 
       0.374374         164.815         139.123 
       0.380519          157.77         134.676 
       0.386598         154.082         130.567 
       0.392688         150.037         126.728 
        0.39888         147.257         123.056 
       0.405048         144.098         119.573 
       0.411186         141.177         116.233 
       0.417313         137.599         112.984 
       0.423458          134.14         109.797 
       0.429607         131.906         106.686 
       0.435692         129.584         103.696 
       0.441815         125.407         100.795 
       0.447964         121.925         98.0099 
       0.454126         119.716         95.3504 
       0.460267         118.852         92.8284 
       0.466387         115.937         90.4341 
        0.47254         114.578         88.1274 
       0.478662         110.874         85.9147 
       0.484765          109.07         83.7789 
       0.490885          106.43         81.6993 
       0.497035         105.569         79.6656 
       0.503198         102.939         77.6868 
       0.509342         100.481         75.7771 
       0.515458         99.4339         73.9421 
       0.521598         97.0827         72.1665 
       0.527764         96.0084         70.4498 
       0.533884         94.7628         68.8107 
           0.54         92.5598         67.2321 
       0.546137         90.1521         65.7009 
       0.552299           88.91          64.211 
       0.558452         87.2828         62.7678 
       0.564573         86.8865         61.3737 
       0.570708         84.3295         60.0163 
       0.576825         83.4984         58.7019 
       0.582926         82.4451         57.4297 
       0.589034         81.0486         56.1947 
       0.595184          79.997         54.9907 
       0.601379         77.9383         53.8169 
       0.607522         76.9893         52.6889 
       0.613639         76.1384         51.5993 
       0.619772         74.8785         50.5386 
       0.625918         73.7085         49.5058 
       0.632068         73.0068         48.5013 
       0.638161         71.6043         47.5335 
         0.6443         70.9248         46.5847 
       0.650464         69.4174         45.6581 
       0.656582         69.0773         44.7633 
       0.662703         68.3206         43.8927 
       0.668861         66.7391         43.0411 
       0.675024         66.3795         42.2124 
       0.681124         65.5795         41.4148 
       0.687237         64.2962         40.6368 
       0.693381         63.5867         39.8756 
       0.699536         63.1639         39.1327 
       0.705665          62.068         38.4119 
       0.711789         61.1655         37.7099 
       0.717957         60.2534         37.0208 
        0.72409         59.7418         36.3529 
       0.730186         59.4202         35.7058 
       0.736317         58.3661         35.0713 
       0.742472         57.7405         34.4502 
       0.748622         56.8827         33.8451 
        0.75476         55.8665          33.256 
       0.760888         55.7573         32.6822 
       0.767043         54.8319         32.1197 
       0.773185         54.4204         31.5719 
       0.779291         53.7689         31.0401 
       0.785407         52.9381           30.52 
       0.791564         52.8998         30.0086 
       0.797719         52.0372         29.5094 
       0.803834         51.6212          29.025 
       0.809972         50.9158         28.5498 
       0.816124         50.4318         28.0844 
       0.822261         49.8841         27.6308 
       0.828378         49.5478         27.1887 
       0.834502         49.0313         26.7561 
       0.840667         48.6079         26.3303 
       0.846816         47.7203          25.915 
       0.852925         47.6529         25.5114 
       0.859047         47.2128         25.1157 
       0.865192         46.5429         24.7272 
       0.871341         46.0612         24.3467 
       0.877463         45.7139         23.9761 
       0.883569         45.5163         23.6142 
       0.889708         44.9609          23.258 
       0.895864          44.455         22.9083 
       0.902008         43.9591         22.5667 
       0.908149         43.6602         22.2323 
       0.914301         43.3983         21.9042 
       0.920448         42.9013         21.5832 
       0.926574         42.3367         21.2697 
       0.932687         42.0616         20.9633 
       0.938823         41.6129         20.6618 
       0.944975         41.2837         20.3657 
       0.951105         40.9226         20.0765 
       0.957225         40.7471         19.7935 
       0.963368         40.2149          19.515 
       0.969511          39.914          19.242 
       0.975621         39.5692         18.9757 
       0.981748         39.1614         18.7139 
       0.987916         38.9433         18.4554 
        0.99406         38.5319         18.2028 
        1.00019         38.2774         17.9555 
        1.00632         37.9783         17.7131 
        1.01246         37.7197         17.4749 
        1.01859         37.3081         17.2415 
        1.02471         36.9963         17.0127 
        1.03085         36.8961         16.7873 
        1.03698         36.5618         16.5665 
        1.04314         36.2394         16.3488 
        1.04929         35.8795         16.1356 
        1.05541         35.7603         15.9271 
        1.06154         35.5523         15.7218 
        1.06769         35.1066         15.5198 
        1.07382          34.845         15.3221 
        1.07993         34.5454         15.1284 
        1.08607         34.3736         14.9372 
        1.09222         34.0988         14.7492 
        1.09836         33.8421         14.5646 
        1.10449          33.642         14.3835 
        1.11063         33.3989         14.2053 
        1.11677         33.3231         14.0302 
         1.1229         32.9848         13.8583 
        1.12903         32.7858         13.6893 
        1.13518         32.5487         13.5229 
        1.14131         32.3317         13.3594 
        1.14745         31.9474         13.1988 
        1.15359          31.728         13.0408 
        1.15973         31.4969         12.8853 
        1.16584         31.3101         12.7331 
        1.17197         31.0185         12.5832 
        1.17811         30.8612         12.4352 
        1.18424         30.6247         12.2901 
        1.19038         30.4917         12.1469 
        1.19652         30.2546          12.006 
        1.20267         30.0895         11.8674 
        1.20881         29.8676         11.7311 
        1.21495         29.6545         11.5971 
        1.22108         29.6279         11.4653 
         1.2272         29.4058         11.3358 
        1.23334         29.1947         11.2081 
        1.23949         28.9853          11.082 
        1.24562         28.7145         10.9583 
        1.25174         28.6087         10.8367 
        1.25789         28.4632         10.7165 
        1.26402          28.319         10.5984 
        1.27014         28.1399         10.4824 
        1.27628         27.8578         10.3678 
        1.28244         27.8634         10.2547 
        1.28858         27.5575         10.1435 
        1.29471          27.348         10.0342 
        1.30084         27.1884         9.92663 
        1.30697         27.1237         9.82048 
        1.31312          26.871         9.71574 
        1.31925         26.7437         9.61288 
        1.32537         26.5714         9.51162 
        1.33151         26.4176         9.41147 
        1.33765         26.3346         9.31284 
        1.34378          26.167         9.21582 
        1.34992          26.025         9.12014 
        1.35606         25.8142         9.02562 
         1.3622          25.617         8.93261 
        1.36833         25.5588         8.84115 
        1.37445         25.4509         8.75102 
        1.38059         25.2833         8.66189 
        1.38675         25.0802          8.5738 
        1.39288         24.9423         8.48729 
        1.39901         24.8448         8.40202 
        1.40515         24.6973         8.31774 
         1.4113         24.5808         8.23467 
        1.41742         24.4659         8.15305 
        1.42355         24.2665          8.0724 
         1.4297         24.1478          7.9926 
        1.43585         24.0379         7.91393 
        1.44198         23.9427         7.83663 
        1.44809         23.7995         7.76051 
        1.45423         23.6529         7.68513 
        1.46036         23.5428          7.6109 
        1.46649         23.3922         7.53763 
        1.47263         23.3172         7.46527 
        1.47877         23.2196         7.39391 
        1.48491         23.0647         7.32337 
        1.49104         22.9294         7.25391 
        1.49718         22.8312         7.18531 
        1.50333         22.7331          7.1175 
        1.50947         22.6218         7.05071 
         1.5156         22.4871         6.98488 
        1.52172         22.3622          6.9199 
        1.52787         22.2402         6.85562 
          1.534         22.1914         6.79225 
        1.54013         22.0762         6.72975 
        1.54627         21.9244         6.66792 
        1.55241         21.7951         6.60688 
        1.55855         21.7268         6.54668 
        1.56467         21.6523         6.48741 
         1.5708          21.559         6.42872 
        1.57695         21.4063         6.37066 
        1.58308         21.2615         6.31346 
        1.58922          21.193         6.25693 
        1.59535         21.0597         6.20112 
         1.6015         20.9359         6.14592 
        1.60764         20.8832         6.09142 
        1.61376          20.825         6.03774 
        1.61989         20.6693         5.98466 
        1.62604         20.6136         5.93211 
        1.63218         20.5039         5.88023 
        1.63831         20.3805          5.8291 
        1.64444          20.293         5.77855 
        1.65059         20.1868          5.7285 
        1.65673         20.1288         5.67909 
        1.66285         19.9934         5.63041 
        1.66898         19.9523         5.58229 
        1.67512         19.8724         5.53464 
        1.68127          19.713         5.48751 
         1.6874         19.6727         5.44103 
        1.69353         19.5429         5.39513 
        1.69967         19.4556         5.34965 
        1.70581         19.4139         5.30472 
        1.71193         19.2811         5.26048 
        1.71806         19.2381         5.21665 
        1.72421         19.1288         5.17324 
        1.73035         19.0211         5.13037 
        1.73649         18.9746         5.08801 
        1.74262         18.8221         5.04616 
        1.74876         18.7969         5.00476 
        1.75489         18.7157         4.96391 
        1.76101         18.6222         4.92353 
        1.76715         18.5404         4.88355 
        1.77329         18.4631         4.84397 
        1.77943         18.3445         4.80481 
        1.78557         18.3215         4.76615 
        1.79171         18.2055         4.72791 
        1.79785         18.1775         4.69008 
        1.80399         18.0443         4.65268 
        1.81012         18.0087         4.61574 
        1.81625         17.8706         4.57922 
        1.82239         17.8108         4.54304 
        1.82853         17.7514         4.50728 
        1.83466         17.6379         4.47193 
        1.84078         17.6217         4.43701 
        1.84692         17.5678         4.40241 
        1.85306         17.4787         4.36813 
         1.8592         17.3964         4.33428 
        1.86533         17.2893          4.3008 
        1.87147         17.2301         4.26765 
        1.87761         17.1418         4.23483 
        1.88375         17.1002          4.2024 
        1.88988         16.9831         4.17034 
        1.89601         16.9454         4.13861 
        1.90215         16.8464         4.10718 
        1.90829         16.7792         4.07609 
        1.91442         16.7021         4.04533 
        1.92056         16.7092         4.01491 
         1.9267         16.6085         3.98478 
        1.93284         16.5775         3.95494 
        1.93897         16.4593         3.92547 
        1.94509         16.4112         3.89636 
        1.95123         16.3537         3.86748 
        1.95737         16.3052         3.83886 
        1.96349         16.1761         3.81062 
        1.96964         16.1364         3.78257 
        1.97578         16.1007          3.7548 
        1.98192         16.0016         3.72737 
        1.98805         15.9441         3.70021 
        1.99419         15.8872         3.67332 
        2.00033         15.8442         3.64669 
        2.00647         15.7681         3.62033 
         2.0126         15.7163         3.59427 
        2.01874         15.6074         3.56844 
        2.02488         15.5798         3.54284 
        2.03101         15.5044         3.51754 
        2.03714         15.4592         3.49251 
        2.04328         15.3615         3.46769 
        2.04941         15.2949         3.44315 
        2.05554         15.2914         3.41885 
        2.06167         15.2201         3.39476 
        2.06781         15.1391         3.37091 
        2.07396         15.1352         3.34724 
        2.08009         15.0085         3.32385 
        2.08622          14.993         3.30071 
        2.09237         14.9491         3.27774 
        2.09851         14.8505         3.25499 
        2.10464         14.8328          3.2325 
        2.11077         14.7402         3.21025 
        2.11691         14.7245         3.18816 
        2.12305          14.639         3.16627 
        2.12918         14.5453         3.14465 
        2.13531           14.54         3.12322 
        2.14145         14.4733         3.10195 
         2.1476         14.4022         3.08086 
        2.15372         14.3644         3.06006 
        2.15985         14.3213         3.03944 
        2.16599         14.2586         3.01895 
        2.17213         14.2335         2.99868 
        2.17827         14.1591         2.97859 
         2.1844         14.1163         2.95871 
        2.19054         14.0737         2.93901 
        2.19666         14.0167         2.91951 
         2.2028         13.9511         2.90018 
        2.20893         13.9105         2.88101 
        2.21508         13.8535         2.86199 
        2.22122         13.7909         2.84314 
        2.22736         13.7653          2.8245 
        2.23349         13.7046         2.80604 
        2.23962         13.6682         2.78773 
        2.24577         13.6161         2.76956 
         2.2519         13.5708         2.75159 
        2.25802          13.466          2.7338 
        2.26417         13.4849         2.71613 
        2.27031          13.409         2.69859 
        2.27644         13.3685         2.68126 
        2.28257         13.2841         2.66409 
        2.28872         13.2891         2.64703 
        2.29486         13.2329         2.63013 
        2.30099         13.1891         2.61341 
        2.30712         13.1034         2.59683 
        2.31326         13.0426         2.58037 
         2.3194         13.0308         2.56406 
        2.32553         12.9552         2.54792 
        2.33166         12.9218         2.53193 
         2.3378         12.8857         2.51605 
        2.34394         12.8543          2.5003 
        2.35007         12.7864         2.48471 
        2.35619         12.7533         2.46928 
        2.36233         12.6772         2.45394 
        2.36848         12.6605          2.4387 
        2.37462         12.6177         2.42362 
        2.38075         12.5863         2.40869 
        2.38689         12.5424         2.39387 
        2.39303         12.4581         2.37917 
        2.39916         12.4452         2.36462 
        2.40529         12.4052         2.35019 
        2.41143         12.3521         2.33587 
        2.41757         12.3042         2.32167 
         2.4237         12.2718          2.3076 
        2.42983         12.2171         2.29366 
        2.43598          12.192          2.2798 
        2.44211         12.1572         2.26607 
        2.44823         12.0997         2.25249 
        2.45437         12.0591         2.23899 
        2.46052         12.0354         2.22558 
        2.46665         11.9903         2.21231 
        2.47279         11.9538         2.19915 
        2.47892         11.8859         2.18609 
        2.48507         11.8643         2.17312 
         2.4912         11.8122         2.16029 
