# k  (h/Mpc)    Pcb(k)  (Mpc/h)^3    Pcb_linear(k)  (Mpc/h)^3
     0.00783031         13836.2         13912.3 
       0.013688         16472.7         16893.3 
       0.019231         16543.9         16785.1 
      0.0249154         15265.1         15224.9 
      0.0312784           12846         12957.4 
      0.0375637         10765.1         10936.6 
      0.0433917         9481.15         9524.54 
      0.0492413         8442.76         8545.82 
      0.0555754         7786.17         7828.33 
      0.0619321         7014.21         7263.98 
       0.067871         6593.98         6731.51 
      0.0738098         6063.77         6131.37 
      0.0800417         5417.99         5446.12 
      0.0862327         4750.94         4778.95 
      0.0921407          4240.8         4223.84 
      0.0982031         3856.61         3778.13 
       0.104506          3472.1         3450.97 
       0.110769         3265.59         3232.69 
       0.116806         3150.57          3077.5 
       0.122832         2967.48         2932.64 
       0.129052         2793.93         2762.42 
       0.135211         2664.81         2564.07 
       0.141259         2430.95         2351.85 
       0.147318         2219.23         2143.48 
       0.153489         2068.36         1956.62 
       0.159709         1973.97          1806.6 
       0.165845         1813.83         1696.87 
       0.171974         1777.66         1616.58 
       0.178125         1720.99         1551.92 
       0.184229         1596.08         1490.35 
        0.19034         1563.18         1422.37 
       0.196428         1506.59         1345.74 
       0.202534         1400.27          1263.1 
       0.208729         1365.68         1179.87 
       0.214876         1297.51         1104.45 
       0.220989         1223.45         1040.67 
       0.227147         1191.94          988.58 
        0.23329         1146.82          946.71 
       0.239377         1137.14          911.39 
       0.245482         1081.27         878.142 
       0.251667          1040.5         843.694 
       0.257832         1023.69           807.3 
       0.263955         971.252         769.635 
       0.270079         939.021         732.109 
        0.27624         899.047         696.411 
       0.282372         883.686         664.386 
        0.28843         871.439         636.692 
       0.294538         828.514         612.399 
       0.300721         809.442         590.541 
        0.30691         792.321         570.171 
       0.313033         758.612         550.506 
       0.319153         748.347         530.758 
       0.325316         737.074         510.748 
        0.33145         719.647         491.037 
       0.337538         693.782         472.186 
       0.343633         675.733         454.488 
       0.349808         660.533         437.991 
       0.355968         648.066         422.981 
       0.362074         625.513         409.282 
       0.368217         623.025         396.375 
       0.374374         612.867         383.968 
       0.380519         588.943         371.886 
       0.386598         583.699         360.151 
       0.392688         569.567         348.624 
        0.39888         555.365         337.272 
       0.405048         544.451         326.462 
       0.411186         543.236         316.276 
       0.417313         537.529         306.716 
       0.423458         521.681         297.689 
       0.429607         506.796         289.123 
       0.435692          500.57         281.017 
       0.441815         491.558         273.147 
       0.447964         482.468         265.465 
       0.454126         476.963         257.986 
       0.460267         469.195         250.768 
       0.466387         460.513         243.827 
        0.47254         454.051         237.124 
       0.478662         445.371         230.749 
       0.484765         439.807         224.679 
       0.490885         435.579         218.848 
       0.497035         426.314         213.217 
       0.503198         425.903         207.779 
       0.509342           416.6         202.539 
       0.515458         408.819         197.482 
       0.521598         404.203         192.558 
       0.527764         397.122         187.773 
       0.533884         394.265         183.187 
           0.54         389.574         178.767 
       0.546137         381.758          174.49 
       0.552299         380.577         170.346 
       0.558452         374.381         166.354 
       0.564573         371.458         162.517 
       0.570708         366.299         158.794 
       0.576825           359.4         155.196 
       0.582926         357.784         151.714 
       0.589034         351.754         148.331 
       0.595184         349.337         145.028 
       0.601379         343.744         141.806 
       0.607522         336.981         138.712 
       0.613639         336.011         135.726 
       0.619772         334.763         132.825 
       0.625918         328.228         130.004 
       0.632068         325.592         127.265 
       0.638161         322.992          124.63 
         0.6443         318.734         122.052 
       0.650464         314.988         119.538 
       0.656582         311.971         117.113 
       0.662703         310.071         114.755 
       0.668861         304.478          112.45 
       0.675024         303.187         110.206 
       0.681124          298.79         108.048 
       0.687237         297.224         105.944 
       0.693381         292.877         103.887 
       0.699536         291.683         101.882 
       0.705665         288.181         99.9398 
       0.711789         285.908         98.0508 
       0.717957         282.928         96.1983 
        0.72409         279.294         94.4046 
       0.730186         280.921         92.6679 
       0.736317         275.893          90.966 
       0.742472          273.25         89.3009 
       0.748622         270.545         87.6796 
        0.75476         269.784         86.1024 
       0.760888         266.542         84.5669 
       0.767043         263.546         83.0632 
       0.773185         261.906         81.5997 
       0.779291         258.639         80.1802 
       0.785407         257.398         78.7929 
       0.791564         255.312         77.4301 
       0.797719         251.094         76.1006 
       0.803834         252.791         74.8111 
       0.809972         249.044         73.5472 
       0.816124         245.759         72.3102 
       0.822261         244.111         71.1052 
       0.828378         243.292         69.9317 
       0.834502          239.98         68.7839 
       0.840667         240.132         67.6548 
       0.846816         235.449         66.5545 
       0.852925         235.646         65.4858 
       0.859047         233.359         64.4386 
       0.865192         232.614         63.4112 
       0.871341         229.605         62.4057 
       0.877463         227.907         61.4267 
       0.883569         227.096         60.4715 
       0.889708         224.961         59.5319 
       0.895864         222.622         58.6101 
       0.902008         220.993           57.71 
       0.908149         219.211         56.8295 
       0.914301         217.812         55.9662 
       0.920448         217.052         55.1218 
       0.926574         214.842          54.298 
       0.932687         214.267         53.4929 
       0.938823         212.029         52.7015 
       0.944975         211.421         51.9244 
       0.951105         208.994         51.1659 
       0.957225         207.337         50.4241 
       0.963368         207.216         49.6946 
       0.969511         203.789         48.9797 
       0.975621         202.213         48.2828 
       0.981748         201.767         47.5979 
       0.987916         200.786          46.922 
        0.99406         198.944          46.262 
        1.00019          197.74          45.616 
        1.00632         196.777         44.9832 
        1.01246         195.212         44.3615 
        1.01859         193.314         43.7526 
        1.02471         191.942         43.1561 
        1.03085          190.76         42.5687 
        1.03698         189.977         41.9936 
        1.04314         189.382         41.4268 
        1.04929         188.086         40.8719 
        1.05541         186.864         40.3294 
        1.06154         185.062         39.7955 
        1.06769         183.985         39.2706 
        1.07382         183.087         38.7569 
        1.07993         181.268         38.2537 
        1.08607         180.673         37.7574 
        1.09222          179.11         37.2695 
        1.09836         178.492         36.7909 
        1.10449         177.073         36.3213 
        1.11063         175.799         35.8594 
        1.11677         174.841         35.4058 
         1.1229         173.888          34.961 
        1.12903         172.467         34.5234 
        1.13518          171.39          34.093 
        1.14131         170.759         33.6703 
        1.14745         169.086         33.2551 
        1.15359          167.97         32.8468 
        1.15973         167.477         32.4453 
        1.16584         166.451         32.0523 
        1.17197         165.585         31.6654 
        1.17811         164.107         31.2837 
        1.18424         163.246         30.9095 
        1.19038         162.399         30.5404 
        1.19652         160.907         30.1775 
        1.20267         160.061         29.8205 
        1.20881          158.94         29.4694 
        1.21495         158.821         29.1246 
        1.22108         157.456         28.7854 
         1.2272          156.29         28.4525 
        1.23334         155.539         28.1241 
        1.23949         154.896         27.8001 
        1.24562         153.716         27.4822 
        1.25174         153.093         27.1698 
        1.25789         151.716         26.8613 
        1.26402         151.408         26.5582 
        1.27014         150.546         26.2606 
        1.27628         149.324         25.9666 
        1.28244          148.47         25.6767 
        1.28858         147.542         25.3915 
        1.29471         146.649         25.1114 
        1.30084         145.758         24.8358 
        1.30697         144.724         24.5639 
        1.31312         144.057         24.2957 
        1.31925         142.988         24.0324 
        1.32537         142.515         23.7733 
        1.33151         141.744         23.5171 
        1.33765         140.616         23.2648 
        1.34378         140.353         23.0168 
        1.34992         139.344         22.7723 
        1.35606         138.633         22.5308 
         1.3622         137.919         22.2932 
        1.36833         136.672         22.0597 
        1.37445         136.569         21.8297 
        1.38059         135.374         21.6023 
        1.38675         134.657         21.3776 
        1.39288         133.703          21.157 
        1.39901         132.947         20.9396 
        1.40515         132.528         20.7249 
         1.4113         131.539         20.5132 
        1.41742         130.819         20.3053 
        1.42355         130.509            20.1 
         1.4297         129.377         19.8969 
        1.43585         128.812         19.6967 
        1.44198         127.568            19.5 
        1.44809         127.259         19.3064 
        1.45423         126.768         19.1148 
        1.46036         125.644         18.9261 
        1.46649         124.986         18.7399 
        1.47263           124.4         18.5561 
        1.47877         123.533         18.3749 
        1.48491         123.053         18.1957 
        1.49104         121.811         18.0194 
        1.49718         121.547         17.8453 
        1.50333         120.962         17.6732 
        1.50947         120.298         17.5038 
         1.5156          119.47         17.3368 
        1.52172         118.839         17.1721 
        1.52787         118.405         17.0091 
          1.534         117.663         16.8485 
        1.54013         116.917         16.6902 
        1.54627         116.208         16.5336 
        1.55241         115.904          16.379 
        1.55855         115.187         16.2266 
        1.56467         114.503         16.0765 
         1.5708         113.418          15.928 
        1.57695         113.292         15.7811 
        1.58308         112.429         15.6365 
        1.58922         112.143         15.4935 
        1.59535         111.671         15.3524 
         1.6015         110.712         15.2129 
        1.60764          110.02         15.0752 
        1.61376         109.594         14.9396 
        1.61989         109.111         14.8055 
        1.62604          108.28         14.6728 
        1.63218         107.838         14.5418 
        1.63831         107.122         14.4128 
        1.64444         106.462         14.2852 
        1.65059         105.967         14.1589 
        1.65673         105.742         14.0343 
        1.66285         105.191         13.9116 
        1.66898         104.321         13.7903 
        1.67512         103.674         13.6702 
        1.68127         103.381         13.5514 
         1.6874         102.517         13.4343 
        1.69353         102.129         13.3187 
        1.69967         101.432         13.2042 
        1.70581         101.206          13.091 
        1.71193          100.47         12.9797 
        1.71806         99.8205         12.8694 
        1.72421         99.3379         12.7601 
        1.73035         98.8082         12.6523 
        1.73649         98.1908         12.5458 
        1.74262         97.9031         12.4405 
        1.74876         97.1343         12.3364 
        1.75489         96.8563         12.2337 
        1.76101         96.2965         12.1323 
        1.76715         95.6057         12.0318 
        1.77329         95.1564         11.9324 
        1.77943         94.6582          11.834 
        1.78557         94.3721         11.7369 
        1.79171         93.7339         11.6409 
        1.79785         93.0161          11.546 
        1.80399         92.8344         11.4521 
        1.81012         91.9968         11.3594 
        1.81625         91.6477         11.2678 
        1.82239         91.2464          11.177 
        1.82853         90.6329         11.0874 
        1.83466         90.0493         10.9987 
        1.84078          89.887         10.9112 
        1.84692         89.5572         10.8245 
        1.85306         89.0115         10.7386 
         1.8592         88.5658         10.6538 
        1.86533         87.9122         10.5699 
        1.87147         87.6249         10.4869 
        1.87761         86.7755         10.4047 
        1.88375         86.4833         10.3235 
        1.88988         85.8586         10.2433 
        1.89601         85.8672         10.1638 
        1.90215         85.2921         10.0852 
        1.90829         84.6084         10.0074 
        1.91442         84.1476         9.93048 
        1.92056         83.8586         9.85442 
         1.9267          83.422         9.77908 
        1.93284         83.0178         9.70448 
        1.93897         82.5786         9.63081 
        1.94509         82.1481         9.55807 
        1.95123         81.6897         9.48589 
        1.95737          81.442         9.41442 
        1.96349         81.0299         9.34387 
        1.96964         80.5341         9.27384 
        1.97578         80.0335          9.2045 
        1.98192         79.6607         9.13601 
        1.98805         79.1045         9.06822 
        1.99419         79.0133         9.00111 
        2.00033         78.3223         8.93465 
        2.00647         77.9244         8.86889 
         2.0126         77.6172          8.8039 
        2.01874          77.445         8.73946 
        2.02488         76.8471         8.67562 
        2.03101         76.3834         8.61253 
        2.03714          76.075         8.55014 
        2.04328         75.8778         8.48829 
        2.04941         75.4409         8.42711 
        2.05554         74.9245         8.36658 
        2.06167         74.4393         8.30657 
        2.06781         74.0704         8.24714 
        2.07396         73.6606         8.18821 
        2.08009         73.2763         8.12995 
        2.08622          73.053         8.07234 
        2.09237         72.6585         8.01517 
        2.09851         72.0557         7.95855 
        2.10464         71.9211         7.90258 
        2.11077         71.6353         7.84721 
        2.11691         71.2549         7.79225 
        2.12305         70.8032         7.73782 
        2.12918         70.4504         7.68404 
        2.13531         70.0226         7.63077 
        2.14145          69.718         7.57789 
         2.1476         69.5143         7.52545 
        2.15372         68.9679         7.47376 
        2.15985          68.634         7.42252 
        2.16599         68.3452         7.37161 
        2.17213         67.9047         7.32123 
        2.17827         67.4227         7.27134 
         2.1844         67.2406         7.22196 
        2.19054         66.9134         7.17303 
        2.19666         66.6591         7.12462 
         2.2028         66.2817         7.07662 
        2.20893          65.985         7.02903 
        2.21508          65.536         6.98184 
        2.22122         65.1494         6.93506 
        2.22736         64.8903         6.88881 
        2.23349         64.5232           6.843 
        2.23962         64.3081         6.79758 
        2.24577         63.9636         6.75254 
         2.2519         63.5895         6.70796 
        2.25802         63.2693         6.66387 
        2.26417         62.9418         6.62005 
        2.27031         62.6672         6.57658 
        2.27644         62.2854         6.53363 
        2.28257         62.0372         6.49108 
        2.28872         61.6294         6.44882 
        2.29486         61.5216         6.40694 
        2.30099         61.0134         6.36553 
        2.30712         60.8355         6.32446 
        2.31326         60.5721         6.28369 
         2.3194         60.2235         6.24331 
        2.32553         59.8297         6.20335 
        2.33166         59.5852         6.16375 
         2.3378          59.381         6.12445 
        2.34394         59.0162         6.08548 
        2.35007         58.7104         6.04691 
        2.35619         58.4756         6.00872 
        2.36233         58.1481         5.97077 
        2.36848         57.8235         5.93307 
        2.37462          57.525         5.89578 
        2.38075         57.2867         5.85884 
        2.38689         56.8683         5.82219 
        2.39303         56.7642         5.78587 
        2.39916         56.3757         5.74989 
        2.40529         56.2171         5.71422 
        2.41143         55.9588         5.67883 
        2.41757         55.5203         5.64373 
         2.4237         55.4256         5.60899 
        2.42983         55.0938         5.57454 
        2.43598         54.8105          5.5403 
        2.44211         54.5034          5.5064 
        2.44823         54.3281         5.47286 
        2.45437          53.909         5.43951 
        2.46052         53.6981         5.40641 
        2.46665         53.3539         5.37365 
        2.47279         53.1788         5.34117 
        2.47892         52.9571         5.30894 
        2.48507          52.657         5.27694 
         2.4912         52.4216         5.24527 
