#  k  (h/Mpc)          P(k)  (Mpc/h)^3     P_linear(k) (Mpc/h)^3
     0.00783031         6713.29          6792.5 
       0.013688         8673.15         8632.76 
       0.019231          8985.6         8977.81 
      0.0249154         8412.23         8534.17 
      0.0312784         7557.58         7612.08 
      0.0375637          6639.2         6641.17 
      0.0433917         5796.78         5870.47 
      0.0492413         5249.88         5276.66 
      0.0555754         4712.49          4814.2 
      0.0619321         4479.86          4471.7 
       0.067871         4114.05         4194.28 
      0.0738098          3831.2         3909.98 
      0.0800417         3479.27         3582.66 
      0.0862327         3172.81         3236.07 
      0.0921407          2884.2         2910.34 
      0.0982031            2575         2609.19 
       0.104506         2378.22         2352.18 
       0.110769         2183.88         2159.12 
       0.116806         2033.67         2023.83 
       0.122832         1942.33         1922.41 
       0.129052         1821.58         1833.49 
       0.135211         1736.09         1744.45 
       0.141259         1659.94         1646.86 
       0.147318         1564.19         1538.17 
       0.153489         1437.85         1422.23 
       0.159709         1347.25         1309.49 
       0.165845         1277.11         1210.77 
       0.171974         1190.48         1129.41 
       0.178125         1129.71         1065.55 
       0.184229         1084.12         1016.58 
        0.19034         1018.39         976.602 
       0.196428         1001.49         940.066 
       0.202534         971.356         902.229 
       0.208729         924.601         860.288 
       0.214876         875.911         815.329 
       0.220989         846.973         769.378 
       0.227147         798.504         724.701 
        0.23329         763.667         684.263 
       0.239377         743.963          649.72 
       0.245482         695.198         620.757 
       0.251667         687.776         596.233 
       0.257832         664.427         574.958 
       0.263955         642.917         555.214 
       0.270079         621.285         535.432 
        0.27624         613.182         514.801 
       0.282372         587.644         493.531 
        0.28843         571.272         472.341 
       0.294538         544.835         451.618 
       0.300721         540.081         432.053 
        0.30691         515.122         414.392 
       0.313033         504.248         398.889 
       0.319153         487.266         385.129 
       0.325316          474.08         372.527 
        0.33145         460.423         360.726 
       0.337538         454.819         349.284 
       0.343633         440.268         337.865 
       0.349808         426.613         326.269 
       0.355968         421.472         314.806 
       0.362074         411.886         303.765 
       0.368217         400.973         293.193 
       0.374374         386.684         283.306 
       0.380519          381.63         274.176 
       0.386598         372.602         265.832 
       0.392688         369.278         258.026 
        0.39888         359.234         250.493 
       0.405048         351.974          243.26 
       0.411186         344.745         236.223 
       0.417313          338.48          229.32 
       0.423458         332.403         222.546 
       0.429607         325.059         215.954 
       0.435692         316.605         209.679 
       0.441815         314.563         203.665 
       0.447964         308.833         197.937 
       0.454126         297.374         192.505 
       0.460267         294.128         187.368 
       0.466387         290.704         182.474 
        0.47254         284.723         177.728 
       0.478662         283.121         173.152 
       0.484765         275.169         168.714 
       0.490885         271.605         164.379 
       0.497035         267.733         160.146 
       0.503198         261.481         156.048 
       0.509342         258.919         152.113 
       0.515458         255.602         148.349 
       0.521598         251.822         144.721 
       0.527764         247.806         141.225 
       0.533884         244.665         137.886 
           0.54         241.245         134.662 
       0.546137         240.055         131.526 
       0.552299          235.57          128.47 
       0.558452         232.387         125.508 
       0.564573         228.597         122.645 
       0.570708          224.94         119.861 
       0.576825         222.198          117.17 
       0.582926         219.318         114.574 
       0.589034         216.438         112.062 
       0.595184         214.442         109.616 
       0.601379         212.425         107.232 
       0.607522         207.961          104.94 
       0.613639         207.304         102.724 
       0.619772         202.704         100.567 
       0.625918         201.106         98.4669 
       0.632068         198.817         96.4242 
       0.638161         197.609         94.4563 
         0.6443         194.618         92.5284 
       0.650464         192.744         90.6477 
       0.656582         191.035          88.834 
       0.662703         188.447         87.0717 
       0.668861         185.949         85.3497 
       0.675024         183.986         83.6749 
       0.681124         183.016          82.063 
       0.687237         179.947         80.4908 
       0.693381         177.685         78.9521 
       0.699536         176.448         77.4505 
       0.705665         176.564         75.9942 
       0.711789         172.654         74.5769 
       0.717957         172.082         73.1864 
        0.72409         169.871         71.8397 
       0.730186         167.283          70.536 
       0.736317          166.56         69.2583 
       0.742472         165.494         68.0082 
       0.748622         164.204         66.7907 
        0.75476         162.755         65.6059 
       0.760888         160.523         64.4519 
       0.767043          159.55         63.3213 
       0.773185         157.945         62.2204 
       0.779291         155.888         61.1522 
       0.785407         155.102         60.1078 
       0.791564         153.658         59.0815 
       0.797719         151.689           58.08 
       0.803834         151.086         57.1084 
       0.809972         149.195         56.1559 
       0.816124          149.04         55.2234 
       0.822261         147.284         54.3149 
       0.828378         145.981         53.4298 
       0.834502         145.471         52.5639 
       0.840667         143.564         51.7118 
       0.846816         142.438         50.8812 
       0.852925         141.278         50.0743 
       0.859047         139.776         49.2833 
       0.865192         139.254         48.5069 
       0.871341          137.84         47.7469 
       0.877463         136.685         47.0068 
       0.883569         135.651         46.2845 
       0.889708         134.881         45.5737 
       0.895864         133.653         44.8762 
       0.902008         132.755          44.195 
       0.908149         132.098         43.5284 
       0.914301         130.659         42.8746 
       0.920448         129.931          42.235 
       0.926574         129.135         41.6108 
       0.932687         128.512         41.0007 
       0.938823         126.775         40.4007 
       0.944975         125.947         39.8115 
       0.951105         125.207         39.2363 
       0.957225         123.722         38.6735 
       0.963368          123.17           38.12 
       0.969511         122.702         37.5774 
       0.975621         122.202         37.0484 
       0.981748         121.217         36.5284 
       0.987916         120.033         36.0151 
        0.99406         119.481         35.5138 
        1.00019         118.457         35.0231 
        1.00632         117.866         34.5422 
        1.01246         116.915         34.0697 
        1.01859         115.548         33.6069 
        1.02471           115.9         33.1533 
        1.03085         114.692         32.7067 
        1.03698         113.788         32.2693 
        1.04314         112.847         31.8381 
        1.04929           112.3         31.4159 
        1.05541         111.545         31.0031 
        1.06154         110.983         30.5968 
        1.06769         110.529         30.1972 
        1.07382         110.045         29.8062 
        1.07993         109.285          29.423 
        1.08607         108.379          29.045 
        1.09222         107.851         28.6733 
        1.09836          107.05         28.3086 
        1.10449         106.461         27.9508 
        1.11063         105.867         27.5988 
        1.11677           105.3          27.253 
         1.1229         104.341         26.9138 
        1.12903         103.445         26.5801 
        1.13518         103.706         26.2518 
        1.14131          102.84         25.9293 
        1.14745         101.866         25.6125 
        1.15359         101.469         25.3009 
        1.15973         101.065         24.9944 
        1.16584         100.305         24.6944 
        1.17197         99.7216          24.399 
        1.17811         99.1811         24.1075 
        1.18424         98.4039         23.8216 
        1.19038         97.9493         23.5396 
        1.19652         97.5351         23.2623 
        1.20267         96.7827         22.9895 
        1.20881         96.3016         22.7212 
        1.21495         95.6139         22.4576 
        1.22108         95.1077         22.1983 
         1.2272         94.4826         21.9437 
        1.23334         94.1086         21.6925 
        1.23949         93.4663         21.4448 
        1.24562         93.2543         21.2016 
        1.25174         92.6209         20.9626 
        1.25789         92.1498         20.7265 
        1.26402         91.6931         20.4946 
        1.27014         90.8502         20.2668 
        1.27628         90.7082         20.0418 
        1.28244         89.8968         19.8198 
        1.28858         89.5342         19.6015 
        1.29471         89.1461          19.387 
        1.30084         88.5912          19.176 
        1.30697         88.0522         18.9678 
        1.31312         87.6483         18.7624 
        1.31925         87.3827         18.5607 
        1.32537          86.913         18.3622 
        1.33151         86.1408         18.1659 
        1.33765         85.7372         17.9726 
        1.34378         85.2349         17.7826 
        1.34992         84.9346         17.5951 
        1.35606         84.5006           17.41 
         1.3622         83.7874         17.2279 
        1.36833         83.6813         17.0488 
        1.37445         83.1281         16.8724 
        1.38059         82.5338         16.6979 
        1.38675         82.1518         16.5255 
        1.39288         81.6701         16.3563 
        1.39901         81.5921         16.1895 
        1.40515         81.1464         16.0247 
         1.4113         80.5465         15.8623 
        1.41742         80.3071         15.7027 
        1.42355         79.7176         15.5451 
         1.4297         79.3707         15.3891 
        1.43585         78.8643         15.2354 
        1.44198         78.6684         15.0844 
        1.44809         78.1484         14.9357 
        1.45423         77.8558         14.7885 
        1.46036         77.4935         14.6435 
        1.46649         77.0303         14.5005 
        1.47263         76.6632         14.3593 
        1.47877         76.4427           14.22 
        1.48491         76.0113         14.0823 
        1.49104         75.5148         13.9468 
        1.49718         75.0844          13.813 
        1.50333         74.7836         13.6807 
        1.50947         74.3156         13.5505 
         1.5156         74.1055         13.4221 
        1.52172         73.7438         13.2955 
        1.52787         73.5064         13.1702 
          1.534         73.1427         13.0467 
        1.54013         72.6529         12.9249 
        1.54627         72.3908         12.8044 
        1.55241          71.932         12.6855 
        1.55855         71.5205         12.5683 
        1.56467         71.0758         12.4529 
         1.5708         70.9854         12.3386 
        1.57695         70.6711         12.2255 
        1.58308         70.2489         12.1142 
        1.58922         70.1019         12.0042 
        1.59535         69.8022         11.8956 
         1.6015         69.2009         11.7882 
        1.60764         69.0867         11.6822 
        1.61376         68.6381         11.5777 
        1.61989         68.2105         11.4745 
        1.62604         68.0655         11.3723 
        1.63218         67.8501         11.2715 
        1.63831         67.4195         11.1721 
        1.64444         67.1493         11.0738 
        1.65059         66.5884         10.9766 
        1.65673         66.4516         10.8806 
        1.66285         66.1508          10.786 
        1.66898         65.7886         10.6925 
        1.67512         65.4178            10.6 
        1.68127         65.0789         10.5084 
         1.6874         64.9226         10.4182 
        1.69353         64.5486         10.3291 
        1.69967         64.2667         10.2408 
        1.70581         64.1568         10.1536 
        1.71193         63.7787         10.0677 
        1.71806         63.2581         9.98267 
        1.72421         63.1805         9.89844 
        1.73035         62.7612         9.81529 
        1.73649         62.3904         9.73312 
        1.74262         62.2584         9.65196 
        1.74876         62.0376         9.57167 
        1.75489         61.6183         9.49247 
        1.76101         61.4479          9.4142 
        1.76715         61.0499          9.3367 
        1.77329         60.8188         9.25999 
        1.77943         60.5979          9.1841 
        1.78557         60.3855         9.10919 
        1.79171         59.9972          9.0351 
        1.79785          59.774         8.96183 
        1.80399         59.4624         8.88938 
        1.81012         59.3308         8.81784 
        1.81625         58.7813         8.74712 
        1.82239         58.6244         8.67708 
        1.82853         58.2133         8.60784 
        1.83466         58.1259         8.53943 
        1.84078         57.6493         8.47183 
        1.84692         57.4884         8.40487 
        1.85306         57.2732         8.33854 
         1.8592         56.9752         8.27305 
        1.86533         56.7135         8.20829 
        1.87147         56.5038         8.14416 
        1.87761         56.3055         8.08069 
        1.88375          56.077         8.01797 
        1.88988         55.9861         7.95599 
        1.89601         55.4912         7.89463 
        1.90215         55.2882         7.83388 
        1.90829         55.1299          7.7738 
        1.91442         54.8428         7.71434 
        1.92056         54.5845         7.65556 
         1.9267         54.2137         7.59734 
        1.93284         53.9947         7.53969 
        1.93897         53.8325         7.48275 
        1.94509         53.5055         7.42652 
        1.95123         53.3916         7.37074 
        1.95737         53.1198         7.31548 
        1.96349         52.8498         7.26094 
        1.96964         52.6597          7.2068 
        1.97578         52.3884         7.15319 
        1.98192         52.1861         7.10024 
        1.98805         51.9999         7.04781 
        1.99419         51.6282         6.99592 
        2.00033         51.4198         6.94453 
        2.00647         51.2742         6.89367 
         2.0126         51.0039         6.84341 
        2.01874         50.7816         6.79357 
        2.02488         50.6433         6.74419 
        2.03101         50.3173          6.6954 
        2.03714         50.1012         6.64713 
        2.04328          49.828         6.59929 
        2.04941         49.6016         6.55196 
        2.05554         49.3456         6.50513 
        2.06167         49.2836          6.4587 
        2.06781          49.006         6.41271 
        2.07396         48.7367         6.36711 
        2.08009         48.5925         6.32203 
        2.08622         48.2938         6.27744 
        2.09237         48.1106          6.2332 
        2.09851         47.8348         6.18937 
        2.10464         47.6921         6.14605 
        2.11077         47.5221         6.10319 
        2.11691         47.2795         6.06064 
        2.12305         46.9757         6.01851 
        2.12918         46.8727         5.97687 
        2.13531         46.6333         5.93563 
        2.14145         46.4884         5.89468 
         2.1476         46.2431         5.85408 
        2.15372         45.9801         5.81406 
        2.15985         45.8787         5.77438 
        2.16599         45.7449         5.73495 
        2.17213         45.6527         5.69594 
        2.17827         45.2293         5.65731 
         2.1844         45.0145         5.61906 
        2.19054         44.8195         5.58116 
        2.19666         44.6657         5.54366 
         2.2028         44.5116         5.50648 
        2.20893         44.3451         5.46962 
        2.21508         44.1276         5.43306 
        2.22122         43.8898         5.39682 
        2.22736         43.6781         5.36099 
        2.23349         43.5544         5.32549 
        2.23962         43.2953          5.2903 
        2.24577         43.0931         5.25539 
         2.2519         42.8995         5.22085 
        2.25802         42.8569         5.18668 
        2.26417         42.5807         5.15272 
        2.27031         42.4521         5.11903 
        2.27644         42.1455         5.08574 
        2.28257          42.035         5.05276 
        2.28872          41.803            5.02 
        2.29486         41.6816         4.98754 
        2.30099         41.5361         4.95544 
        2.30712         41.3194         4.92361 
        2.31326         41.1884           4.892 
         2.3194         40.9922         4.86069 
        2.32553          40.787         4.82971 
        2.33166         40.5958         4.79901 
         2.3378          40.463         4.76854 
        2.34394         40.1818         4.73833 
        2.35007         40.0564         4.70842 
        2.35619         40.0158          4.6788 
        2.36233         39.8153         4.64938 
        2.36848         39.5346         4.62014 
        2.37462         39.4844         4.59122 
        2.38075         39.2176         4.56257 
        2.38689         39.1265         4.53415 
        2.39303         38.9506         4.50597 
        2.39916         38.7437         4.47807 
        2.40529         38.4852          4.4504 
        2.41143         38.4279         4.42295 
        2.41757         38.2684         4.39571 
         2.4237         38.0949         4.36876 
        2.42983         37.9648         4.34204 
        2.43598         37.7466         4.31547 
        2.44211         37.6381         4.28917 
        2.44823         37.4463         4.26314 
        2.45437         37.3489         4.23726 
        2.46052         37.1401         4.21158 
        2.46665         37.0083         4.18616 
        2.47279         36.8651         4.16095 
        2.47892         36.6159         4.13594 
        2.48507          36.505         4.11111 
         2.4912          36.341         4.08653 
