# k  (h/Mpc)    P(k)  (Mpc/h)^3    P_linear(k)  (Mpc/h)^3
     0.00783031         2249.75         2264.86 
       0.013688         2983.11         3025.03 
       0.019231         3268.57         3291.61 
      0.0249154         3274.49         3277.14 
      0.0312784         3060.81         3075.76 
      0.0375637         2787.87         2810.48 
      0.0433917         2569.21         2574.27 
      0.0492413          2358.1         2374.94 
      0.0555754         2199.21         2204.56 
      0.0619321         2029.59         2066.67 
       0.067871         1930.68         1949.83 
      0.0738098         1816.27         1830.89 
      0.0800417         1688.01         1697.52 
      0.0862327         1544.69          1558.9 
      0.0921407         1415.18         1428.78 
      0.0982031         1301.19         1306.56 
       0.104506          1183.7         1198.64 
       0.110769         1100.73         1113.03 
       0.116806         1048.68          1048.5 
       0.122832         987.092          996.38 
       0.129052         944.054          948.87 
       0.135211         904.339         902.426 
       0.141259         850.236         854.272 
       0.147318          792.19         803.203 
       0.153489         746.242         750.273 
       0.159709         703.184         699.185 
       0.165845         647.782          653.89 
       0.171974         623.934          615.37 
       0.178125         594.353         583.573 
       0.184229         560.248         557.607 
        0.19034         544.774         535.217 
       0.196428         524.841         514.415 
       0.202534         495.718         493.442 
       0.208729         481.503         471.241 
       0.214876          463.09         448.392 
       0.220989         432.154         425.618 
       0.227147         420.704         403.659 
        0.23329          403.42         383.635 
       0.239377         389.696         366.149 
       0.245482         371.199         350.966 
       0.251667         356.197         337.577 
       0.257832         350.566         325.574 
       0.263955         333.479         314.295 
       0.270079         322.778         303.131 
        0.27624         308.892          291.77 
       0.282372         299.826         280.345 
        0.28843         295.902         269.171 
       0.294538         282.614         258.324 
       0.300721         270.755         248.065 
        0.30691           265.8         238.682 
       0.313033         255.612         230.286 
       0.319153         251.189          222.66 
       0.325316         241.798         215.546 
        0.33145         235.192         208.816 
       0.337538         228.427         202.307 
       0.343633         221.874         195.867 
       0.349808         215.407         189.414 
       0.355968         209.658         183.097 
       0.362074         205.603         177.051 
       0.368217         200.723         171.264 
       0.374374         196.748          165.82 
       0.380519         188.461         160.749 
       0.386598         184.303         156.056 
       0.392688         179.772         151.623 
        0.39888         176.411         147.315 
       0.405048         172.749         143.167 
       0.411186         169.463         139.144 
       0.417313         165.271         135.214 
       0.423458         161.157         131.374 
       0.429607         158.597         127.654 
       0.435692         155.748         124.114 
       0.441815         151.004         120.712 
       0.447964         146.983         117.463 
       0.454126         144.325         114.363 
       0.460267         143.386         111.414 
       0.466387         140.011         108.594 
        0.47254         138.433         105.854 
       0.478662          134.04         103.206 
       0.484765         131.959         100.642 
       0.490885         128.928         98.1425 
       0.497035         128.045         95.7044 
       0.503198         124.818         93.3427 
       0.509342         121.923         91.0744 
       0.515458          120.76         88.9023 
       0.521598         117.922         86.8033 
       0.527764         116.683         84.7731 
       0.533884         115.357         82.8292 
           0.54         112.683         80.9501 
       0.546137         109.831         79.1205 
       0.552299         108.463          77.335 
       0.558452         106.541         75.6036 
       0.564573         106.119         73.9312 
       0.570708         103.015         72.3052 
       0.576825         101.998         70.7336 
       0.582926         100.796         69.2149 
       0.589034          99.199         67.7423 
       0.595184         97.9476         66.3069 
       0.601379          95.437         64.9063 
       0.607522          94.381         63.5587 
       0.613639         93.3879         62.2548 
       0.619772         91.9148         60.9833 
       0.625918          90.558         59.7439 
       0.632068          89.625         58.5379 
       0.638161         87.9396         57.3761 
         0.6443         87.2287          56.238 
       0.650464         85.4761         55.1272 
       0.656582         85.0656         54.0551 
       0.662703         84.1675         53.0121 
       0.668861         82.3145         51.9914 
       0.675024         81.9741         50.9978 
       0.681124         80.8768         50.0407 
       0.687237         79.2976         49.1068 
       0.693381          78.604         48.1925 
       0.699536         78.0443            47.3 
       0.705665         76.6889         46.4337 
       0.711789         75.6409           45.59 
       0.717957         74.6161         44.7616 
        0.72409         74.0125         43.9587 
       0.730186         73.5673         43.1807 
       0.736317         72.3087         42.4178 
       0.742472         71.5773         41.6709 
       0.748622         70.5292         40.9431 
        0.75476         69.3902         40.2346 
       0.760888         69.2216         39.5441 
       0.767043         68.1077         38.8673 
       0.773185         67.6417         38.2078 
       0.779291         66.8519         37.5675 
       0.785407         65.8145          36.941 
       0.791564         65.8133          36.325 
       0.797719         64.8839         35.7235 
       0.803834           64.27         35.1397 
       0.809972         63.5005         34.5669 
       0.816124         62.9052         34.0059 
       0.822261         62.2132          33.459 
       0.828378         61.8404          32.926 
       0.834502          61.179         32.4043 
       0.840667         60.6886         31.8906 
       0.846816         59.6463         31.3897 
       0.852925         59.5865         30.9029 
       0.859047         59.0102         30.4255 
       0.865192         58.1889         29.9566 
       0.871341         57.6455         29.4975 
       0.877463         57.2484         29.0502 
       0.883569         56.9994         28.6134 
       0.889708         56.3659         28.1834 
       0.895864         55.7535         27.7613 
       0.902008         55.1368         27.3488 
       0.908149         54.8217          26.945 
       0.914301          54.479         26.5488 
       0.920448         53.9178          26.161 
       0.926574         53.1269         25.7825 
       0.932687         52.8622         25.4123 
       0.938823         52.3382         25.0481 
       0.944975         51.9252         24.6903 
       0.951105         51.4413         24.3409 
       0.957225         51.2883         23.9989 
       0.963368          50.648         23.6624 
       0.969511         50.2904         23.3323 
       0.975621         49.8402         23.0105 
       0.981748         49.3498         22.6939 
       0.987916         49.0792         22.3814 
        0.99406         48.6231         22.0759 
        1.00019         48.2674         21.7769 
        1.00632         47.9174         21.4837 
        1.01246         47.6082         21.1955 
        1.01859         47.1191         20.9132 
        1.02471         46.7056         20.6363 
        1.03085         46.6089         20.3636 
        1.03698         46.1673         20.0964 
        1.04314         45.8273          19.833 
        1.04929         45.3939         19.5749 
        1.05541         45.2228         19.3225 
        1.06154         44.9932          19.074 
        1.06769         44.4202         18.8295 
        1.07382         44.1441         18.5901 
        1.07993         43.7582         18.3555 
        1.08607         43.5234          18.124 
        1.09222         43.2219         17.8963 
        1.09836         42.9027         17.6728 
        1.10449         42.6566         17.4534 
        1.11063         42.3516         17.2375 
        1.11677         42.2883         17.0254 
         1.1229         41.8618         16.8173 
        1.12903         41.6525         16.6125 
        1.13518         41.3693          16.411 
        1.14131         41.0565         16.2129 
        1.14745         40.5885         16.0183 
        1.15359         40.3444         15.8268 
        1.15973         40.0355         15.6385 
        1.16584         39.8329         15.4541 
        1.17197         39.4638         15.2724 
        1.17811         39.2624         15.0931 
        1.18424         38.9508         14.9172 
        1.19038         38.7828         14.7436 
        1.19652         38.5445         14.5729 
        1.20267          38.312          14.405 
        1.20881         38.0744         14.2397 
        1.21495         37.7843         14.0773 
        1.22108          37.751         13.9175 
         1.2272         37.4967         13.7605 
        1.23334         37.2286         13.6057 
        1.23949         36.9786         13.4529 
        1.24562          36.633         13.3028 
        1.25174         36.4943         13.1553 
        1.25789         36.3468         13.0097 
        1.26402         36.1391         12.8664 
        1.27014         35.8978         12.7258 
        1.27628         35.5673         12.5868 
        1.28244         35.5637         12.4496 
        1.28858         35.1847         12.3147 
        1.29471         34.9939         12.1821 
        1.30084          34.755         12.0515 
        1.30697         34.6625         11.9227 
        1.31312         34.3554         11.7957 
        1.31925          34.189         11.6708 
        1.32537         33.9942          11.548 
        1.33151         33.7963         11.4264 
        1.33765         33.7006         11.3067 
        1.34378         33.4677          11.189 
        1.34992         33.3192         11.0729 
        1.35606         33.0775         10.9582 
         1.3622         32.8072         10.8453 
        1.36833         32.6961         10.7343 
        1.37445         32.5949         10.6249 
        1.38059         32.3672         10.5168 
        1.38675         32.0887         10.4099 
        1.39288         31.9756         10.3049 
        1.39901         31.8287         10.2014 
        1.40515         31.6618         10.0991 
         1.4113         31.5375         9.99825 
        1.41742         31.3689         9.89918 
        1.42355         31.1325         9.80129 
         1.4297          30.966         9.70443 
        1.43585         30.8209         9.60893 
        1.44198         30.6985         9.51509 
        1.44809         30.5321         9.42269 
        1.45423         30.3577         9.33118 
        1.46036         30.2186         9.24106 
        1.46649         30.0195         9.15211 
        1.47263         29.9182         9.06426 
        1.47877         29.8183         8.97761 
        1.48491         29.6332         8.89197 
        1.49104         29.4442         8.80763 
        1.49718         29.3127         8.72432 
        1.50333         29.2066         8.64197 
        1.50947         29.0529         8.56086 
         1.5156         28.8792         8.48091 
        1.52172         28.7104           8.402 
        1.52787         28.5424         8.32393 
          1.534         28.5082         8.24696 
        1.54013         28.3639         8.17105 
        1.54627          28.178         8.09596 
        1.55241         28.0414         8.02181 
        1.55855         27.9166          7.9487 
        1.56467         27.8416         7.87671 
         1.5708         27.7088         7.80541 
        1.57695         27.5113          7.7349 
        1.58308         27.3354         7.66542 
        1.58922         27.2384         7.59675 
        1.59535         27.0721         7.52896 
         1.6015         26.9468          7.4619 
        1.60764         26.8683         7.39569 
        1.61376         26.7927         7.33048 
        1.61989          26.596           7.266 
        1.62604         26.5081         7.20216 
        1.63218         26.3604         7.13914 
        1.63831         26.2419         7.07701 
        1.64444         26.1314         7.01561 
        1.65059          25.994          6.9548 
        1.65673         25.9104         6.89477 
        1.66285          25.733         6.83563 
        1.66898         25.6735         6.77716 
        1.67512         25.5889         6.71927 
        1.68127         25.3942         6.66201 
         1.6874         25.3213         6.60555 
        1.69353         25.1831         6.54978 
        1.69967         25.0568         6.49452 
        1.70581         25.0077         6.43993 
        1.71193          24.798         6.38617 
        1.71806         24.7623         6.33292 
        1.72421          24.654         6.28017 
        1.73035         24.4985         6.22809 
        1.73649         24.4115         6.17661 
        1.74262         24.2655         6.12576 
        1.74876          24.199         6.07545 
        1.75489         24.0996         6.02581 
        1.76101         24.0036         5.97674 
        1.76715         23.8807         5.92816 
        1.77329         23.7832         5.88006 
        1.77943         23.6458         5.83248 
        1.78557         23.6022         5.78549 
        1.79171         23.4541         5.73902 
        1.79785         23.4007         5.69305 
        1.80399         23.2665          5.6476 
        1.81012         23.1873         5.60271 
        1.81625          23.022         5.55833 
        1.82239         22.9561         5.51437 
        1.82853         22.8957          5.4709 
        1.83466         22.7456         5.42795 
        1.84078          22.708         5.38551 
        1.84692          22.635         5.34345 
        1.85306         22.5208         5.30179 
         1.8592         22.4134         5.26065 
        1.86533         22.2706         5.21997 
        1.87147         22.2043         5.17967 
        1.87761         22.0863         5.13978 
        1.88375         22.0388         5.10037 
        1.88988         21.8892         5.06141 
        1.89601         21.8158         5.02284 
        1.90215         21.7044         4.98464 
        1.90829         21.6258         4.94686 
        1.91442         21.5076         4.90947 
        1.92056         21.5116          4.8725 
         1.9267         21.4082         4.83588 
        1.93284         21.3505         4.79961 
        1.93897         21.2074         4.76379 
        1.94509         21.1355         4.72841 
        1.95123         21.0554          4.6933 
        1.95737         21.0066         4.65853 
        1.96349         20.8468         4.62419 
        1.96964         20.7912         4.59011 
        1.97578         20.7389         4.55636 
        1.98192         20.6185         4.52301 
        1.98805         20.5352            4.49 
        1.99419         20.4636         4.45731 
        2.00033         20.4057         4.42494 
        2.00647         20.3088          4.3929 
         2.0126         20.2371         4.36123 
        2.01874         20.1013         4.32983 
        2.02488         20.0755         4.29871 
        2.03101         19.9611         4.26796 
        2.03714         19.9023         4.23753 
        2.04328         19.7786         4.20737 
        2.04941         19.6935         4.17753 
        2.05554         19.6872         4.14801 
        2.06167         19.5995         4.11873 
        2.06781         19.4992         4.08973 
        2.07396         19.4827         4.06096 
        2.08009         19.3331         4.03253 
        2.08622         19.2805          4.0044 
        2.09237         19.2357         3.97649 
        2.09851         19.1152         3.94884 
        2.10464         19.0844          3.9215 
        2.11077         18.9885         3.89445 
        2.11691         18.9415          3.8676 
        2.12305         18.8542           3.841 
        2.12918         18.7171         3.81471 
        2.13531         18.7262         3.78867 
        2.14145           18.62         3.76282 
         2.1476         18.5167         3.73718 
        2.15372         18.4801          3.7119 
        2.15985         18.4179         3.68684 
        2.16599         18.3462         3.66194 
        2.17213         18.2944         3.63729 
        2.17827         18.2011         3.61288 
         2.1844         18.1429         3.58871 
        2.19054         18.0948         3.56476 
        2.19666         18.0095         3.54107 
         2.2028         17.9126         3.51756 
        2.20893         17.8786         3.49427 
        2.21508         17.7892         3.47115 
        2.22122         17.7378         3.44824 
        2.22736         17.6939         3.42559 
        2.23349          17.612         3.40314 
        2.23962         17.5624         3.38088 
        2.24577          17.487         3.35881 
         2.2519          17.416         3.33696 
        2.25802         17.3035         3.31535 
        2.26417         17.3223         3.29386 
        2.27031         17.2257         3.27255 
        2.27644          17.162         3.25149 
        2.28257          17.063         3.23061 
        2.28872         17.0782         3.20988 
        2.29486         16.9988         3.18934 
        2.30099         16.9223         3.16902 
        2.30712         16.8175         3.14887 
        2.31326          16.745         3.12886 
         2.3194         16.7295         3.10903 
        2.32553         16.6229         3.08941 
        2.33166         16.5896         3.06997 
         2.3378         16.5246         3.05067 
        2.34394         16.4883         3.03154 
        2.35007         16.4101         3.01259 
        2.35619         16.3511         2.99383 
        2.36233         16.2518         2.97519 
        2.36848         16.2351         2.95666 
        2.37462         16.1743         2.93834 
        2.38075         16.1326         2.92019 
        2.38689         16.0759         2.90217 
        2.39303         15.9663         2.88432 
        2.39916         15.9504         2.86663 
        2.40529         15.9054         2.84909 
        2.41143         15.8302         2.83169 
        2.41757         15.7647         2.81442 
         2.4237          15.722         2.79733 
        2.42983         15.6427         2.78039 
        2.43598         15.6149         2.76354 
        2.44211         15.5646         2.74686 
        2.44823         15.4965         2.73035 
        2.45437         15.4526         2.71394 
        2.46052         15.3989         2.69765 
        2.46665         15.3432         2.68152 
        2.47279         15.2848         2.66552 
        2.47892         15.2212         2.64965 
        2.48507         15.1797          2.6339 
         2.4912         15.1104          2.6183 
