#  k  (h/Mpc)          P(k)  (Mpc/h)^3     P_linear(k) (Mpc/h)^3
     0.00783031         3168.47         3187.26 
       0.013688         3984.38         4042.61 
       0.019231         4169.53         4199.22 
      0.0249154         3995.64         3991.89 
      0.0312784         3558.96         3571.33 
      0.0375637         3115.85         3137.75 
      0.0433917         2798.81          2799.7 
      0.0492413         2527.78         2541.19 
      0.0555754         2335.74         2335.72 
      0.0619321         2136.23         2172.55 
       0.067871          2013.3         2028.67 
      0.0738098         1866.81         1875.71 
      0.0800417         1700.68         1702.98 
      0.0862327         1522.59          1529.3 
      0.0921407         1371.17         1375.78 
      0.0982031         1247.09         1242.19 
       0.104506         1127.81          1134.1 
       0.110769         1051.43         1055.03 
       0.116806         1005.52         997.661 
       0.122832         947.354         949.242 
       0.129052          901.98         899.804 
       0.135211         856.093         846.314 
       0.141259         793.475         788.973 
       0.147318           728.8         729.847 
       0.153489         678.332         672.585 
       0.159709         635.953         622.081 
       0.165845         585.027         581.419 
       0.171974         566.344         549.599 
       0.178125         541.623         524.357 
       0.184229         511.773         502.941 
        0.19034         497.194         482.282 
       0.196428         476.667         460.599 
       0.202534         445.664           437.2 
       0.208729          429.73         412.453 
       0.214876         409.716         388.293 
       0.220989         380.605         366.091 
       0.227147         369.694         346.536 
        0.23329          354.78         330.091 
       0.239377         344.099         316.416 
       0.245482         328.275         304.497 
       0.251667         314.891         293.296 
       0.257832         309.718         282.226 
       0.263955         293.029         270.932 
       0.270079         281.816          259.33 
        0.27624         268.733         247.678 
       0.282372         259.827         236.534 
        0.28843         255.983         226.346 
       0.294538         244.109         217.114 
       0.300721         234.019          208.82 
        0.30691         229.935           201.4 
       0.313033         220.787         194.637 
       0.319153         216.886         188.184 
       0.325316         208.769         181.781 
        0.33145         202.441         175.431 
       0.337538         195.931         169.168 
       0.343633         189.873         163.048 
       0.349808           183.9         157.122 
       0.355968         178.849         151.582 
       0.362074         175.177         146.504 
       0.368217         171.018         141.782 
       0.374374         167.233         137.378 
       0.380519         160.205         133.218 
       0.386598         156.611         129.254 
       0.392688          152.33         125.385 
        0.39888         149.419         121.527 
       0.405048         146.061         117.778 
       0.411186         143.143         114.166 
       0.417313         139.437         110.709 
       0.423458          135.83         107.418 
       0.429607          133.35         104.304 
       0.435692         131.049         101.386 
       0.441815         126.953         98.5952 
       0.447964         123.305         95.9113 
       0.454126          121.06         93.3129 
       0.460267         120.086         90.8011 
       0.466387         117.169         88.3698 
        0.47254         115.739          85.996 
       0.478662         111.839         83.7112 
       0.484765         110.065         81.5192 
       0.490885         107.431         79.4105 
       0.497035         106.545         77.3785 
       0.503198         103.968         75.4259 
       0.509342         101.387         73.5561 
       0.515458         100.236         71.7619 
       0.521598         97.8162         70.0186 
       0.527764         96.7099         68.3201 
       0.533884         95.6291         66.6851 
           0.54         93.2472         65.1017 
       0.546137         90.8549         63.5628 
       0.552299         89.5502         62.0679 
       0.558452         87.8606         60.6258 
       0.564573         87.4603         59.2408 
       0.570708          84.878         57.9003 
       0.576825         84.0227         56.6081 
       0.582926         82.9871         55.3595 
       0.589034         81.5298         54.1464 
       0.595184         80.4715         52.9606 
       0.601379         78.4086         51.8014 
       0.607522          77.343         50.6859 
       0.613639         76.5511         49.6078 
       0.619772         75.2063         48.5588 
       0.625918         74.1364         47.5386 
       0.632068         73.2815          46.548 
       0.638161         71.8968         45.5955 
         0.6443         71.2654         44.6638 
       0.650464          69.732         43.7555 
       0.656582         69.4042         42.8794 
       0.662703         68.5652         42.0272 
       0.668861         66.9668         41.1932 
       0.675024         66.6679         40.3809 
       0.681124         65.7997         39.5986 
       0.687237         64.4789         38.8356 
       0.693381         63.8614         38.0894 
       0.699536          63.313         37.3619 
       0.705665          62.235          36.657 
       0.711789         61.3327         35.9714 
       0.717957         60.4519          35.299 
        0.72409         59.9048         34.6478 
       0.730186         59.5575          34.017 
       0.736317         58.4751         33.3986 
       0.742472          57.842         32.7934 
       0.748622         56.9754         32.2038 
        0.75476         56.0418           31.63 
       0.760888         55.9507         31.0712 
       0.767043         54.9377         30.5238 
       0.773185         54.4417         29.9909 
       0.779291         53.7778         29.4739 
       0.785407         52.9779         28.9685 
       0.791564         52.9724         28.4719 
       0.797719         52.0922         27.9873 
       0.803834         51.6516         27.5173 
       0.809972         50.9853         27.0564 
       0.816124         50.4769         26.6052 
       0.822261         49.8857         26.1656 
       0.828378         49.5936         25.7373 
       0.834502         49.0082         25.3184 
       0.840667         48.6083         24.9061 
       0.846816         47.7821         24.5043 
       0.852925         47.6134         24.1139 
       0.859047         47.2817         23.7313 
       0.865192         46.5359         23.3558 
       0.871341         46.0407         22.9883 
       0.877463         45.6831         22.6304 
       0.883569         45.4896         22.2812 
       0.889708         44.9478         21.9375 
       0.895864         44.4563         21.6003 
       0.902008          43.974          21.271 
       0.908149         43.6428         20.9488 
       0.914301         43.3508         20.6328 
       0.920448         42.9175         20.3237 
       0.926574         42.2917          20.022 
       0.932687         42.0231         19.7272 
       0.938823         41.5631         19.4373 
       0.944975         41.2166         19.1526 
       0.951105         40.8786         18.8747 
       0.957225         40.6745         18.6028 
       0.963368         40.1732         18.3354 
       0.969511         39.8586         18.0733 
       0.975621         39.5363         17.8177 
       0.981748         39.1124         17.5665 
       0.987916          38.879         17.3186 
        0.99406         38.4544         17.0764 
        1.00019         38.2128         16.8394 
        1.00632         37.9111         16.6071 
        1.01246         37.6215         16.3789 
        1.01859         37.2498         16.1554 
        1.02471          36.915         15.9363 
        1.03085         36.7988         15.7206 
        1.03698         36.4907         15.5094 
        1.04314         36.1778         15.3012 
        1.04929         35.7901         15.0973 
        1.05541          35.662          14.898 
        1.06154          35.459         14.7018 
        1.06769         34.9619         14.5089 
        1.07382         34.7819           14.32 
        1.07993         34.4705          14.135 
        1.08607         34.2633         13.9526 
        1.09222          34.025         13.7732 
        1.09836         33.7184         13.5971 
        1.10449         33.5605         13.4244 
        1.11063         33.2818         13.2545 
        1.11677         33.2275         13.0877 
         1.1229         32.8762          12.924 
        1.12903         32.6503          12.763 
        1.13518         32.4897         12.6046 
        1.14131         32.2188          12.449 
        1.14745         31.8542         12.2961 
        1.15359          31.613         12.1459 
        1.15973         31.4291          11.998 
        1.16584         31.2248         11.8533 
        1.17197         30.8932         11.7108 
        1.17811         30.7672         11.5703 
        1.18424         30.4709         11.4324 
        1.19038         30.3699         11.2965 
        1.19652         30.1287         11.1628 
        1.20267           29.98         11.0312 
        1.20881         29.7506         10.9019 
        1.21495         29.5686         10.7748 
        1.22108          29.505         10.6498 
         1.2272         29.2835          10.527 
        1.23334          29.079          10.406 
        1.23949         28.8595         10.2865 
        1.24562         28.5816         10.1693 
        1.25174         28.4842         10.0541 
        1.25789         28.3666         9.94032 
        1.26402          28.195         9.82853 
        1.27014         28.0139         9.71874 
        1.27628         27.7417          9.6103 
        1.28244         27.7331         9.50332 
        1.28858         27.4407         9.39813 
        1.29471         27.2554         9.29476 
        1.30084         27.0749         9.19305 
        1.30697         26.9785         9.09272 
        1.31312         26.7477         8.99375 
        1.31925         26.5984         8.89657 
        1.32537          26.427         8.80093 
        1.33151         26.2687         8.70636 
        1.33765         26.2109         8.61324 
        1.34378         26.0374         8.52168 
        1.34992         25.8908         8.43139 
        1.35606          25.691         8.34222 
         1.3622         25.4978         8.25451 
        1.36833         25.4276         8.16827 
        1.37445         25.2904         8.08332 
        1.38059         25.1338         7.99932 
        1.38675         24.9387         7.91632 
        1.39288         24.8094         7.83483 
        1.39901          24.681         7.75454 
        1.40515         24.5674          7.6752 
         1.4113         24.4567           7.597 
        1.41742         24.3376         7.52019 
        1.42355         24.1356         7.44431 
         1.4297         24.0003         7.36926 
        1.43585         23.8809         7.29527 
        1.44198         23.8007         7.22259 
        1.44809         23.6553         7.15103 
        1.45423         23.5171         7.08019 
        1.46036         23.3995         7.01044 
        1.46649         23.2603         6.94161 
        1.47263         23.1559         6.87366 
        1.47877         23.0653         6.80664 
        1.48491          22.925         6.74042 
        1.49104         22.7788         6.67523 
        1.49718          22.689         6.61084 
        1.50333         22.5994         6.54721 
        1.50947          22.481         6.48455 
         1.5156         22.3412         6.42281 
        1.52172         22.2025         6.36187 
        1.52787          22.105          6.3016 
          1.534         22.0359         6.24219 
        1.54013         21.9362         6.18361 
        1.54627         21.7652         6.12567 
        1.55241         21.6484         6.06848 
        1.55855         21.5666         6.01209 
        1.56467         21.5171         5.95658 
         1.5708         21.3994         5.90162 
        1.57695         21.2714         5.84727 
        1.58308         21.1049         5.79374 
        1.58922         21.0308         5.74084 
        1.59535         20.9276         5.68862 
         1.6015         20.7957         5.63699 
        1.60764          20.734         5.58602 
        1.61376         20.6698         5.53583 
        1.61989         20.5124         5.48621 
        1.62604         20.4521         5.43709 
        1.63218         20.3501         5.38861 
        1.63831         20.2209         5.34083 
        1.64444         20.1393         5.29362 
        1.65059         20.0384         5.24687 
        1.65673         19.9871         5.20074 
        1.66285         19.8347         5.15529 
        1.66898         19.8019         5.11037 
        1.67512         19.7344          5.0659 
        1.68127         19.5901         5.02193 
         1.6874         19.5373         4.97857 
        1.69353         19.3762         4.93576 
        1.69967         19.3101         4.89334 
        1.70581         19.2579         4.85145 
        1.71193         19.1106         4.81021 
        1.71806         19.0777         4.76936 
        1.72421          18.986         4.72891 
        1.73035         18.8734         4.68897 
        1.73649         18.8155          4.6495 
        1.74262         18.6867         4.61052 
        1.74876         18.6337         4.57197 
        1.75489         18.5732         4.53393 
        1.76101         18.4599         4.49634 
        1.76715         18.3939         4.45912 
        1.77329         18.3053         4.42229 
        1.77943          18.203         4.38585 
        1.78557         18.1648         4.34988 
        1.79171         18.0446          4.3143 
        1.79785         18.0026         4.27912 
        1.80399          17.893         4.24434 
        1.81012          17.854            4.21 
        1.81625         17.7302         4.17605 
        1.82239         17.6617         4.14242 
        1.82853         17.5958         4.10919 
        1.83466          17.489         4.07635 
        1.84078         17.4637         4.04391 
        1.84692         17.4242         4.01176 
        1.85306         17.3257         3.97993 
         1.8592         17.2517          3.9485 
        1.86533         17.1168         3.91742 
        1.87147         17.0702         3.88665 
        1.87761         16.9997         3.85619 
        1.88375         16.9633         3.82609 
        1.88988         16.8261         3.79635 
        1.89601         16.7983         3.76691 
        1.90215         16.6969         3.73776 
        1.90829         16.6234         3.70894 
        1.91442         16.5269         3.68041 
        1.92056         16.5456         3.65221 
         1.9267         16.4572         3.62428 
        1.93284         16.4281         3.59663 
        1.93897         16.3157         3.56932 
        1.94509          16.255         3.54235 
        1.95123         16.1763         3.51559 
        1.95737         16.1421          3.4891 
        1.96349         16.0289         3.46294 
        1.96964         15.9957         3.43697 
        1.97578         15.9472         3.41127 
        1.98192         15.8604         3.38587 
        1.98805         15.7794         3.36074 
        1.99419         15.7324         3.33586 
        2.00033         15.6859         3.31122 
        2.00647         15.6033         3.28683 
         2.0126         15.5567         3.26273 
        2.01874         15.4595         3.23884 
        2.02488         15.4027         3.21517 
        2.03101         15.3573         3.19177 
        2.03714         15.2936         3.16864 
        2.04328         15.2128          3.1457 
        2.04941         15.1427         3.12301 
        2.05554         15.1376         3.10057 
        2.06167         15.0701         3.07831 
        2.06781          14.991         3.05627 
        2.07396         14.9898         3.03441 
        2.08009         14.8574         3.01281 
        2.08622         14.8377         2.99144 
        2.09237         14.7913         2.97024 
        2.09851         14.6903         2.94924 
        2.10464         14.6706         2.92848 
        2.11077         14.5863         2.90794 
        2.11691         14.5651         2.88756 
        2.12305         14.4856         2.86737 
        2.12918         14.3868         2.84742 
        2.13531          14.379         2.82766 
        2.14145         14.3092         2.80805 
         2.1476         14.2407          2.7886 
        2.15372         14.2189         2.76943 
        2.15985         14.1626         2.75042 
        2.16599         14.1055         2.73153 
        2.17213         14.0839         2.71285 
        2.17827         13.9892         2.69434 
         2.1844         13.9441         2.67602 
        2.19054         13.9211         2.65787 
        2.19666         13.8587         2.63991 
         2.2028         13.8067          2.6221 
        2.20893         13.7316         2.60445 
        2.21508         13.7023         2.58694 
        2.22122         13.6227         2.56959 
        2.22736         13.6022         2.55243 
        2.23349         13.5527         2.53543 
        2.23962         13.5142         2.51858 
        2.24577         13.4591         2.50187 
         2.2519          13.406         2.48533 
        2.25802         13.3045         2.46897 
        2.26417         13.3328         2.45272 
        2.27031          13.265         2.43659 
        2.27644         13.2294         2.42065 
        2.28257          13.133         2.40486 
        2.28872         13.1316         2.38919 
        2.29486         13.0746         2.37365 
        2.30099         13.0333         2.35828 
        2.30712          12.939         2.34305 
        2.31326         12.8924         2.32792 
         2.3194         12.8737         2.31294 
        2.32553         12.8092         2.29811 
        2.33166         12.7685         2.28342 
         2.3378          12.731         2.26884 
        2.34394         12.6909         2.25438 
        2.35007         12.6421         2.24007 
        2.35619         12.5881         2.22589 
        2.36233         12.5183         2.21181 
        2.36848         12.4966         2.19783 
        2.37462         12.4534         2.18399 
        2.38075         12.4203         2.17028 
        2.38689         12.3828         2.15668 
        2.39303          12.304         2.14321 
        2.39916         12.2965         2.12986 
        2.40529         12.2568         2.11662 
        2.41143         12.1932         2.10349 
        2.41757         12.1391         2.09046 
         2.4237         12.1194         2.07757 
        2.42983         12.0647         2.06479 
        2.43598         12.0316         2.05208 
        2.44211         11.9833          2.0395 
        2.44823         11.9474         2.02706 
        2.45437         11.9025         2.01468 
        2.46052          11.888          2.0024 
        2.46665         11.8352         1.99024 
        2.47279         11.7857         1.97819 
        2.47892         11.7299         1.96623 
        2.48507         11.7079         1.95436 
         2.4912         11.6693         1.94261 
