# k  (h/Mpc)    P(k)  (Mpc/h)^3    P_linear(k)  (Mpc/h)^3
     0.00783031          3277.1          3319.2 
       0.013688         3982.03         3980.75 
       0.019231         3952.38         3951.18 
      0.0249154         3554.06         3586.33 
      0.0312784         3030.57         3038.02 
      0.0375637         2532.56         2524.79 
      0.0433917         2139.32            2147 
      0.0492413         1877.95         1875.07 
      0.0555754         1665.77         1680.03 
      0.0619321         1560.98         1549.45 
       0.067871         1441.18         1450.84 
      0.0738098         1340.02         1349.63 
      0.0800417         1213.82         1228.22 
      0.0862327         1089.36         1094.48 
      0.0921407         967.612          965.92 
      0.0982031         845.204         846.417 
       0.104506         757.436         745.719 
       0.110769         683.891         672.851 
       0.116806         631.472         625.413 
       0.122832         602.615         593.743 
       0.129052         570.772         568.973 
       0.135211         546.236          544.52 
       0.141259         521.278         515.634 
       0.147318         488.906         480.595 
       0.153489          446.77          440.69 
       0.159709         409.759         400.254 
       0.165845         379.068         364.219 
       0.171974         346.838          334.74 
       0.178125         326.263         312.493 
       0.184229         311.081         296.794 
        0.19034         293.843          285.43 
       0.196428         287.939         276.016 
       0.202534         280.389         266.307 
       0.208729         266.595         254.767 
       0.214876         251.494         241.307 
       0.220989         239.999         226.567 
       0.227147         223.466         211.551 
        0.23329          210.52         197.647 
       0.239377         201.089         185.808 
       0.245482         188.006         176.199 
       0.251667         183.659         168.591 
       0.257832         177.439         162.562 
       0.263955         171.508         157.353 
       0.270079         165.681         152.229 
        0.27624          162.06         146.688 
       0.282372         155.708          140.62 
        0.28843         148.695         134.228 
       0.294538         141.938         127.692 
       0.300721         137.938         121.374 
        0.30691         130.854         115.649 
       0.313033         126.557         110.741 
       0.319153         120.604         106.567 
       0.325316         118.436          102.96 
        0.33145         114.207         99.7414 
       0.337538         111.863         96.6963 
       0.343633          108.06         93.6211 
       0.349808         104.855         90.4084 
       0.355968         102.002          87.101 
       0.362074          98.538         83.8119 
       0.368217         95.4353         80.5926 
       0.374374         92.3724         77.5598 
       0.380519         89.9493          74.794 
       0.386598         87.4278          72.321 
       0.392688         85.6412         70.0872 
        0.39888         83.2395         67.9963 
       0.405048         81.2513         66.0257 
       0.411186         79.3714         64.1188 
       0.417313         76.9928         62.2233 
       0.423458         75.0937         60.3255 
       0.429607         73.0963         58.4435 
       0.435692         70.6181          56.621 
       0.441815         69.6644         54.8598 
       0.447964         68.3962         53.1911 
       0.454126         65.4313         51.6241 
       0.460267         64.4945         50.1663 
       0.466387         62.8754         48.8046 
        0.47254         61.8417         47.5026 
       0.478662         60.8839         46.2525 
       0.484765         59.0267         45.0389 
       0.490885         57.7914         43.8468 
       0.497035         57.0567         42.6691 
       0.503198          55.466         41.5169 
       0.509342         54.0486         40.4054 
       0.515458         53.0728         39.3428 
       0.521598         52.2084         38.3221 
       0.527764         51.2187         37.3446 
       0.533884          50.362         36.4207 
           0.54         49.2444         35.5372 
       0.546137         48.6003         34.6825 
       0.552299         47.8396         33.8498 
       0.558452         46.4313          33.041 
       0.564573         45.6504         32.2578 
       0.570708         45.0134         31.4934 
       0.576825         44.0684         30.7522 
       0.582926         43.1541         30.0354 
       0.589034         42.1636         29.3419 
       0.595184         41.6329         28.6694 
       0.601379         40.9432         28.0176 
       0.607522         40.0369          27.394 
       0.613639         39.7736         26.7932 
       0.619772          38.772         26.2088 
       0.625918         38.5303           25.64 
       0.632068         37.9266         25.0869 
       0.638161         37.2406         24.5541 
         0.6443         36.5684         24.0319 
       0.650464         35.9739         23.5221 
       0.656582         35.6837         23.0303 
       0.662703         34.9689         22.5526 
       0.668861         34.4027         22.0864 
       0.675024         33.8641         21.6342 
       0.681124         33.2693         21.2003 
       0.687237         32.7074         20.7779 
       0.693381         32.4696         20.3654 
       0.699536         31.6997         19.9631 
       0.705665         31.7359         19.5729 
       0.711789         30.9369         19.1929 
       0.717957         30.5644         18.8202 
        0.72409         30.1503         18.4593 
       0.730186         29.6842         18.1101 
       0.736317          29.436         17.7683 
       0.742472         28.9126         17.4343 
       0.748622         28.6618         17.1096 
        0.75476         28.2216          16.794 
       0.760888          27.773          16.487 
       0.767043         27.4587         16.1864 
       0.773185           27.02          15.894 
       0.779291         26.9093         15.6103 
       0.785407         26.6072         15.3331 
       0.791564         26.1354         15.0608 
       0.797719         25.5768         14.7953 
       0.803834         25.5523         14.5379 
       0.809972         25.2593         14.2857 
       0.816124         24.7439         14.0391 
       0.822261         24.5371          13.799 
       0.828378         24.3341         13.5653 
       0.834502         24.0693         13.3369 
       0.840667         23.7745         13.1123 
       0.846816         23.3706         12.8936 
       0.852925         23.1549         12.6812 
       0.859047         22.8965         12.4732 
       0.865192         22.6697         12.2692 
       0.871341         22.5457         12.0696 
       0.877463         22.1011         11.8753 
       0.883569         21.8794         11.6858 
       0.889708         21.6188         11.4995 
       0.895864         21.4235         11.3168 
       0.902008         21.2565         11.1384 
       0.908149         21.0348          10.964 
       0.914301         20.9525          10.793 
       0.920448         20.5471         10.6259 
       0.926574         20.3853         10.4629 
       0.932687         20.1647         10.3037 
       0.938823         19.8965         10.1472 
       0.944975         19.7386         9.99365 
       0.951105         19.5487         9.84382 
       0.957225         19.3364         9.69733 
       0.963368         19.2314         9.55334 
       0.969511         19.0423         9.41227 
       0.975621         18.8833         9.27482 
       0.981748          18.606         9.13977 
       0.987916         18.5178         9.00657 
        0.99406         18.2882         8.87654 
        1.00019         18.0617         8.74933 
        1.00632          17.977         8.62475 
        1.01246         17.8475         8.50241 
        1.01859         17.5596         8.38265 
        1.02471         17.5233         8.26535 
        1.03085         17.3492          8.1499 
        1.03698         17.0731         8.03691 
        1.04314         16.9817         7.92558 
        1.04929         16.7937         7.81663 
        1.05541         16.6236         7.71017 
        1.06154         16.5344         7.60544 
        1.06769         16.4381          7.5025 
        1.07382         16.2362         7.40181 
        1.07993         16.1476          7.3032 
        1.08607         15.9552         7.20598 
        1.09222         15.8683         7.11043 
        1.09836         15.6781         7.01674 
        1.10449         15.5778         6.92484 
        1.11063          15.397         6.83449 
        1.11677          15.349         6.74578 
         1.1229         15.2596          6.6588 
        1.12903         15.0507         6.57328 
        1.13518          14.895         6.48919 
        1.14131         14.8579         6.40662 
        1.14745         14.7327         6.32553 
        1.15359         14.6417         6.24583 
        1.15973          14.488         6.16748 
        1.16584         14.3007         6.09082 
        1.17197         14.2836         6.01536 
        1.17811         14.1333         5.94094 
        1.18424         14.0203           5.868 
        1.19038         13.9707         5.79608 
        1.19652          13.841         5.72538 
        1.20267         13.7265         5.65587 
        1.20881         13.6534         5.58753 
        1.21495          13.565         5.52043 
        1.22108         13.4231         5.45444 
         1.2272         13.3095         5.38968 
        1.23334         13.2297         5.32583 
        1.23949         13.1004         5.26286 
        1.24562         13.0581         5.20109 
        1.25174         12.9688         5.14041 
        1.25789          12.867          5.0805 
        1.26402         12.8128         5.02167 
        1.27014         12.6861          4.9639 
        1.27628         12.5512         4.90688 
        1.28244         12.4992         4.85064 
        1.28858         12.4672         4.79536 
        1.29471         12.3357         4.74107 
        1.30084         12.2264         4.68766 
        1.30697         12.1731           4.635 
        1.31312         12.0432         4.58308 
        1.31925         11.9583         4.53211 
        1.32537         11.9282         4.48197 
        1.33151         11.8313         4.43241 
        1.33765         11.7622         4.38362 
        1.34378         11.6837         4.33567 
        1.34992         11.5618         4.28841 
        1.35606         11.5403         4.24174 
         1.3622         11.4643         4.19585 
        1.36833         11.3544         4.15075 
        1.37445         11.3194         4.10634 
        1.38059         11.2431         4.06243 
        1.38675         11.1219         4.01907 
        1.39288         11.1056          3.9765 
        1.39901          11.001         3.93458 
        1.40515         10.9544         3.89316 
         1.4113         10.8752         3.85235 
        1.41742         10.7986         3.81229 
        1.42355         10.7372         3.77272 
         1.4297         10.6914         3.73359 
        1.43585         10.6432         3.69503 
        1.44198         10.5624         3.65716 
        1.44809         10.4998          3.6199 
        1.45423           10.43         3.58301 
        1.46036         10.3641         3.54671 
        1.46649         10.3241          3.5109 
        1.47263         10.2274         3.47555 
        1.47877         10.1742         3.44071 
        1.48491         10.1365         3.40628 
        1.49104          10.079         3.37241 
        1.49718         10.0098         3.33896 
        1.50333         9.96649         3.30592 
        1.50947         9.89797         3.27339 
         1.5156         9.83216         3.24135 
        1.52172         9.79468         3.20974 
        1.52787          9.7269         3.17848 
          1.534         9.65908         3.14768 
        1.54013         9.60403         3.11732 
        1.54627         9.54085          3.0873 
        1.55241         9.50465         3.05768 
        1.55855         9.45515         3.02848 
        1.56467         9.39078         2.99975 
         1.5708         9.38083         2.97131 
        1.57695         9.29719         2.94319 
        1.58308         9.24484          2.9155 
        1.58922         9.21007         2.88815 
        1.59535         9.16284         2.86115 
         1.6015         9.09099         2.83447 
        1.60764         9.03557         2.80813 
        1.61376          9.0185         2.78221 
        1.61989         8.94653         2.75659 
        1.62604         8.92798         2.73123 
        1.63218         8.87597         2.70621 
        1.63831         8.83423         2.68156 
        1.64444         8.76658         2.65721 
        1.65059          8.7112          2.6331 
        1.65673         8.70687         2.60931 
        1.66285         8.61218         2.58589 
        1.66898         8.59393         2.56274 
        1.67512         8.55317         2.53984 
        1.68127         8.50525         2.51719 
         1.6874         8.46634         2.49487 
        1.69353          8.4019         2.47283 
        1.69967          8.3751         2.45101 
        1.70581         8.34447         2.42945 
        1.71193         8.28325         2.40824 
        1.71806         8.26141         2.38724 
        1.72421         8.20236         2.36644 
        1.73035         8.17476         2.34592 
        1.73649         8.13903         2.32564 
        1.74262          8.0992         2.30562 
        1.74876         8.07125         2.28582 
        1.75489         8.02226         2.26629 
        1.76101         7.96386           2.247 
        1.76715         7.95338         2.22791 
        1.77329         7.88687         2.20901 
        1.77943          7.8521         2.19032 
        1.78557         7.84015         2.17188 
        1.79171         7.80313         2.15365 
        1.79785         7.74378         2.13562 
        1.80399         7.71409          2.1178 
        1.81012         7.69076         2.10021 
        1.81625          7.6426         2.08283 
        1.82239          7.6101         2.06561 
        1.82853         7.56358          2.0486 
        1.83466         7.53383          2.0318 
        1.84078          7.4871          2.0152 
        1.84692         7.47896         1.99876 
        1.85306         7.43013         1.98248 
         1.8592          7.3919         1.96641 
        1.86533         7.37269         1.95053 
        1.87147         7.33456          1.9348 
        1.87761         7.30787         1.91924 
        1.88375         7.25056         1.90387 
        1.88988         7.25055         1.88868 
        1.89601         7.20837         1.87365 
        1.90215         7.16853         1.85877 
        1.90829          7.1367         1.84406 
        1.91442         7.10356         1.82951 
        1.92056         7.08405         1.81513 
         1.9267         7.04532         1.80089 
        1.93284         7.00917         1.78679 
        1.93897         6.97429         1.77287 
        1.94509         6.95217         1.75912 
        1.95123         6.92489         1.74549 
        1.95737         6.89326         1.73199 
        1.96349          6.8678         1.71867 
        1.96964         6.82387         1.70545 
        1.97578         6.79721         1.69236 
        1.98192         6.77322         1.67944 
        1.98805         6.75015         1.66665 
        1.99419         6.71258         1.65399 
        2.00033         6.69908         1.64146 
        2.00647         6.66195         1.62906 
         2.0126         6.63296          1.6168 
        2.01874         6.60849         1.60466 
        2.02488         6.57414         1.59263 
        2.03101         6.55233         1.58074 
        2.03714         6.51474         1.56899 
        2.04328         6.49948         1.55734 
        2.04941         6.45723         1.54582 
        2.05554         6.44836         1.53443 
        2.06167         6.40639         1.52313 
        2.06781         6.39746         1.51195 
        2.07396          6.3741         1.50086 
        2.08009         6.34188          1.4899 
        2.08622         6.30368         1.47907 
        2.09237         6.29591         1.46832 
        2.09851         6.27476         1.45767 
        2.10464         6.23811         1.44715 
        2.11077         6.20064         1.43675 
        2.11691         6.17701         1.42642 
        2.12305         6.16097         1.41619 
        2.12918         6.14463         1.40609 
        2.13531         6.11612         1.39609 
        2.14145         6.09195         1.38616 
         2.1476         6.06706         1.37631 
        2.15372          6.0451         1.36661 
        2.15985         6.03251         1.35699 
        2.16599         5.99863         1.34744 
        2.17213         5.97861         1.33799 
        2.17827         5.95853         1.32863 
         2.1844         5.93141         1.31937 
        2.19054         5.89192          1.3102 
        2.19666         5.88502         1.30112 
         2.2028         5.86145         1.29212 
        2.20893         5.84503         1.28321 
        2.21508          5.8133         1.27436 
        2.22122         5.78705          1.2656 
        2.22736         5.77494         1.25694 
        2.23349         5.74877         1.24836 
        2.23962         5.73589         1.23986 
        2.24577         5.70632         1.23142 
         2.2519          5.6934         1.22308 
        2.25802         5.66279         1.21483 
        2.26417         5.64507         1.20663 
        2.27031         5.61693          1.1985 
        2.27644         5.59892         1.19047 
        2.28257         5.57899         1.18251 
        2.28872         5.56161         1.17461 
        2.29486         5.54115         1.16678 
        2.30099         5.52728         1.15904 
        2.30712         5.50447         1.15136 
        2.31326         5.47042         1.14374 
         2.3194         5.45703          1.1362 
        2.32553         5.44667         1.12874 
        2.33166         5.42376         1.12134 
         2.3378         5.39962           1.114 
        2.34394         5.38301         1.10673 
        2.35007         5.35941         1.09953 
        2.35619         5.34063          1.0924 
        2.36233         5.32075         1.08532 
        2.36848         5.30613         1.07829 
        2.37462         5.28999         1.07133 
        2.38075         5.27129         1.06445 
        2.38689         5.25294         1.05761 
        2.39303         5.22454         1.05084 
        2.39916         5.20989         1.04413 
        2.40529          5.1948         1.03749 
        2.41143         5.17229         1.03089 
        2.41757           5.173         1.02435 
         2.4237         5.14412         1.01788 
        2.42983         5.12322         1.01147 
        2.43598          5.1099         1.00509 
        2.44211         5.08784        0.998777 
        2.44823         5.07437        0.992534 
        2.45437         5.05776        0.986326 
        2.46052         5.03409        0.980167 
        2.46665         5.02123         0.97407 
        2.47279         4.99596        0.968027 
        2.47892         4.97994        0.962032 
        2.48507         4.96775        0.956081 
         2.4912         4.94649        0.950192 
