# k  (h/Mpc)    P(k)  (Mpc/h)^3    P_linear(k)  (Mpc/h)^3
     0.00783031         137.712         138.985 
       0.013688         174.949         175.628 
       0.019231         182.543          182.69 
      0.0249154         174.107         174.598 
      0.0312784         157.328          157.35 
      0.0375637         139.126         138.893 
      0.0433917         123.955         123.892 
      0.0492413         112.112          111.92 
      0.0555754         102.067         102.105 
      0.0619321         94.6835         94.4171 
       0.067871         88.0265          88.063 
      0.0738098         81.6726         81.7302 
      0.0800417         74.6564         74.7839 
      0.0862327         67.7303         67.7338 
      0.0921407         61.3141         61.2758 
      0.0982031         55.3554         55.3584 
       0.104506         50.4175         50.2649 
       0.110769         46.4463           46.32 
       0.116806         43.3973         43.4007 
       0.122832         41.1331         41.0619 
       0.129052         38.9005         38.9233 
       0.135211         36.7772         36.8184 
       0.141259         34.6587         34.6348 
       0.147318         32.4271          32.337 
       0.153489         30.0314         29.9883 
       0.159709         27.8093         27.7597 
       0.165845         25.9676         25.8179 
       0.171974          24.239         24.1915 
       0.178125         22.9277         22.8628 
       0.184229         21.8745          21.781 
        0.19034         20.8554         20.8436 
       0.196428         20.0235         19.9667 
       0.202534         19.2016          19.081 
       0.208729         18.2232         18.1495 
       0.214876         17.2399         17.2023 
       0.220989         16.3862         16.2711 
       0.227147         15.4254         15.3849 
        0.23329         14.6282         14.5843 
       0.239377         13.9461          13.888 
       0.245482         13.3153         13.2823 
       0.251667         12.8283         12.7442 
       0.257832         12.3195         12.2575 
       0.263955         11.8706         11.7987 
       0.270079         11.4213         11.3465 
        0.27624         11.0009         10.8916 
       0.282372         10.5463         10.4408 
        0.28843         10.0829         10.0057 
       0.294538         9.67043         9.58759 
       0.300721         9.30692         9.19389 
        0.30691         8.91064         8.83345 
       0.313033         8.59452         8.50878 
       0.319153         8.25236         8.21128 
       0.325316          8.0361         7.93168 
        0.33145         7.76227         7.66665 
       0.337538         7.50111         7.41155 
       0.343633         7.23863         7.16174 
       0.349808         7.00619         6.91441 
       0.355968         6.76727         6.67508 
       0.362074         6.53405         6.44773 
       0.368217         6.32112         6.23075 
       0.374374         6.09752         6.02627 
       0.380519         5.92297         5.83472 
       0.386598         5.75282         5.65633 
       0.392688         5.59089         5.48691 
        0.39888          5.4187         5.32205 
       0.405048         5.26284         5.16383 
       0.411186         5.11429         5.01135 
       0.417313         4.95395         4.86371 
       0.423458          4.8209         4.72058 
       0.429607         4.67099         4.58266 
       0.435692         4.53921         4.45179 
       0.441815          4.4168         4.32596 
       0.447964         4.31128          4.2054 
       0.454126         4.17824         4.08997 
       0.460267         4.06761         3.97983 
       0.466387         3.95565         3.87436 
        0.47254         3.85929         3.77203 
       0.478662          3.7651         3.67361 
       0.484765         3.66257          3.5787 
       0.490885         3.57164         3.48662 
       0.497035         3.50001          3.3972 
       0.503198          3.4039         3.31079 
       0.509342         3.32425         3.22784 
       0.515458         3.23912         3.14832 
       0.521598         3.16369         3.07138 
       0.527764           3.081          2.9969 
       0.533884         3.02081         2.92553 
           0.54         2.94792         2.85657 
       0.546137         2.88453         2.78955 
       0.552299         2.81779         2.72436 
       0.558452         2.74626         2.66132 
       0.564573         2.69127         2.60057 
       0.570708         2.63207         2.54159 
       0.576825         2.56981         2.48465 
       0.582926         2.52133         2.42967 
       0.589034         2.45401         2.37635 
       0.595184         2.40584         2.32436 
       0.601379         2.35463         2.27361 
       0.607522         2.31153         2.22481 
       0.613639         2.27127         2.17764 
       0.619772         2.21376         2.13173 
       0.625918         2.17289         2.08705 
       0.632068         2.13367         2.04363 
       0.638161         2.08645         2.00185 
         0.6443         2.04392         1.96095 
       0.650464          1.9994         1.92106 
       0.656582         1.96583         1.88258 
       0.662703         1.92857         1.84516 
       0.668861         1.89674         1.80857 
       0.675024         1.85577         1.77296 
       0.681124         1.81617         1.73869 
       0.687237         1.78905         1.70526 
       0.693381         1.75658         1.67255 
       0.699536         1.71405         1.64066 
       0.705665         1.68576         1.60973 
       0.711789         1.65847         1.57964 
       0.717957         1.62539         1.55013 
        0.72409         1.59817         1.52154 
       0.730186         1.56833         1.49386 
       0.736317         1.54802         1.46672 
       0.742472         1.51918         1.44017 
       0.748622         1.49031         1.41431 
        0.75476         1.46172         1.38915 
       0.760888         1.43634         1.36464 
       0.767043         1.42004         1.34064 
       0.773185         1.39071         1.31726 
       0.779291         1.36836         1.29459 
       0.785407          1.3464         1.27242 
       0.791564         1.32488         1.25064 
       0.797719         1.30533         1.22938 
       0.803834         1.28456         1.20876 
       0.809972         1.26284         1.18855 
       0.816124         1.24096         1.16876 
       0.822261         1.21941         1.14948 
       0.828378         1.20311         1.13069 
       0.834502         1.18681         1.11232 
       0.840667         1.16306         1.09424 
       0.846816         1.14566         1.07661 
       0.852925         1.13262         1.05949 
       0.859047         1.11502         1.04271 
       0.865192         1.09625         1.02624 
       0.871341         1.07958         1.01012 
       0.877463         1.06737        0.994417 
       0.883569         1.04838        0.979094 
       0.889708         1.03256        0.964019 
       0.895864         1.01792        0.949224 
       0.902008         1.00123        0.934773 
       0.908149        0.987289        0.920635 
       0.914301        0.968991        0.906768 
       0.920448        0.957282        0.893202 
       0.926574        0.943115        0.879964 
       0.932687         0.92967        0.867024 
       0.938823        0.920659          0.8543 
       0.944975        0.906285        0.841804 
       0.951105        0.894664        0.829606 
       0.957225        0.884177        0.817671 
       0.963368        0.870973        0.805933 
       0.969511        0.857398        0.794428 
       0.975621        0.844441         0.78321 
       0.981748        0.836685        0.772183 
       0.987916        0.824375          0.7613 
        0.99406        0.812325        0.750671 
        1.00019        0.804115        0.740267 
        1.00632        0.790208        0.730071 
        1.01246        0.780172        0.720055 
        1.01859        0.771546        0.710244 
        1.02471        0.760536         0.70063 
        1.03085        0.753516        0.691162 
        1.03698        0.741664        0.681892 
        1.04314        0.733075        0.672753 
        1.04929        0.722413        0.663805 
        1.05541        0.714954        0.655057 
        1.06154        0.704889        0.646447 
        1.06769        0.695213         0.63798 
        1.07382        0.687785        0.629694 
        1.07993        0.677519        0.621574 
        1.08607        0.672491        0.613566 
        1.09222        0.662195        0.605691 
        1.09836        0.656904        0.597966 
        1.10449        0.648286        0.590384 
        1.11063        0.638851        0.582927 
        1.11677        0.630007        0.575603 
         1.1229        0.624123        0.568418 
        1.12903        0.615642         0.56135 
        1.13518        0.609943        0.554397 
        1.14131        0.601804        0.547566 
        1.14745         0.59201        0.540855 
        1.15359        0.587748        0.534256 
        1.15973        0.579052        0.527765 
        1.16584        0.575246        0.521412 
        1.17197        0.567867        0.515154 
        1.17811        0.562091        0.508981 
        1.18424        0.557098        0.502927 
        1.19038        0.549139        0.496955 
        1.19652        0.541426        0.491082 
        1.20267        0.537808        0.485306 
        1.20881        0.530625        0.479624 
        1.21495        0.526295        0.474042 
        1.22108        0.520129        0.468551 
         1.2272        0.514999        0.463161 
        1.23334         0.50864        0.457843 
        1.23949        0.503198        0.452597 
        1.24562        0.497912        0.447448 
        1.25174        0.492989        0.442388 
        1.25789        0.488224        0.437391 
        1.26402        0.481317        0.432481 
        1.27014        0.476814        0.427659 
        1.27628        0.473008        0.422896 
        1.28244        0.465864        0.418197 
        1.28858        0.462034        0.413577 
        1.29471        0.458588        0.409037 
        1.30084        0.452722         0.40457 
        1.30697        0.448091        0.400164 
        1.31312        0.441859        0.395817 
        1.31925        0.438238        0.391549 
        1.32537        0.434674        0.387348 
        1.33151        0.430822        0.383195 
        1.33765        0.426211        0.379105 
        1.34378        0.420723        0.375083 
        1.34992        0.417538        0.371117 
        1.35606        0.413036        0.367201 
         1.3622         0.40904        0.363348 
        1.36833        0.404817        0.359559 
        1.37445        0.399738        0.355828 
        1.38059        0.396256        0.352138 
        1.38675        0.394645        0.348491 
        1.39288        0.389662        0.344911 
        1.39901        0.386137        0.341384 
        1.40515        0.382773        0.337898 
         1.4113        0.378177        0.334462 
        1.41742        0.374664        0.331087 
        1.42355        0.372318        0.327753 
         1.4297        0.367588        0.324455 
        1.43585        0.364729        0.321204 
        1.44198        0.362181         0.31801 
        1.44809        0.357792        0.314865 
        1.45423        0.354736        0.311752 
        1.46036        0.351257        0.308686 
        1.46649        0.348837        0.305661 
        1.47263        0.345109        0.302674 
        1.47877        0.341225        0.299729 
        1.48491        0.338794        0.296818 
        1.49104        0.334892        0.293953 
        1.49718        0.332301        0.291123 
        1.50333        0.330098        0.288326 
        1.50947        0.326739        0.285572 
         1.5156        0.323461        0.282859 
        1.52172        0.320952         0.28018 
        1.52787        0.317986        0.277531 
          1.534        0.314993         0.27492 
        1.54013        0.311996        0.272346 
        1.54627        0.309974        0.269799 
        1.55241        0.306693        0.267286 
        1.55855        0.303574        0.264808 
        1.56467        0.302517        0.262368 
         1.5708         0.29902        0.259952 
        1.57695        0.296578        0.257564 
        1.58308         0.29392        0.255211 
        1.58922        0.291696        0.252886 
        1.59535        0.289044        0.250591 
         1.6015        0.286377        0.248321 
        1.60764        0.284394        0.246081 
        1.61376        0.281215        0.243874 
        1.61989        0.279364        0.241693 
        1.62604         0.27726        0.239534 
        1.63218        0.275098        0.237403 
        1.63831         0.27284        0.235303 
        1.64444        0.270557        0.233227 
        1.65059        0.268348        0.231172 
        1.65673        0.266158        0.229144 
        1.66285        0.264359        0.227145 
        1.66898        0.262126         0.22517 
        1.67512        0.259494        0.223215 
        1.68127        0.257267        0.221281 
         1.6874        0.255973        0.219375 
        1.69353        0.253224        0.217492 
        1.69967        0.251987        0.215627 
        1.70581        0.249206        0.213785 
        1.71193        0.247506        0.211971 
        1.71806        0.245193        0.210175 
        1.72421        0.244038        0.208396 
        1.73035        0.241624        0.206639 
        1.73649        0.240205        0.204904 
        1.74262        0.238138        0.203189 
        1.74876         0.23617        0.201494 
        1.75489         0.23465        0.199821 
        1.76101         0.23235        0.198168 
        1.76715        0.230682        0.196531 
        1.77329        0.228626        0.194911 
        1.77943        0.227137        0.193309 
        1.78557         0.22581        0.191727 
        1.79171        0.224066        0.190162 
        1.79785        0.222235        0.188615 
        1.80399        0.220506        0.187085 
        1.81012        0.219073        0.185575 
        1.81625        0.217258        0.184082 
        1.82239        0.215818        0.182603 
        1.82853        0.213825        0.181141 
        1.83466        0.212584        0.179697 
        1.84078        0.210882         0.17827 
        1.84692        0.209305        0.176856 
        1.85306        0.208082        0.175456 
         1.8592        0.206242        0.174073 
        1.86533        0.205092        0.172706 
        1.87147        0.203553        0.171353 
        1.87761        0.202276        0.170013 
        1.88375        0.200364        0.168689 
        1.88988        0.199088        0.167381 
        1.89601        0.197474        0.166086 
        1.90215        0.196399        0.164804 
        1.90829        0.194655        0.163536 
        1.91442        0.193782        0.162281 
        1.92056        0.192107         0.16104 
         1.9267        0.190561        0.159811 
        1.93284        0.189334        0.158595 
        1.93897        0.187939        0.157393 
        1.94509        0.187024        0.156206 
        1.95123        0.185522        0.155029 
        1.95737        0.184471        0.153863 
        1.96349        0.182993        0.152712 
        1.96964        0.181601         0.15157 
        1.97578         0.18039        0.150438 
        1.98192        0.179481        0.149321 
        1.98805        0.178387        0.148215 
        1.99419        0.176694         0.14712 
        2.00033        0.175546        0.146036 
        2.00647        0.174821        0.144963 
         2.0126        0.173214        0.143902 
        2.01874         0.17239        0.142851 
        2.02488        0.171122        0.141809 
        2.03101        0.170036        0.140779 
        2.03714        0.168715        0.139761 
        2.04328        0.167852        0.138752 
        2.04941        0.166485        0.137753 
        2.05554        0.165617        0.136766 
        2.06167        0.164788        0.135786 
        2.06781        0.163268        0.134816 
        2.07396        0.162237        0.133854 
        2.08009        0.161203        0.132903 
        2.08622        0.160342        0.131963 
        2.09237         0.15942         0.13103 
        2.09851        0.158399        0.130106 
        2.10464        0.157418        0.129192 
        2.11077         0.15615        0.128288 
        2.11691        0.155291        0.127391 
        2.12305        0.154228        0.126502 
        2.12918        0.153483        0.125624 
        2.13531        0.152295        0.124755 
        2.14145        0.151173        0.123891 
         2.1476        0.150425        0.123035 
        2.15372        0.149773        0.122191 
        2.15985         0.14859        0.121354 
        2.16599        0.147586        0.120523 
        2.17213        0.146821        0.119701 
        2.17827        0.145733        0.118886 
         2.1844        0.145107         0.11808 
        2.19054          0.1441        0.117281 
        2.19666        0.142923         0.11649 
         2.2028         0.14231        0.115706 
        2.20893        0.141691        0.114929 
        2.21508          0.1404        0.114158 
        2.22122        0.139583        0.113394 
        2.22736        0.139059        0.112639 
        2.23349        0.138062        0.111891 
        2.23962        0.137385        0.111149 
        2.24577        0.136351        0.110413 
         2.2519        0.135728        0.109685 
        2.25802        0.134787        0.108964 
        2.26417        0.134118        0.108249 
        2.27031         0.13319        0.107539 
        2.27644        0.132447        0.106837 
        2.28257        0.131636        0.106142 
        2.28872        0.130977        0.105451 
        2.29486        0.130382        0.104767 
        2.30099        0.129377        0.104091 
        2.30712        0.128738         0.10342 
        2.31326        0.127704        0.102754 
         2.3194         0.12756        0.102094 
        2.32553        0.126653        0.101441 
        2.33166        0.126075        0.100794 
         2.3378        0.125188        0.100152 
        2.34394        0.124424        0.099515 
        2.35007        0.123724       0.0988847 
        2.35619        0.122835       0.0982606 
        2.36233        0.122291       0.0976405 
        2.36848        0.121753       0.0970245 
        2.37462        0.120817       0.0964151 
        2.38075        0.120397       0.0958115 
        2.38689        0.119727       0.0952126 
        2.39303        0.119194       0.0946189 
        2.39916        0.118254       0.0940309 
        2.40529        0.117755        0.093448 
        2.41143        0.117006       0.0928696 
        2.41757        0.116357       0.0922959 
         2.4237        0.115893       0.0917281 
        2.42983        0.115141       0.0911651 
        2.43598        0.114761       0.0906054 
        2.44211        0.113889       0.0900513 
        2.44823        0.113548       0.0895031 
        2.45437        0.112612        0.088958 
        2.46052         0.11223        0.088417 
        2.46665        0.111488       0.0878814 
        2.47279        0.110848       0.0873505 
        2.47892        0.110123       0.0868236 
        2.48507        0.109578       0.0863006 
         2.4912        0.109119       0.0857829 
