# k  (h/Mpc)    P(k)  (Mpc/h)^3    P_linear(k)  (Mpc/h)^3
     0.00783031         14187.1         14445.9 
       0.013688         16981.7           16876 
       0.019231         16149.1         16116.6 
      0.0249154         13675.3         13925.9 
      0.0312784         11043.2         11114.9 
      0.0375637         8828.73          8772.9 
      0.0433917         7187.49         7239.21 
      0.0492413         6288.87         6272.85 
      0.0555754         5578.52         5683.62 
      0.0619321         5385.84         5331.58 
       0.067871         4945.33         5030.43 
      0.0738098            4568          4645.2 
      0.0800417         4032.71         4126.97 
      0.0862327          3527.7         3552.91 
      0.0921407         3084.63         3032.86 
      0.0982031         2639.39         2595.47 
       0.104506         2397.02         2275.95 
       0.110769         2195.14         2086.42 
       0.116806         2079.79         1990.63 
       0.122832         2013.75         1935.97 
       0.129052         1901.91         1877.69 
       0.135211         1811.13         1786.96 
       0.141259         1715.86         1657.47 
       0.147318         1582.38         1499.96 
       0.153489         1416.67          1335.1 
       0.159709         1302.84         1188.66 
       0.165845         1220.36         1078.15 
       0.171974         1143.35         1004.37 
       0.178125         1091.03         960.557 
       0.184229          1051.2         934.975 
        0.19034         996.064         913.611 
       0.196428         979.788         885.418 
       0.202534         945.551         844.501 
       0.208729         891.021          790.83 
       0.214876         838.938         731.318 
       0.220989         798.337         673.576 
       0.227147          755.31         623.317 
        0.23329         718.954         584.482 
       0.239377         700.991         557.124 
       0.245482         654.338         538.178 
       0.251667         650.681         523.589 
       0.257832         627.046         509.419 
       0.263955         606.354         492.636 
       0.270079         581.448         472.012 
        0.27624         572.296         448.051 
       0.282372         548.223         422.981 
        0.28843         532.423         399.282 
       0.294538         504.066         378.237 
       0.300721         499.292          360.78 
        0.30691         476.758         346.973 
       0.313033         466.844         336.062 
       0.319153         452.128         326.521 
       0.325316         439.631         317.071 
        0.33145         426.015         306.904 
       0.337538         418.729         295.835 
       0.343633         405.258         283.977 
       0.349808         390.383         271.824 
       0.355968         385.769         260.243 
       0.362074         378.775         249.819 
       0.368217         367.717         240.683 
       0.374374         351.887         232.762 
       0.380519         349.382         225.842 
       0.386598         339.972         219.528 
       0.392688         336.763         213.346 
        0.39888         327.354         206.979 
       0.405048         319.771         200.418 
       0.411186         313.872         193.777 
       0.417313         307.541         187.216 
       0.423458         300.661         180.887 
       0.429607         295.378         174.979 
       0.435692         287.478          169.64 
       0.441815         284.575         164.722 
       0.447964         278.309         160.171 
       0.454126         270.533         155.879 
       0.460267         265.787         151.732 
       0.466387         262.335         147.636 
        0.47254         256.987         143.548 
       0.478662         256.139         139.517 
       0.484765         246.726         135.569 
       0.490885         243.924         131.745 
       0.497035         239.519         128.097 
       0.503198         235.282         124.654 
       0.509342         233.213         121.413 
       0.515458         229.788         118.359 
       0.521598         224.323         115.434 
       0.527764         221.544         112.598 
       0.533884         218.893         109.847 
           0.54         215.501         107.144 
       0.546137         214.187         104.491 
       0.552299         209.653           101.9 
       0.558452          208.04         99.3953 
       0.564573         204.804         96.9927 
       0.570708         200.402         94.6785 
       0.576825         197.556         92.4692 
       0.582926         194.868         90.3595 
       0.589034         192.902         88.3258 
       0.595184         190.858         86.3429 
       0.601379         187.918         84.3979 
       0.607522         185.003         82.5151 
       0.613639         183.636         80.6886 
       0.619772         179.859         78.9084 
       0.625918         178.616         77.1784 
       0.632068         175.817         75.5021 
       0.638161         174.772         73.8937 
         0.6443         172.072          72.324 
       0.650464         170.233         70.7975 
       0.656582         168.026         69.3295 
       0.662703         167.347         67.9052 
       0.668861         164.302         66.5142 
       0.675024         162.046         65.1611 
       0.681124         161.141          63.858 
       0.687237         158.911         62.5858 
       0.693381         156.351         61.3402 
       0.699536         155.179         60.1252 
       0.705665         154.034         58.9481 
       0.711789         151.926         57.8043 
       0.717957         151.623         56.6845 
        0.72409         149.397         55.6025 
       0.730186          147.41         54.5568 
       0.736317         145.758         53.5334 
       0.742472         144.798         52.5331 
       0.748622         143.479         51.5596 
        0.75476         142.166         50.6126 
       0.760888         140.442         49.6903 
       0.767043         139.962          48.787 
       0.773185         138.538         47.9078 
       0.779291         135.893         47.0552 
       0.785407         135.517         46.2222 
       0.791564         134.414         45.4043 
       0.797719         131.941          44.607 
       0.803834         131.346         43.8342 
       0.809972         130.497         43.0774 
       0.816124         129.716         42.3371 
       0.822261         128.539         41.6164 
       0.828378         127.249         40.9149 
       0.834502         126.795         40.2292 
       0.840667         124.895         39.5549 
       0.846816         123.643         38.8981 
       0.852925          123.08         38.2604 
       0.859047         121.781         37.6358 
       0.865192         120.542         37.0231 
       0.871341         119.611         36.4238 
       0.877463          118.44         35.8405 
       0.883569         118.219         35.2716 
       0.889708         116.913         34.7122 
       0.895864         115.614         34.1636 
       0.902008         114.893          33.628 
       0.908149         114.477         33.1043 
       0.914301         113.144         32.5911 
       0.920448         112.261         32.0892 
       0.926574         111.455         31.5998 
       0.932687         111.372         31.1217 
       0.938823         109.682         30.6518 
       0.944975         108.665         30.1906 
       0.951105         108.123         29.7407 
       0.957225          107.21         29.3008 
       0.963368         105.796         28.8683 
       0.969511         105.704         28.4446 
       0.975621         104.954         28.0318 
       0.981748         104.513         27.6262 
       0.987916         103.365         27.2261 
        0.99406         102.538         26.8356 
        1.00019         102.369         26.4535 
        1.00632         101.132         26.0792 
        1.01246         100.662         25.7117 
        1.01859          99.992         25.3519 
        1.02471         98.8635         24.9995 
        1.03085         98.0681         24.6527 
        1.03698         97.8675         24.3132 
        1.04314         96.8117         23.9787 
        1.04929         96.3522         23.6513 
        1.05541         95.5606         23.3313 
        1.06154         95.1626         23.0166 
        1.06769         94.8246         22.7072 
        1.07382         93.9496         22.4046 
        1.07993         93.3598         22.1082 
        1.08607         92.5898          21.816 
        1.09222         92.4232         21.5287 
        1.09836         91.5731          21.247 
        1.10449         90.8163         20.9708 
        1.11063         90.2336         20.6991 
        1.11677         89.7376         20.4324 
         1.1229         89.0521         20.1708 
        1.12903         88.5544         19.9137 
        1.13518         88.3756         19.6608 
        1.14131         87.5641         19.4125 
        1.14745         87.0843         19.1687 
        1.15359         86.5265          18.929 
        1.15973         86.0988         18.6933 
        1.16584         85.2638         18.4628 
        1.17197         84.7921         18.2358 
        1.17811         84.4325         18.0119 
        1.18424         83.8749         17.7925 
        1.19038         83.6634         17.5761 
        1.19652         83.0789         17.3635 
        1.20267         82.1957         17.1543 
        1.20881         81.8624         16.9487 
        1.21495         81.2442         16.7468 
        1.22108         81.0077         16.5483 
         1.2272         80.1524         16.3534 
        1.23334         79.8382         16.1613 
        1.23949         79.4329         15.9718 
        1.24562         78.8467         15.7859 
        1.25174         78.5217         15.6032 
        1.25789         78.1142         15.4229 
        1.26402         77.3208         15.2458 
        1.27014         77.1711         15.0719 
        1.27628         76.7694         14.9002 
        1.28244         76.2965         14.7308 
        1.28858         76.0588         14.5644 
        1.29471         75.4264         14.4009 
        1.30084         75.1762           14.24 
        1.30697         74.5135         14.0814 
        1.31312         74.1257          13.925 
        1.31925         73.6564         13.7715 
        1.32537         73.3491         13.6205 
        1.33151         72.7053         13.4712 
        1.33765         72.4865         13.3242 
        1.34378           72.13         13.1797 
        1.34992         71.7328         13.0373 
        1.35606         71.2965         12.8966 
         1.3622         70.7388         12.7583 
        1.36833         70.6181         12.6224 
        1.37445         70.1434         12.4885 
        1.38059          69.545         12.3562 
        1.38675         69.2057         12.2255 
        1.39288         69.0175         12.0972 
        1.39901          68.615         11.9708 
        1.40515         68.1418         11.8459 
         1.4113         67.8242         11.7229 
        1.41742          67.622         11.6021 
        1.42355         67.1461         11.4827 
         1.4297          66.986         11.3647 
        1.43585         66.4269         11.2485 
        1.44198         65.9983         11.1343 
        1.44809         65.7754         11.0219 
        1.45423         65.4872         10.9106 
        1.46036         65.1685         10.8011 
        1.46649         64.6647         10.6931 
        1.47263          64.311         10.5864 
        1.47877         64.1247         10.4813 
        1.48491         63.6781         10.3774 
        1.49104         63.4571         10.2752 
        1.49718         63.0481         10.1743 
        1.50333         62.8387         10.0746 
        1.50947         62.4797         9.97639 
         1.5156          62.186         9.87968 
        1.52172          61.814         9.78426 
        1.52787         61.6114         9.68991 
          1.534         61.1309         9.59692 
        1.54013         60.7767         9.50525 
        1.54627         60.6648         9.41462 
        1.55241         60.1181         9.32516 
        1.55855         59.9945         9.23699 
        1.56467         59.7313         9.15021 
         1.5708         59.4232          9.0643 
        1.57695         59.2755         8.97936 
        1.58308         58.7573         8.89571 
        1.58922         58.4698         8.81307 
        1.59535         58.3597         8.73152 
         1.6015         57.7899         8.65089 
        1.60764          57.673         8.57131 
        1.61376         57.3389         8.49297 
        1.61989         57.1055         8.41554 
        1.62604         56.8325          8.3389 
        1.63218         56.6475         8.26327 
        1.63831         56.0584         8.18876 
        1.64444          55.933         8.11514 
        1.65059         55.7472         8.04226 
        1.65673         55.3489         7.97035 
        1.66285          55.063         7.89953 
        1.66898         54.9214         7.82955 
        1.67512         54.4622         7.76028 
        1.68127         54.3756         7.69179 
         1.6874         54.0751         7.62428 
        1.69353         53.8089         7.55763 
        1.69967         53.5257         7.49162 
        1.70581         53.3457         7.42642 
        1.71193         53.1452         7.36226 
        1.71806         52.6901         7.29871 
        1.72421         52.5694          7.2358 
        1.73035         52.3193          7.1737 
        1.73649         52.0419         7.11234 
        1.74262          51.782         7.05176 
        1.74876         51.5272         6.99184 
        1.75489         51.3006         6.93275 
        1.76101         51.1226         6.87435 
        1.76715         50.7307         6.81656 
        1.77329         50.5264         6.75935 
        1.77943         50.2431         6.70279 
        1.78557         50.0542         6.64695 
        1.79171         49.8188         6.59174 
        1.79785         49.5065         6.53715 
        1.80399         49.4494         6.48319 
        1.81012         49.1269         6.42992 
        1.81625         48.8422         6.37726 
        1.82239         48.6351         6.32512 
        1.82853         48.4084         6.27359 
        1.83466         48.1587         6.22268 
        1.84078         47.9279         6.17239 
        1.84692         47.6866         6.12258 
        1.85306         47.4545         6.07326 
         1.8592         47.2552         6.02456 
        1.86533         47.0291         5.97643 
        1.87147         46.7342         5.92876 
        1.87761         46.6272          5.8816 
        1.88375         46.3831         5.83501 
        1.88988         46.1578         5.78897 
        1.89601         45.9309         5.74341 
        1.90215         45.6891          5.6983 
        1.90829         45.5534          5.6537 
        1.91442         45.3616         5.60957 
        1.92056           45.08         5.56596 
         1.9267         44.9094         5.52277 
        1.93284         44.5886         5.48001 
        1.93897         44.4777         5.43778 
        1.94509         44.2857          5.3961 
        1.95123         44.0423         5.35474 
        1.95737         43.8296         5.31379 
        1.96349         43.5987         5.27338 
        1.96964         43.4314         5.23326 
        1.97578         43.1937         5.19355 
        1.98192         43.0658         5.15434 
        1.98805         42.8989         5.11552 
        1.99419         42.6096         5.07711 
        2.00033         42.4645         5.03907 
        2.00647         42.3007         5.00143 
         2.0126         41.9294         4.96425 
        2.01874         41.8786         4.92738 
        2.02488         41.6973         4.89086 
        2.03101         41.4815         4.85477 
        2.03714         41.3119         4.81909 
        2.04328         41.0974         4.78372 
        2.04941         40.8998         4.74874 
        2.05554         40.7013         4.71414 
        2.06167         40.5736         4.67983 
        2.06781         40.3048         4.64586 
        2.07396         40.1851         4.61218 
        2.08009         40.0263          4.5789 
        2.08622          39.726         4.54598 
        2.09237         39.6329         4.51332 
        2.09851         39.5017         4.48097 
        2.10464         39.3072           4.449 
        2.11077         39.0597         4.41737 
        2.11691         38.8604         4.38599 
        2.12305         38.7349         4.35491 
        2.12918         38.6019         4.32421 
        2.13531         38.3315          4.2938 
        2.14145         38.1458         4.26361 
         2.1476         37.9548         4.23368 
        2.15372         37.7813         4.20418 
        2.15985         37.7126         4.17494 
        2.16599         37.4941          4.1459 
        2.17213         37.3904         4.11716 
        2.17827         37.1558          4.0887 
         2.1844         36.9713         4.06054 
        2.19054         36.7855         4.03263 
        2.19666         36.5997         4.00503 
         2.2028         36.5022         3.97766 
        2.20893         36.3493         3.95053 
        2.21508         36.2156         3.92363 
        2.22122         36.0512         3.89697 
        2.22736         35.8838         3.87061 
        2.23349         35.7105          3.8445 
        2.23962         35.4891         3.81862 
        2.24577          35.315         3.79296 
         2.2519         35.1654         3.76757 
        2.25802         35.1288         3.74245 
        2.26417         34.8858         3.71749 
        2.27031         34.7097         3.69274 
        2.27644         34.5775         3.66828 
        2.28257          34.415         3.64405 
        2.28872          34.243         3.61999 
        2.29486         34.1325         3.59616 
        2.30099         34.0167         3.57258 
        2.30712         33.8432         3.54921 
        2.31326         33.6484         3.52601 
         2.3194         33.4668         3.50303 
        2.32553         33.3349          3.4803 
        2.33166         33.2006         3.45777 
         2.3378         33.0617         3.43542 
        2.34394         32.9823         3.41326 
        2.35007         32.7669         3.39132 
        2.35619         32.5972          3.3696 
        2.36233         32.4878         3.34803 
        2.36848          32.405         3.32659 
        2.37462         32.1579          3.3054 
        2.38075         32.1224          3.2844 
        2.38689         31.9443         3.26357 
        2.39303         31.7658         3.24293 
        2.39916         31.5938         3.22249 
        2.40529         31.4936         3.20222 
        2.41143         31.3908         3.18212 
        2.41757         31.2218         3.16217 
         2.4237         31.1489         3.14244 
        2.42983         30.9728         3.12288 
        2.43598         30.8545         3.10343 
        2.44211         30.6959         3.08418 
        2.44823         30.6093         3.06513 
        2.45437         30.3989          3.0462 
        2.46052         30.2699         3.02741 
        2.46665          30.146         3.00881 
        2.47279         30.0136         2.99038 
        2.47892         29.9327         2.97208 
        2.48507         29.7704         2.95393 
         2.4912          29.663         2.93596 
