# k  (h/Mpc)    P(k)  (Mpc/h)^3    P_linear(k)  (Mpc/h)^3
     0.00783031         22103.5         22557.3 
       0.013688         26608.3         26370.9 
       0.019231         25239.2         25186.6 
      0.0249154         21251.2         21763.1 
      0.0312784         17188.9         17369.7 
      0.0375637         13794.1         13709.6 
      0.0433917         11188.6         11312.6 
      0.0492413         9819.46         9802.38 
      0.0555754         8655.91         8881.49 
      0.0619321         8409.35         8331.28 
       0.067871         7668.88         7860.63 
      0.0738098         7088.46         7258.62 
      0.0800417         6250.32         6448.78 
      0.0862327         5493.25         5551.74 
      0.0921407         4848.59         4739.08 
      0.0982031         4165.84         4055.61 
       0.104506         3814.27         3556.32 
       0.110769         3496.44         3260.16 
       0.116806         3323.72         3110.48 
       0.122832         3198.22         3025.06 
       0.129052         3001.09         2933.98 
       0.135211         2854.97         2792.22 
       0.141259         2721.12         2589.88 
       0.147318         2527.45         2343.75 
       0.153489         2273.58         2086.15 
       0.159709         2108.93         1857.33 
       0.165845         1996.84         1684.65 
       0.171974          1884.7         1569.36 
       0.178125         1792.91          1500.9 
       0.184229         1714.83         1460.93 
        0.19034         1635.94         1427.55 
       0.196428         1601.02         1383.49 
       0.202534         1539.38         1319.56 
       0.208729         1459.67          1235.7 
       0.214876         1393.13         1142.71 
       0.220989         1332.22         1052.48 
       0.227147         1273.46          973.95 
        0.23329         1215.84         913.269 
       0.239377         1191.67          870.52 
       0.245482         1116.95         840.917 
       0.251667         1111.46          818.12 
       0.257832         1065.88         795.979 
       0.263955         1030.19         769.755 
       0.270079         991.092          737.53 
        0.27624         977.443         700.089 
       0.282372         937.355         660.917 
        0.28843          925.16         623.887 
       0.294538         876.662         591.003 
       0.300721         869.037         563.726 
        0.30691         835.948         542.153 
       0.313033         818.119         525.103 
       0.319153         799.934         510.195 
       0.325316           775.9         495.429 
        0.33145          756.27         479.543 
       0.337538         740.277         462.248 
       0.343633         723.798         443.719 
       0.349808          696.79         424.731 
       0.355968         691.096         406.634 
       0.362074         683.536         390.347 
       0.368217         661.324         376.071 
       0.374374          635.66         363.694 
       0.380519         634.996         352.881 
       0.386598         615.515         343.015 
       0.392688         612.394         333.357 
        0.39888         593.972         323.408 
       0.405048         585.999         313.156 
       0.411186          577.26          302.78 
       0.417313         565.382         292.529 
       0.423458         552.489         282.639 
       0.429607         546.907         273.408 
       0.435692         533.338         265.065 
       0.441815         527.217         257.381 
       0.447964          516.79          250.27 
       0.454126         511.043         243.563 
       0.460267         498.133         237.083 
       0.466387         491.437         230.684 
        0.47254         488.466         224.296 
       0.478662         482.442         217.998 
       0.484765         466.098         211.828 
       0.490885         462.276         205.854 
       0.497035          453.27         200.154 
       0.503198         449.576         194.773 
       0.509342          446.21         189.709 
       0.515458         441.835         184.937 
       0.521598         429.095         180.367 
       0.527764          424.31         175.936 
       0.533884         420.278         171.637 
           0.54         415.211         167.414 
       0.546137         412.288         163.269 
       0.552299         405.965         159.219 
       0.558452         402.541         155.307 
       0.564573         397.601         151.552 
       0.570708         391.454         147.936 
       0.576825         383.059         144.484 
       0.582926          381.98         141.188 
       0.589034         377.647          138.01 
       0.595184         375.328         134.912 
       0.601379          367.72         131.873 
       0.607522         363.587         128.931 
       0.613639         361.567         126.077 
       0.619772         356.207         123.295 
       0.625918         353.673         120.592 
       0.632068         347.789         117.973 
       0.638161         345.867          115.46 
         0.6443          341.24         113.007 
       0.650464         338.596         110.622 
       0.656582         333.857         108.328 
       0.662703         333.836         106.103 
       0.668861         328.927         103.929 
       0.675024         325.622         101.815 
       0.681124         322.371          99.779 
       0.687237         319.803          97.791 
       0.693381          314.82         95.8448 
       0.699536         310.976         93.9464 
       0.705665         309.223         92.1072 
       0.711789         308.267         90.3199 
       0.717957         305.339         88.5702 
        0.72409         303.301         86.8796 
       0.730186         298.893         85.2456 
       0.736317         296.724         83.6466 
       0.742472         293.931         82.0837 
       0.748622         291.824         80.5625 
        0.75476         287.968         79.0828 
       0.760888         285.063         77.6417 
       0.767043         284.607         76.2303 
       0.773185         281.989         74.8565 
       0.779291         278.162         73.5243 
       0.785407         277.376         72.2227 
       0.791564         274.421         70.9448 
       0.797719         272.081         69.6989 
       0.803834           268.6         68.4915 
       0.809972         268.134         67.3089 
       0.816124         266.858         66.1521 
       0.822261         264.516         65.0261 
       0.828378         262.155         63.9301 
       0.834502         259.051         62.8586 
       0.840667         257.594         61.8051 
       0.846816         256.424         60.7787 
       0.852925         254.842         59.7824 
       0.859047         252.512         58.8063 
       0.865192         249.386         57.8491 
       0.871341         247.337         56.9126 
       0.877463         247.543         56.0012 
       0.883569         245.007         55.1123 
       0.889708         242.406         54.2382 
       0.895864         242.086         53.3809 
       0.902008         239.391         52.5442 
       0.908149         237.212         51.7259 
       0.914301         235.252         50.9239 
       0.920448         233.875         50.1398 
       0.926574          231.36          49.375 
       0.932687         231.319         48.6279 
       0.938823         228.508         47.8938 
       0.944975         228.003         47.1732 
       0.951105         226.168         46.4702 
       0.957225         225.078         45.7828 
       0.963368         221.654         45.1071 
       0.969511         220.978         44.4451 
       0.975621         219.442            43.8 
       0.981748         218.092         43.1663 
       0.987916         216.944         42.5411 
        0.99406         215.015         41.9308 
        1.00019         213.493         41.3338 
        1.00632         212.656         40.7491 
        1.01246         210.717         40.1748 
        1.01859         210.677         39.6127 
        1.02471         207.474         39.0621 
        1.03085         206.691         38.5201 
        1.03698         205.256         37.9896 
        1.04314         203.692         37.4669 
        1.04929         202.687         36.9554 
        1.05541         202.011         36.4555 
        1.06154         199.555         35.9637 
        1.06769         199.192         35.4803 
        1.07382         197.483         35.0074 
        1.07993         196.373         34.5443 
        1.08607         196.019         34.0877 
        1.09222         193.886         33.6389 
        1.09836         192.392         33.1987 
        1.10449         191.032          32.767 
        1.11063         189.724         32.3426 
        1.11677         188.981         31.9258 
         1.1229          187.04         31.5172 
        1.12903         186.447         31.1153 
        1.13518         185.422         30.7202 
        1.14131         183.998         30.3323 
        1.14745         183.797         29.9512 
        1.15359          181.89         29.5767 
        1.15973         180.428         29.2085 
        1.16584         179.745         28.8482 
        1.17197          179.58         28.4936 
        1.17811         177.097         28.1438 
        1.18424         176.617          27.801 
        1.19038         175.916         27.4629 
        1.19652         174.181         27.1306 
        1.20267         173.936         26.8038 
        1.20881         172.366         26.4826 
        1.21495         171.379         26.1671 
        1.22108         170.342         25.8568 
         1.2272         169.221         25.5524 
        1.23334         168.989         25.2521 
        1.23949         166.891          24.956 
        1.24562         166.171         24.6656 
        1.25174         165.622         24.3801 
        1.25789         164.756         24.0984 
        1.26402         162.844         23.8217 
        1.27014         162.194         23.5499 
        1.27628         161.122         23.2817 
        1.28244         160.972         23.0171 
        1.28858         159.361          22.757 
        1.29471         158.652         22.5015 
        1.30084         157.553         22.2502 
        1.30697         156.267         22.0024 
        1.31312         155.329          21.758 
        1.31925          154.46         21.5181 
        1.32537         154.229         21.2821 
        1.33151         152.913         21.0488 
        1.33765         151.896         20.8192 
        1.34378         151.249         20.5934 
        1.34992         150.533         20.3709 
        1.35606         150.086         20.1511 
         1.3622         148.331          19.935 
        1.36833         147.688         19.7227 
        1.37445         147.132         19.5135 
        1.38059         145.991         19.3067 
        1.38675         145.484         19.1024 
        1.39288         144.404         18.9019 
        1.39901         143.807         18.7045 
        1.40515         142.734         18.5093 
         1.4113         142.277         18.3171 
        1.41742          140.93         18.1283 
        1.42355          140.54         17.9419 
         1.4297         139.414         17.7575 
        1.43585         138.665         17.5758 
        1.44198         138.451         17.3974 
        1.44809         137.462         17.2218 
        1.45423         136.972         17.0479 
        1.46036         135.669         16.8768 
        1.46649         135.038          16.708 
        1.47263         134.277         16.5414 
        1.47877         133.166         16.3771 
        1.48491         132.303         16.2148 
        1.49104         132.122         16.0551 
        1.49718         130.795         15.8974 
        1.50333         130.087         15.7416 
        1.50947         129.439         15.5882 
         1.5156         128.919         15.4371 
        1.52172         128.284          15.288 
        1.52787         127.232         15.1406 
          1.534         126.764         14.9953 
        1.54013         126.174          14.852 
        1.54627         125.457         14.7104 
        1.55241         124.558         14.5707 
        1.55855         123.861         14.4329 
        1.56467         122.882         14.2973 
         1.5708         122.191         14.1631 
        1.57695         122.066         14.0303 
        1.58308         121.432         13.8996 
        1.58922         120.623         13.7705 
        1.59535         119.892         13.6431 
         1.6015         119.468         13.5171 
        1.60764         118.935         13.3928 
        1.61376         118.074         13.2703 
        1.61989         117.253         13.1494 
        1.62604          116.54         13.0296 
        1.63218         116.343         12.9114 
        1.63831         115.567          12.795 
        1.64444         114.806           12.68 
        1.65059         113.971         12.5661 
        1.65673         113.597         12.4538 
        1.66285         113.144         12.3431 
        1.66898          112.44         12.2337 
        1.67512         111.518         12.1255 
        1.68127         111.175         12.0185 
         1.6874         110.665          11.913 
        1.69353         110.128         11.8089 
        1.69967         109.306         11.7057 
        1.70581         108.563         11.6039 
        1.71193         108.035         11.5036 
        1.71806         107.871         11.4043 
        1.72421         107.203          11.306 
        1.73035         106.757          11.209 
        1.73649         106.008         11.1131 
        1.74262         105.484         11.0184 
        1.74876         104.937         10.9248 
        1.75489         104.237         10.8325 
        1.76101         103.579         10.7412 
        1.76715         103.284         10.6509 
        1.77329          102.55         10.5616 
        1.77943         102.259         10.4732 
        1.78557         101.877         10.3859 
        1.79171         100.856         10.2997 
        1.79785         100.462         10.2144 
        1.80399         99.9168         10.1301 
        1.81012         99.4742         10.0468 
        1.81625         99.0296         9.96453 
        1.82239         98.4672         9.88306 
        1.82853         97.8044         9.80254 
        1.83466         97.4109           9.723 
        1.84078         96.9808         9.64442 
        1.84692         96.1798         9.56659 
        1.85306         95.9346         9.48953 
         1.8592         95.2901         9.41344 
        1.86533         94.8228         9.33822 
        1.87147         94.1935         9.26375 
        1.87761         93.5656         9.19005 
        1.88375         93.3898         9.11725 
        1.88988         92.5974         9.04532 
        1.89601         92.1464         8.97412 
        1.90215         91.7369         8.90364 
        1.90829         91.3106         8.83395 
        1.91442          90.931         8.76501 
        1.92056          90.228         8.69686 
         1.9267           89.86         8.62937 
        1.93284         89.3876         8.56256 
        1.93897          88.783         8.49658 
        1.94509         88.5923         8.43145 
        1.95123         88.0079         8.36683 
        1.95737          87.453         8.30284 
        1.96349         87.0669          8.2397 
        1.96964         86.4984         8.17702 
        1.97578         85.9769         8.11498 
        1.98192         85.7659          8.0537 
        1.98805         85.3219         7.99305 
        1.99419         84.7499         7.93303 
        2.00033         84.4709         7.87359 
        2.00647         84.0133         7.81478 
         2.0126          83.492         7.75668 
        2.01874         83.0469         7.69907 
        2.02488         82.6904         7.64201 
        2.03101         82.1713         7.58563 
        2.03714          81.717         7.52987 
        2.04328         81.2841         7.47461 
        2.04941         80.9368         7.41995 
        2.05554          80.425         7.36588 
        2.06167         80.1334         7.31228 
        2.06781         79.5623          7.2592 
        2.07396         79.3931         7.20658 
        2.08009         78.9737         7.15457 
        2.08622         78.3994         7.10313 
        2.09237         78.1949          7.0521 
        2.09851         77.6983         7.00156 
        2.10464          77.301          6.9516 
        2.11077          76.702         6.90219 
        2.11691         76.5425         6.85315 
        2.12305         76.1603         6.80458 
        2.12918         75.7563         6.75661 
        2.13531         75.2782         6.70909 
        2.14145         74.9997         6.66193 
         2.1476         74.5611         6.61516 
        2.15372         74.1548         6.56907 
        2.15985          73.775         6.52338 
        2.16599         73.4107           6.478 
        2.17213         73.0199          6.4331 
        2.17827         72.4877         6.38863 
         2.1844         72.3048         6.34463 
        2.19054         71.9094         6.30102 
        2.19666         71.4917         6.25789 
         2.2028         71.2342         6.21513 
        2.20893         70.8346         6.17274 
        2.21508         70.4767          6.1307 
        2.22122         70.1489         6.08905 
        2.22736         69.6897         6.04786 
        2.23349          69.401         6.00707 
        2.23962         69.1037         5.96663 
        2.24577         68.8172         5.92653 
         2.2519         68.4694         5.88686 
        2.25802          68.132         5.84761 
        2.26417         67.7924         5.80861 
        2.27031         67.3836         5.76993 
        2.27644         66.9343         5.73172 
        2.28257         66.6864         5.69386 
        2.28872         66.4683         5.65627 
        2.29486         65.9742         5.61902 
        2.30099         65.4817         5.58219 
        2.30712           65.39         5.54567 
        2.31326         64.9569         5.50942 
         2.3194         64.6903         5.47352 
        2.32553         64.4944         5.43799 
        2.33166         64.0426          5.4028 
         2.3378         63.6671         5.36787 
        2.34394         63.4507         5.33324 
        2.35007         63.1608         5.29896 
        2.35619          62.787         5.26503 
        2.36233         62.4726         5.23132 
        2.36848          62.084         5.19783 
        2.37462         61.9198         5.16471 
        2.38075         61.5149         5.13191 
        2.38689         61.2558         5.09936 
        2.39303         60.9541         5.06711 
        2.39916          60.592         5.03516 
        2.40529         60.4272          5.0035 
        2.41143         59.8984         4.97208 
        2.41757         59.7282         4.94092 
         2.4237         59.4499         4.91009 
        2.42983         59.1576         4.87952 
        2.43598         58.8216         4.84913 
        2.44211         58.4751         4.81905 
        2.44823          58.294          4.7893 
        2.45437         58.0295         4.75971 
        2.46052          57.753         4.73035 
        2.46665         57.4851         4.70129 
        2.47279         57.1191         4.67249 
        2.47892         56.8254          4.6439 
        2.48507         56.5543         4.61553 
         2.4912         56.2887         4.58746 
