# k  (h/Mpc)    Pcb(k)  (Mpc/h)^3    Pcb_linear(k)  (Mpc/h)^3
     0.00783031            2869         2901.97 
       0.013688         3390.89         3387.01 
       0.019231         3270.47         3265.85 
      0.0249154         2863.35         2883.82 
      0.0312784         2387.47          2388.9 
      0.0375637         1978.53         1969.97 
      0.0433917         1682.99         1686.16 
      0.0492413         1496.63         1494.21 
      0.0555754         1347.85         1357.45 
      0.0619321          1261.4         1253.44 
       0.067871         1151.32         1157.29 
      0.0738098         1043.71         1049.35 
      0.0800417         918.126         925.857 
      0.0862327         804.057         805.382 
      0.0921407         708.314          705.13 
      0.0982031         625.261         624.833 
       0.104506         574.386         566.363 
       0.110769         534.284          528.16 
       0.116806         504.103         502.025 
       0.122832         482.677         478.457 
       0.129052         450.884         450.884 
       0.135211         418.968         418.277 
       0.141259         387.281         382.772 
       0.147318         354.204         347.373 
       0.153489         320.751         315.239 
       0.159709         296.147         289.221 
       0.165845         279.696         270.175 
       0.171974         263.023         256.441 
       0.178125          252.64         245.777 
       0.184229         243.085         236.023 
        0.19034         228.732         225.441 
       0.196428         219.663         213.446 
       0.202534         209.002         200.301 
       0.208729         194.592         186.813 
       0.214876         181.318         174.372 
       0.220989         172.696         163.694 
       0.227147         162.304         154.899 
        0.23329         155.244         147.854 
       0.239377         150.259         142.033 
       0.245482          142.37          136.72 
       0.251667         138.955         131.347 
       0.257832         133.387         125.729 
       0.263955         127.535          119.89 
       0.270079         121.737             114 
        0.27624         117.614         108.316 
       0.282372         112.519         103.136 
        0.28843         107.396         98.6125 
       0.294538         102.961         94.6297 
       0.300721          100.53         91.0749 
        0.30691         96.1185         87.8164 
       0.313033         93.0936         84.7304 
       0.319153         88.7344         81.6723 
       0.325316         87.0462         78.5891 
        0.33145         83.4792          75.541 
       0.337538         81.1598         72.6045 
       0.343633         78.0137          69.816 
       0.349808         75.5503         67.1967 
       0.355968         73.3921         64.7975 
       0.362074         70.9778         62.6129 
       0.368217         68.7991         60.5666 
       0.374374         66.6739         58.6194 
       0.380519          64.991         56.7443 
       0.386598         63.1362          54.932 
       0.392688         61.7183         53.1582 
        0.39888         59.7975         51.4072 
       0.405048         58.2335         49.7301 
       0.411186          56.751         48.1431 
       0.417313         54.9302         46.6469 
       0.423458         53.4857         45.2304 
       0.429607         52.0483         43.8905 
       0.435692         50.3561         42.6277 
       0.441815         49.5432         41.4065 
       0.447964         48.6351         40.2219 
       0.454126         46.5887         39.0726 
       0.460267         45.8286         37.9629 
       0.466387         44.5275         36.8947 
        0.47254         43.7488         35.8621 
       0.478662         42.9995         34.8777 
       0.484765         41.6605         33.9377 
       0.490885         40.7313         33.0354 
       0.497035          40.184         32.1661 
       0.503198         39.0608         31.3285 
       0.509342         38.0521         30.5224 
       0.515458          37.265         29.7464 
       0.521598         36.6283         28.9928 
       0.527764         35.8508         28.2609 
       0.533884         35.2412         27.5587 
           0.54         34.4222          26.881 
       0.546137         33.9007          26.225 
       0.552299         33.3369           25.59 
       0.558452         32.3156         24.9787 
       0.564573          31.797         24.3912 
       0.570708         31.2818         23.8215 
       0.576825         30.5535         23.2716 
       0.582926         29.9268         22.7404 
       0.589034         29.1739         22.2251 
       0.595184         28.8014         21.7221 
       0.601379         28.2456         21.2313 
       0.607522         27.6886         20.7596 
       0.613639         27.4314         20.3045 
       0.619772         26.7213         19.8624 
       0.625918         26.5496         19.4331 
       0.632068         26.1254         19.0166 
       0.638161         25.5691         18.6162 
         0.6443         25.0677         18.2245 
       0.650464         24.6203         17.8427 
       0.656582         24.4518         17.4745 
       0.662703         23.9672         17.1166 
       0.668861         23.5223         16.7667 
       0.675024         23.1123         16.4265 
       0.681124         22.7094         16.0994 
       0.687237          22.317         15.7807 
       0.693381         22.1232         15.4692 
       0.699536         21.5552         15.1658 
       0.705665         21.4954         14.8718 
       0.711789         20.9951          14.586 
       0.717957         20.7027         14.3058 
        0.72409         20.4078         14.0346 
       0.730186         20.1095         13.7721 
       0.736317         19.8923          13.515 
       0.742472         19.5426         13.2636 
       0.748622         19.3438         13.0188 
        0.75476         18.9959         12.7809 
       0.760888         18.7047         12.5494 
       0.767043         18.4765         12.3227 
       0.773185         18.1538         12.1022 
       0.779291         18.0521         11.8884 
       0.785407         17.8419         11.6794 
       0.791564         17.5175         11.4743 
       0.797719         17.1164         11.2742 
       0.803834         17.0934         11.0802 
       0.809972         16.9287         10.8901 
       0.816124         16.5454         10.7042 
       0.822261         16.3696         10.5231 
       0.828378         16.2122         10.3467 
       0.834502         16.0542         10.1743 
       0.840667         15.8181         10.0048 
       0.846816         15.5301         9.83961 
       0.852925         15.3839         9.67924 
       0.859047         15.2126         9.52214 
       0.865192         15.0601         9.36804 
       0.871341         14.9363         9.21728 
       0.877463         14.6698         9.07055 
       0.883569         14.4843          8.9274 
       0.889708         14.2633         8.78664 
       0.895864         14.1398         8.64857 
       0.902008         14.0355         8.51378 
       0.908149         13.8784         8.38197 
       0.914301         13.7844         8.25275 
       0.920448         13.5234          8.1264 
       0.926574         13.3958         8.00316 
       0.932687         13.2432         7.88276 
       0.938823         13.0715         7.76442 
       0.944975         12.9285         7.64826 
       0.951105         12.8049         7.53491 
       0.957225         12.6885         7.42407 
       0.963368         12.5782         7.31511 
       0.969511         12.4537         7.20835 
       0.975621         12.3309         7.10431 
       0.981748         12.1599         7.00208 
       0.987916         12.0862         6.90123 
        0.99406         11.9167         6.80277 
        1.00019          11.748         6.70644 
        1.00632         11.7094         6.61208 
        1.01246         11.5956         6.51941 
        1.01859         11.4048         6.42868 
        1.02471         11.3599         6.33981 
        1.03085         11.2423         6.25232 
        1.03698         11.0642         6.16669 
        1.04314         11.0032          6.0823 
        1.04929         10.8665         5.99971 
        1.05541         10.7433         5.91899 
        1.06154          10.678         5.83958 
        1.06769         10.6218         5.76151 
        1.07382         10.4726         5.68513 
        1.07993          10.388         5.61032 
        1.08607         10.2876         5.53655 
        1.09222         10.2113         5.46405 
        1.09836         10.0843         5.39293 
        1.10449         10.0107         5.32317 
        1.11063         9.89558         5.25458 
        1.11677         9.85432         5.18722 
         1.1229         9.78966         5.12118 
        1.12903         9.65854         5.05623 
        1.13518         9.54066         4.99235 
        1.14131         9.49957         4.92963 
        1.14745         9.40891         4.86802 
        1.15359         9.34629         4.80746 
        1.15973         9.25175         4.74792 
        1.16584         9.12227         4.68965 
        1.17197         9.07873         4.63228 
        1.17811         9.02226         4.57571 
        1.18424         8.93771         4.52024 
        1.19038         8.89915         4.46555 
        1.19652         8.79815         4.41178 
        1.20267         8.71514         4.35891 
        1.20881         8.68331         4.30692 
        1.21495         8.61413         4.25586 
        1.22108         8.50728         4.20565 
         1.2272         8.44583         4.15637 
        1.23334         8.37034         4.10777 
        1.23949         8.29393         4.05984 
        1.24562          8.2576         4.01281 
        1.25174         8.19815         3.96661 
        1.25789         8.12739         3.92099 
        1.26402         8.09363         3.87618 
        1.27014         8.01583         3.83218 
        1.27628         7.91726         3.78874 
        1.28244         7.85638          3.7459 
        1.28858         7.85327         3.70378 
        1.29471         7.76171          3.6624 
        1.30084         7.68499          3.6217 
        1.30697         7.66768         3.58156 
        1.31312         7.55981         3.54197 
        1.31925         7.50466         3.50311 
        1.32537         7.46896         3.46487 
        1.33151         7.42892         3.42707 
        1.33765         7.36058         3.38986 
        1.34378         7.30646         3.35328 
        1.34992         7.24775         3.31721 
        1.35606         7.20686          3.2816 
         1.3622         7.16474         3.24658 
        1.36833         7.09136         3.21215 
        1.37445         7.05607         3.17824 
        1.38059         7.02274         3.14472 
        1.38675         6.95361          3.1116 
        1.39288         6.93062          3.0791 
        1.39901         6.85096         3.04708 
        1.40515         6.82142         3.01544 
         1.4113         6.77147         2.98427 
        1.41742         6.72279         2.95366 
        1.42355         6.66636         2.92342 
         1.4297         6.63921         2.89352 
        1.43585         6.60465         2.86405 
        1.44198         6.56848          2.8351 
        1.44809         6.51392         2.80661 
        1.45423         6.46372         2.77841 
        1.46036         6.41578         2.75065 
        1.46649         6.38874         2.72326 
        1.47263         6.32712         2.69623 
        1.47877         6.28964         2.66957 
        1.48491         6.26005         2.64324 
        1.49104         6.21703         2.61732 
        1.49718         6.18209         2.59173 
        1.50333         6.14608         2.56644 
        1.50947         6.09465         2.54154 
         1.5156         6.06515         2.51701 
        1.52172         6.03623         2.49281 
        1.52787         5.99095         2.46888 
          1.534         5.94607         2.44529 
        1.54013         5.91744         2.42204 
        1.54627         5.86809         2.39904 
        1.55241          5.8386         2.37635 
        1.55855         5.81476         2.35398 
        1.56467         5.76836         2.33196 
         1.5708         5.75126         2.31016 
        1.57695         5.70105         2.28861 
        1.58308         5.65648         2.26739 
        1.58922         5.64429         2.24642 
        1.59535         5.61738         2.22572 
         1.6015          5.5642         2.20526 
        1.60764         5.52573         2.18506 
        1.61376         5.51148         2.16518 
        1.61989         5.47517         2.14553 
        1.62604         5.44339         2.12608 
        1.63218         5.42689         2.10688 
        1.63831         5.38659         2.08797 
        1.64444         5.35829         2.06928 
        1.65059         5.30284         2.05077 
        1.65673         5.30788         2.03252 
        1.66285         5.25099         2.01453 
        1.66898         5.22556         1.99676 
        1.67512         5.20482         1.97918 
        1.68127         5.16986         1.96178 
         1.6874         5.15087         1.94464 
        1.69353         5.10626         1.92771 
        1.69967         5.09252         1.91094 
        1.70581         5.06789         1.89438 
        1.71193         5.02808         1.87809 
        1.71806         5.01041         1.86194 
        1.72421         4.97893         1.84596 
        1.73035          4.9614         1.83019 
        1.73649         4.93216          1.8146 
        1.74262          4.8999          1.7992 
        1.74876         4.88388         1.78398 
        1.75489         4.85723         1.76897 
        1.76101         4.82084         1.75413 
        1.76715         4.80734         1.73944 
        1.77329          4.7739          1.7249 
        1.77943         4.74268         1.71053 
        1.78557         4.73289         1.69634 
        1.79171         4.70555         1.68231 
        1.79785         4.67679         1.66843 
        1.80399         4.65124         1.65472 
        1.81012         4.63038         1.64118 
        1.81625         4.60759         1.62779 
        1.82239         4.58889         1.61454 
        1.82853         4.55706         1.60144 
        1.83466         4.53766          1.5885 
        1.84078         4.52029         1.57571 
        1.84692         4.50712         1.56305 
        1.85306         4.47134         1.55051 
         1.8592         4.44451         1.53813 
        1.86533         4.42717         1.52589 
        1.87147         4.40793         1.51377 
        1.87761         4.38678         1.50178 
        1.88375         4.35725         1.48993 
        1.88988         4.34754         1.47823 
        1.89601         4.32287         1.46664 
        1.90215         4.30102         1.45517 
        1.90829         4.27714         1.44383 
        1.91442         4.25792         1.43261 
        1.92056         4.24396         1.42151 
         1.9267         4.21483         1.41053 
        1.93284         4.19681         1.39965 
        1.93897         4.17446         1.38891 
        1.94509         4.16487          1.3783 
        1.95123         4.14138         1.36778 
        1.95737         4.11335         1.35737 
        1.96349         4.10446         1.34708 
        1.96964         4.08403         1.33688 
        1.97578         4.05765         1.32677 
        1.98192         4.04851          1.3168 
        1.98805         4.02937         1.30692 
        1.99419         4.00516         1.29714 
        2.00033          3.9978         1.28746 
        2.00647         3.97281         1.27789 
         2.0126         3.96043         1.26842 
        2.01874         3.93626         1.25904 
        2.02488         3.92417         1.24974 
        2.03101         3.89849         1.24056 
        2.03714         3.87696         1.23148 
        2.04328         3.86457         1.22248 
        2.04941         3.84194         1.21357 
        2.05554         3.83154         1.20476 
        2.06167         3.81184         1.19603 
        2.06781          3.7994         1.18738 
        2.07396         3.78902         1.17881 
        2.08009         3.76808         1.17033 
        2.08622         3.74724         1.16195 
        2.09237          3.7292         1.15364 
        2.09851         3.72383          1.1454 
        2.10464         3.70539         1.13726 
        2.11077         3.68003         1.12921 
        2.11691         3.66523         1.12122 
        2.12305         3.65551          1.1133 
        2.12918         3.64522         1.10548 
        2.13531         3.62787         1.09774 
        2.14145         3.61107         1.09005 
         2.1476         3.59275         1.08243 
        2.15372         3.57638         1.07492 
        2.15985         3.57626         1.06747 
        2.16599         3.54515         1.06007 
        2.17213         3.53442         1.05275 
        2.17827         3.52623          1.0455 
         2.1844         3.50882         1.03833 
        2.19054         3.48743         1.03122 
        2.19666         3.47498         1.02419 
         2.2028         3.46196         1.01722 
        2.20893          3.4495         1.01031 
        2.21508          3.4341         1.00345 
        2.22122         3.41775        0.996663 
        2.22736         3.40684        0.989947 
        2.23349         3.39881        0.983296 
        2.23962         3.38322        0.976702 
        2.24577         3.36853        0.970163 
         2.2519         3.36119        0.963693 
        2.25802         3.34049        0.957293 
        2.26417         3.33151        0.950933 
        2.27031         3.31466        0.944625 
        2.27644         3.29798        0.938393 
        2.28257         3.28218        0.932218 
        2.28872         3.28196        0.926087 
        2.29486         3.26542        0.920012 
        2.30099         3.24786        0.914005 
        2.30712         3.23617        0.908048 
        2.31326         3.21953        0.902135 
         2.3194         3.21106        0.896278 
        2.32553         3.20387        0.890483 
        2.33166         3.19226        0.884742 
         2.3378         3.17592        0.879044 
        2.34394         3.16504        0.873394 
        2.35007         3.14979        0.867802 
        2.35619         3.14174        0.862266 
        2.36233         3.12867        0.856765 
        2.36848         3.11439        0.851301 
        2.37462         3.11084        0.845897 
        2.38075         3.09411        0.840544 
        2.38689         3.08794        0.835234 
        2.39303         3.06949         0.82997 
        2.39916         3.05974        0.824757 
        2.40529         3.04873        0.819589 
        2.41143           3.037        0.814463 
        2.41757         3.03335        0.809377 
         2.4237         3.01969        0.804345 
        2.42983         3.00096        0.799356 
        2.43598         2.99282        0.794396 
        2.44211         2.97951        0.789487 
        2.44823         2.97145         0.78463 
        2.45437         2.96044        0.779801 
        2.46052         2.95309        0.775009 
        2.46665         2.94195        0.770265 
        2.47279         2.92681        0.765563 
        2.47892         2.91762        0.760897 
        2.48507          2.9098        0.756266 
         2.4912         2.89517        0.751682 
