# k  (h/Mpc)    Pcb(k)  (Mpc/h)^3    Pcb_linear(k)  (Mpc/h)^3
     0.00783031         3751.68         3775.74 
       0.013688         4582.89         4653.12 
       0.019231         4674.64         4709.37 
      0.0249154         4366.77         4359.06 
      0.0312784         3774.74         3784.98 
      0.0375637         3214.32         3234.53 
      0.0433917         2827.07         2824.83 
      0.0492413          2515.3         2525.12 
      0.0555754         2304.45         2299.99 
      0.0619321         2099.08         2132.21 
       0.067871         1977.14         1988.93 
      0.0738098         1830.01         1835.35 
      0.0800417         1658.86         1657.59 
      0.0862327         1471.56         1474.82 
      0.0921407         1310.78         1311.12 
      0.0982031         1178.23         1168.31 
       0.104506         1052.93          1054.1 
       0.110769         975.322          973.41 
       0.116806         930.844         918.485 
       0.122832         878.359         875.378 
       0.129052         838.618         832.718 
       0.135211         798.139         785.387 
       0.141259         739.441         732.231 
       0.147318         677.256         675.002 
       0.153489         626.095         617.729 
       0.159709         582.692         566.201 
       0.165845         532.029         524.586 
       0.171974         512.672         492.687 
       0.178125         488.682         468.663 
       0.184229         461.864         449.732 
        0.19034          449.58         432.442 
       0.196428         432.021         414.365 
       0.202534         404.027         394.189 
       0.208729         389.857          371.86 
       0.214876         370.674         349.126 
       0.220989          343.19         327.566 
       0.227147         331.681         308.251 
        0.23329         316.935         292.044 
       0.239377         306.794         278.909 
       0.245482         292.248         267.994 
       0.251667           280.2         258.273 
       0.257832         275.929         248.964 
       0.263955         261.096         239.458 
       0.270079         250.914         229.462 
        0.27624         239.334         219.075 
       0.282372         231.025         208.827 
        0.28843          227.14         199.233 
       0.294538         216.077         190.446 
       0.300721         206.766         182.596 
        0.30691         202.879         175.725 
       0.313033         194.445         169.669 
       0.319153         190.969         164.063 
       0.325316         183.938         158.601 
        0.33145          178.23         153.181 
       0.337538         172.365          147.76 
       0.343633         166.972         142.355 
       0.349808         161.528         137.011 
       0.355968         156.947         131.946 
       0.362074         153.518         127.271 
       0.368217         149.726         122.954 
       0.374374         146.109          118.98 
       0.380519         139.935         115.297 
       0.386598         136.749          111.85 
       0.392688         132.806         108.511 
        0.39888         130.309         105.189 
       0.405048         127.279         101.936 
       0.411186         124.647         98.7648 
       0.417313         121.328         95.6997 
       0.423458         118.123         92.7571 
       0.429607         115.792         89.9635 
       0.435692          113.82         87.3586 
       0.441815         110.139         84.8853 
       0.447964          106.84         82.5267 
       0.454126         104.891         80.2658 
       0.460267         103.974         78.0926 
       0.466387         101.362         75.9874 
        0.47254         100.087         73.9261 
       0.478662         96.6248         71.9349 
       0.484765         95.0429         70.0136 
       0.490885         92.6812         68.1563 
       0.497035         91.8262         66.3657 
       0.503198          89.653         64.6506 
       0.509342         87.3433         63.0132 
       0.515458         86.2438         61.4476 
       0.521598         84.1253          59.933 
       0.527764         83.1355         58.4635 
       0.533884           82.17         57.0499 
           0.54         80.0678         55.6782 
       0.546137          77.983         54.3415 
       0.552299         76.7524         53.0414 
       0.558452         75.2693         51.7869 
       0.564573         74.8819         50.5815 
       0.570708         72.6637         49.4148 
       0.576825         71.9238         48.2911 
       0.582926         70.9896         47.2081 
       0.589034         69.6649          46.159 
       0.595184         68.7459         45.1356 
       0.601379         66.9901         44.1355 
       0.607522         65.9611         43.1721 
       0.613639         65.2871         42.2401 
       0.619772         64.0711         41.3328 
       0.625918         63.1756         40.4506 
       0.632068         62.4111         39.5946 
       0.638161         61.2143         38.7722 
         0.6443         60.6438         37.9681 
       0.650464         59.2751         37.1844 
       0.656582         58.9925         36.4289 
       0.662703         58.2151         35.6942 
       0.668861         56.8316         34.9758 
       0.675024         56.5359         34.2768 
       0.681124         55.8331         33.6039 
       0.687237         54.7037         32.9479 
       0.693381         54.0986         32.3063 
       0.699536         53.6139         31.6809 
       0.705665         52.7154         31.0748 
       0.711789         51.9208         30.4853 
       0.717957         51.1288         29.9073 
        0.72409         50.6358         29.3477 
       0.730186         50.3429         28.8061 
       0.736317         49.4006         28.2754 
       0.742472         48.8381         27.7563 
       0.748622         48.1019         27.2508 
        0.75476         47.2941         26.7592 
       0.760888         47.2196         26.2805 
       0.767043          46.311         25.8117 
       0.773185         45.8395         25.3554 
       0.779291         45.2698         24.9128 
       0.785407         44.6233         24.4803 
       0.791564         44.5947         24.0553 
       0.797719         43.7695         23.6408 
       0.803834         43.4416         23.2388 
       0.809972         42.8406         22.8447 
       0.816124         42.4031         22.4591 
       0.822261         41.8817         22.0834 
       0.828378         41.6301         21.7176 
       0.834502         41.1294         21.3598 
       0.840667         40.7719         21.0079 
       0.846816         40.0785         20.6649 
       0.852925         39.8822         20.3318 
       0.859047         39.6416         20.0054 
       0.865192         38.9921         19.6852 
       0.871341         38.5488         19.3718 
       0.877463         38.2192         19.0667 
       0.883569         38.0544         18.7691 
       0.889708         37.5775         18.4763 
       0.895864         37.1565          18.189 
       0.902008         36.7663         17.9085 
       0.908149         36.4314         17.6341 
       0.914301         36.1739         17.3651 
       0.920448         35.8169         17.1019 
       0.926574         35.3204         16.8452 
       0.932687         35.0438         16.5944 
       0.938823         34.6332         16.3478 
       0.944975         34.3497         16.1056 
       0.951105         34.0797         15.8693 
       0.957225          33.861         15.6382 
       0.963368         33.4463         15.4109 
       0.969511         33.1742         15.1882 
       0.975621         32.9132         14.9711 
       0.981748         32.5408         14.7577 
       0.987916         32.3376         14.5472 
        0.99406          31.956         14.3416 
        1.00019         31.7646         14.1405 
        1.00632         31.5078         13.9433 
        1.01246         31.2361         13.7497 
        1.01859         30.9346         13.5601 
        1.02471         30.6576         13.3744 
        1.03085         30.5331         13.1915 
        1.03698         30.2963         13.0124 
        1.04314         30.0041         12.8359 
        1.04929           29.66         12.6631 
        1.05541         29.5653         12.4943 
        1.06154         29.3665         12.3281 
        1.06769         28.9501         12.1647 
        1.07382         28.7996         12.0048 
        1.07993         28.5469         11.8482 
        1.08607         28.3587         11.6937 
        1.09222         28.1478         11.5418 
        1.09836         27.8761         11.3929 
        1.10449          27.761         11.2467 
        1.11063         27.5152          11.103 
        1.11677         27.4544         10.9618 
         1.1229         27.1581         10.8234 
        1.12903         26.9416         10.6872 
        1.13518         26.8237         10.5533 
        1.14131         26.5958         10.4218 
        1.14745         26.2951         10.2926 
        1.15359         26.0711         10.1656 
        1.15973         25.9378         10.0406 
        1.16584         25.7468         9.91838 
        1.17197          25.461         9.79801 
        1.17811         25.3655         9.67927 
        1.18424         25.1028         9.56286 
        1.19038         25.0301         9.44803 
        1.19652         24.7977         9.33515 
        1.20267         24.6928         9.22413 
        1.20881         24.4758         9.11494 
        1.21495         24.3429          9.0077 
        1.22108         24.2702         8.90222 
         1.2272         24.0754         8.79869 
        1.23334         23.9131         8.69657 
        1.23949         23.7195         8.59584 
        1.24562         23.4859         8.49699 
        1.25174         23.4147         8.39986 
        1.25789         23.3015         8.30396 
        1.26402         23.1539         8.20973 
        1.27014         23.0115          8.1172 
        1.27628         22.7799         8.02583 
        1.28244         22.7727         7.93569 
        1.28858         22.5271         7.84707 
        1.29471         22.3494         7.76001 
        1.30084         22.2126         7.67435 
        1.30697         22.1196         7.58986 
        1.31312         21.9385         7.50653 
        1.31925         21.8094         7.42472 
        1.32537         21.6516         7.34422 
        1.33151         21.5168         7.26462 
        1.33765         21.4741         7.18626 
        1.34378         21.3348         7.10921 
        1.34992         21.1954         7.03325 
        1.35606         21.0179         6.95823 
         1.3622           20.88         6.88445 
        1.36833         20.8258         6.81191 
        1.37445         20.6875         6.74046 
        1.38059         20.5617         6.66982 
        1.38675         20.4193         6.60003 
        1.39288         20.2866         6.53152 
        1.39901         20.1754         6.46401 
        1.40515         20.0869         6.39731 
         1.4113         19.9822         6.33159 
        1.41742          19.885         6.26704 
        1.42355         19.7178         6.20327 
         1.4297         19.6066         6.14021 
        1.43585         19.5058         6.07805 
        1.44198         19.4468         6.01699 
        1.44809         19.3197         5.95689 
        1.45423         19.2015         5.89739 
        1.46036         19.0962         5.83881 
        1.46649         18.9838         5.78102 
        1.47263         18.8904         5.72396 
        1.47877          18.803         5.66771 
        1.48491         18.6955         5.61212 
        1.49104         18.5768          5.5574 
        1.49718         18.5094         5.50337 
        1.50333         18.4266         5.44998 
        1.50947         18.3253         5.39741 
         1.5156         18.2159         5.34561 
        1.52172         18.0953          5.2945 
        1.52787         18.0389         5.24395 
          1.534          17.954         5.19413 
        1.54013         17.8732         5.14501 
        1.54627         17.7245         5.09643 
        1.55241         17.6207         5.04848 
        1.55855         17.5574         5.00122 
        1.56467         17.5158         4.95469 
         1.5708         17.4146         4.90862 
        1.57695         17.3233         4.86307 
        1.58308         17.1838         4.81821 
        1.58922         17.1199         4.77388 
        1.59535         17.0398         4.73012 
         1.6015          16.915         4.68686 
        1.60764         16.8637         4.64416 
        1.61376         16.8111         4.60211 
        1.61989         16.6748         4.56055 
        1.62604         16.6323         4.51941 
        1.63218          16.554          4.4788 
        1.63831         16.4341         4.43879 
        1.64444           16.36         4.39926 
        1.65059          16.285         4.36011 
        1.65673         16.2382         4.32149 
        1.66285         16.1093         4.28344 
        1.66898         16.0893         4.24584 
        1.67512         16.0355         4.20862 
        1.68127         15.9182         4.17181 
         1.6874         15.8738         4.13553 
        1.69353         15.7226          4.0997 
        1.69967         15.6794         4.06421 
        1.70581         15.6295         4.02916 
        1.71193          15.521         3.99466 
        1.71806         15.4808         3.96049 
        1.72421         15.4036         3.92665 
        1.73035          15.323         3.89325 
        1.73649         15.2755         3.86025 
        1.74262         15.1626         3.82765 
        1.74876         15.1215         3.79541 
        1.75489         15.0691         3.76361 
        1.76101         14.9604         3.73219 
        1.76715         14.9287         3.70108 
        1.77329         14.8406         3.67029 
        1.77943         14.7644         3.63984 
        1.78557         14.7372         3.60978 
        1.79171          14.631         3.58005 
        1.79785         14.5883         3.55065 
        1.80399         14.5008         3.52159 
        1.81012         14.4678          3.4929 
        1.81625          14.378         3.46454 
        1.82239         14.3152         3.43645 
        1.82853         14.2532         3.40868 
        1.83466         14.1655         3.38126 
        1.84078         14.1394         3.35416 
        1.84692         14.1202         3.32731 
        1.85306          14.035         3.30073 
         1.8592         13.9775         3.27448 
        1.86533         13.8673         3.24853 
        1.87147         13.8245         3.22284 
        1.87761         13.7769         3.19741 
        1.88375         13.7402         3.17228 
        1.88988         13.6279         3.14746 
        1.89601         13.6117         3.12288 
        1.90215          13.521         3.09855 
        1.90829         13.4554         3.07449 
        1.91442         13.3882         3.05069 
        1.92056          13.395         3.02716 
         1.9267         13.3254         3.00385 
        1.93284         13.3028         2.98078 
        1.93897         13.2067         2.95799 
        1.94509         13.1538         2.93549 
        1.95123         13.0926         2.91317 
        1.95737         13.0568         2.89107 
        1.96349         12.9703         2.86925 
        1.96964         12.9464         2.84759 
        1.97578         12.9036         2.82615 
        1.98192         12.8449         2.80498 
        1.98805         12.7657         2.78402 
        1.99419         12.7303         2.76327 
        2.00033          12.687         2.74272 
        2.00647         12.6174         2.72239 
         2.0126          12.585          2.7023 
        2.01874         12.5114         2.68239 
        2.02488         12.4487         2.66265 
        2.03101         12.4358         2.64316 
        2.03714         12.3672         2.62387 
        2.04328         12.3073         2.60476 
        2.04941         12.2509         2.58585 
        2.05554         12.2388         2.56715 
        2.06167         12.1905         2.54861 
        2.06781         12.1316         2.53024 
        2.07396          12.115         2.51204 
        2.08009         12.0101         2.49404 
        2.08622         12.0043         2.47624 
        2.09237         11.9627         2.45858 
        2.09851         11.8814         2.44108 
        2.10464         11.8646         2.42379 
        2.11077          11.786         2.40669 
        2.11691         11.7725         2.38971 
        2.12305         11.7072          2.3729 
        2.12918         11.6353         2.35629 
        2.13531         11.6194         2.33984 
        2.14145         11.5646          2.3235 
         2.1476         11.5204         2.30731 
        2.15372         11.4984         2.29135 
        2.15985         11.4433         2.27552 
        2.16599          11.403          2.2598 
        2.17213         11.3895         2.24425 
        2.17827         11.3121         2.22884 
         2.1844         11.2755          2.2136 
        2.19054         11.2508         2.19849 
        2.19666         11.2051         2.18354 
         2.2028         11.1689         2.16872 
        2.20893         11.1002         2.15403 
        2.21508         11.0817         2.13947 
        2.22122         11.0078         2.12503 
        2.22736         10.9904         2.11075 
        2.23349         10.9473         2.09661 
        2.23962         10.9218         2.08259 
        2.24577         10.8862         2.06869 
         2.2519         10.8448         2.05493 
        2.25802         10.7572         2.04133 
        2.26417         10.7729          2.0278 
        2.27031         10.7286         2.01439 
        2.27644         10.6995         2.00114 
        2.28257         10.6139         1.98801 
        2.28872         10.6059         1.97497 
        2.29486         10.5671         1.96205 
        2.30099          10.533         1.94927 
        2.30712         10.4584          1.9366 
        2.31326         10.4246         1.92403 
         2.3194         10.3984         1.91157 
        2.32553          10.364         1.89924 
        2.33166         10.3174         1.88703 
         2.3378          10.294         1.87491 
        2.34394         10.2542         1.86289 
        2.35007         10.2236           1.851 
        2.35619         10.1802         1.83922 
        2.36233         10.1247         1.82752 
        2.36848          10.098         1.81589 
        2.37462         10.0655         1.80439 
        2.38075         10.0358           1.793 
        2.38689         10.0124         1.78171 
        2.39303          9.9512         1.77051 
        2.39916         9.94341         1.75941 
        2.40529         9.91021         1.74842 
        2.41143         9.85672         1.73751 
        2.41757         9.81313         1.72669 
         2.4237          9.7995         1.71598 
        2.42983         9.76198         1.70536 
        2.43598         9.72721         1.69481 
        2.44211         9.68742         1.68436 
        2.44823         9.65906         1.67402 
        2.45437         9.62131         1.66374 
        2.46052         9.61664         1.65354 
        2.46665         9.57152         1.64345 
        2.47279         9.52943         1.63344 
        2.47892         9.48662         1.62351 
        2.48507         9.46476         1.61365 
         2.4912         9.44295         1.60389 
