# k  (h/Mpc)    Pcb(k)  (Mpc/h)^3    Pcb_linear(k)  (Mpc/h)^3
     0.00783031         16917.5         17020.3 
       0.013688           19201         19712.6 
       0.019231         18554.1         18831.8 
      0.0249154         16512.3         16430.1 
      0.0312784           13313         13397.2 
      0.0375637         10739.7           10877 
      0.0433917         9201.07         9205.32 
      0.0492413         8053.71         8109.42 
      0.0555754         7375.67         7367.12 
      0.0619321         6632.54         6831.33 
       0.067871         6245.02         6335.67 
      0.0738098         5732.57         5757.95 
      0.0800417         5084.56         5071.65 
      0.0862327         4396.07         4384.36 
      0.0921407          3869.9         3804.56 
      0.0982031         3466.96         3339.37 
       0.104506         3078.42          3005.8 
       0.110769         2883.95         2798.05 
       0.116806         2781.93         2667.77 
       0.122832         2633.31         2557.46 
       0.129052         2485.26         2425.12 
       0.135211         2378.78         2258.46 
       0.141259         2162.72         2066.93 
       0.147318         1966.46         1868.62 
       0.153489         1813.57         1684.26 
       0.159709          1716.7         1533.67 
       0.165845         1568.83         1424.76 
       0.171974         1531.88         1349.69 
       0.178125         1479.94         1295.91 
       0.184229         1374.36         1249.93 
        0.19034         1348.89         1199.89 
       0.196428         1301.22         1140.35 
       0.202534         1207.05         1071.53 
       0.208729         1176.76         997.762 
       0.214876         1112.39         927.654 
       0.220989         1045.39          866.61 
       0.227147         1014.34         816.592 
        0.23329         972.719         777.693 
       0.239377          964.55         747.167 
       0.245482         915.143           720.7 
       0.251667         881.525         694.506 
       0.257832         866.083         666.643 
       0.263955         820.942         636.651 
       0.270079         791.505         605.304 
        0.27624         757.634          574.14 
       0.282372         743.261         545.281 
        0.28843         731.615         520.005 
       0.294538         694.624         498.071 
       0.300721         678.094         479.037 
        0.30691           662.7         462.146 
       0.313033         633.467         446.499 
       0.319153         624.957          431.04 
       0.325316         614.675         415.246 
        0.33145         599.162         399.292 
       0.337538         576.865         383.594 
       0.343633          561.91         368.467 
       0.349808          548.24         354.151 
       0.355968          537.93         341.106 
       0.362074         517.743         329.359 
       0.368217         515.314         318.556 
       0.374374         506.722         308.427 
       0.380519         486.189         298.744 
       0.386598         481.492         289.385 
       0.392688         468.843         280.137 
        0.39888         457.549          270.91 
       0.405048         447.305         261.981 
       0.411186         446.689         253.469 
       0.417313         440.744         245.439 
       0.423458         428.521          237.87 
       0.429607         415.564         230.755 
       0.435692         410.199         224.109 
       0.441815         402.448         217.724 
       0.447964         394.599         211.541 
       0.454126         390.114         205.533 
       0.460267          383.61         199.712 
       0.466387         375.356         194.076 
        0.47254         370.898         188.601 
       0.478662         363.177         183.372 
       0.484765         357.985         178.384 
       0.490885         354.662         173.603 
       0.497035         346.621         169.011 
       0.503198         346.131         164.605 
       0.509342           338.6         160.377 
       0.515458          332.05         156.306 
       0.521598         328.018         152.348 
       0.527764         322.606         148.499 
       0.533884         319.652         144.799 
           0.54         315.826         141.223 
       0.546137         309.165         137.756 
       0.552299          307.74         134.402 
       0.558452         302.487         131.177 
       0.564573         300.858         128.083 
       0.570708         295.418         125.088 
       0.576825         290.285         122.198 
       0.582926         288.923         119.406 
       0.589034         283.506         116.696 
       0.595184         281.714         114.051 
       0.601379          277.22         111.468 
       0.607522          271.17         108.985 
       0.613639         270.476         106.588 
       0.619772         269.338          104.26 
       0.625918          264.03         101.999 
       0.632068         261.654         99.8073 
       0.638161         259.901         97.7018 
         0.6443         255.831         95.6433 
       0.650464         253.071         93.6369 
       0.656582          250.32         91.7017 
       0.662703         249.306         89.8201 
       0.668861         244.075         87.9805 
       0.675024         243.342         86.1912 
       0.681124          239.56         84.4705 
       0.687237         238.409         82.7943 
       0.693381         234.405         81.1569 
       0.699536         233.806         79.5618 
       0.705665         230.906         78.0171 
       0.711789         228.318         76.5153 
       0.717957         226.621         75.0431 
        0.72409         223.371          73.618 
       0.730186         224.524         72.2387 
       0.736317         220.805         70.8876 
       0.742472         218.604         69.5664 
       0.748622         216.464         68.2805 
        0.75476         215.756         67.0303 
       0.760888         213.079         65.8137 
       0.767043         210.214          64.623 
       0.773185         208.473         63.4646 
       0.779291          206.71         62.3415 
       0.785407         205.392         61.2444 
       0.791564         203.849          60.167 
       0.797719         200.414         59.1163 
       0.803834         201.365         58.0976 
       0.809972         198.583         57.0995 
       0.816124         195.674         56.1229 
       0.822261         194.515         55.1719 
       0.828378         193.734         54.2461 
       0.834502         191.424         53.3409 
       0.840667          191.42         52.4508 
       0.846816          187.75         51.5836 
       0.852925         187.723         50.7417 
       0.859047         185.726          49.917 
       0.865192         185.149         49.1081 
       0.871341         183.126         48.3168 
       0.877463         181.504         47.5466 
       0.883569          181.06         46.7953 
       0.889708         179.501         46.0566 
       0.895864         177.251          45.332 
       0.902008         175.958         44.6246 
       0.908149         174.437         43.9329 
       0.914301         173.268         43.2548 
       0.920448         172.756         42.5917 
       0.926574         170.819          41.945 
       0.932687         170.644         41.3133 
       0.938823         168.926         40.6923 
       0.944975         168.437         40.0828 
       0.951105         166.428         39.4881 
       0.957225         165.225         38.9066 
       0.963368         164.947         38.3349 
       0.969511         162.724         37.7748 
       0.975621         160.794          37.229 
       0.981748          160.72         36.6927 
       0.987916           159.8         36.1637 
        0.99406         158.479         35.6472 
        1.00019         157.683         35.1419 
        1.00632         156.528         34.6469 
        1.01246         155.422         34.1608 
        1.01859         153.996         33.6849 
        1.02471         152.975         33.2188 
        1.03085         152.055         32.7599 
        1.03698         151.373         32.3108 
        1.04314         150.718         31.8682 
        1.04929         149.763         31.4351 
        1.05541         149.176         31.0118 
        1.06154         147.573         30.5953 
        1.06769         146.786         30.1859 
        1.07382          145.65         29.7854 
        1.07993         144.743         29.3931 
        1.08607         144.471         29.0063 
        1.09222         142.869         28.6262 
        1.09836         142.253         28.2533 
        1.10449         141.439         27.8876 
        1.11063         140.193         27.5279 
        1.11677         139.573         27.1748 
         1.1229          138.68         26.8285 
        1.12903         137.408          26.488 
        1.13518         136.724         26.1531 
        1.14131          136.38         25.8243 
        1.14745         135.072         25.5013 
        1.15359         134.283         25.1838 
        1.15973         133.715         24.8717 
        1.16584         132.769         24.5662 
        1.17197         132.266         24.2655 
        1.17811          131.12         23.9689 
        1.18424         130.432         23.6782 
        1.19038         129.778         23.3915 
        1.19652         128.713         23.1097 
        1.20267         127.925         22.8325 
        1.20881         127.072           22.56 
        1.21495         126.972         22.2924 
        1.22108         125.807         22.0292 
         1.2272         125.348         21.7709 
        1.23334         124.416         21.5162 
        1.23949         123.869          21.265 
        1.24562         122.929         21.0185 
        1.25174         122.811         20.7763 
        1.25789          121.66         20.5372 
        1.26402         121.111         20.3024 
        1.27014         120.328         20.0718 
        1.27628         119.834         19.8441 
        1.28244         119.054         19.6196 
        1.28858         118.387         19.3989 
        1.29471         117.489          19.182 
        1.30084         116.852         18.9687 
        1.30697         116.072         18.7584 
        1.31312         115.666         18.5509 
        1.31925         114.626         18.3473 
        1.32537         114.235         18.1469 
        1.33151         113.761         17.9489 
        1.33765         113.043         17.7539 
        1.34378         112.735         17.5622 
        1.34992          111.86         17.3733 
        1.35606          111.48         17.1867 
         1.3622         110.828         17.0032 
        1.36833         110.029         16.8228 
        1.37445         109.682         16.6451 
        1.38059         108.906         16.4695 
        1.38675         108.354          16.296 
        1.39288         107.676         16.1257 
        1.39901         107.005         15.9579 
        1.40515         106.621         15.7922 
         1.4113         105.976         15.6289 
        1.41742         105.659         15.4685 
        1.42355         105.045         15.3101 
         1.4297         104.337         15.1534 
        1.43585         103.897          14.999 
        1.44198          103.11         14.8474 
        1.44809         102.707         14.6981 
        1.45423          102.42         14.5504 
        1.46036         101.395         14.4049 
        1.46649         100.943         14.2614 
        1.47263          100.35         14.1198 
        1.47877             100         13.9802 
        1.48491         99.4684         13.8422 
        1.49104         98.7596         13.7064 
        1.49718         98.3071         13.5724 
        1.50333         97.7155         13.4399 
        1.50947         97.5657         13.3095 
         1.5156         96.8282          13.181 
        1.52172         96.1189         13.0542 
        1.52787         95.9307         12.9289 
          1.534         95.4251         12.8053 
        1.54013         94.7692         12.6835 
        1.54627         94.2707         12.5631 
        1.55241         94.0288         12.4442 
        1.55855         93.2878          12.327 
        1.56467         92.8407         12.2117 
         1.5708         92.0301         12.0975 
        1.57695         91.9996         11.9847 
        1.58308         91.3566         11.8735 
        1.58922         90.9435         11.7637 
        1.59535          90.842         11.6553 
         1.6015         90.0184         11.5481 
        1.60764         89.5301         11.4423 
        1.61376          89.363         11.3382 
        1.61989          88.772         11.2352 
        1.62604         88.3263         11.1334 
        1.63218         87.7705         11.0328 
        1.63831         87.3585         10.9337 
        1.64444         86.7835         10.8359 
        1.65059         86.3981         10.7389 
        1.65673         86.2883         10.6433 
        1.66285         85.8044         10.5492 
        1.66898         85.0495         10.4561 
        1.67512          84.527          10.364 
        1.68127         84.3862         10.2729 
         1.6874         83.9262         10.1831 
        1.69353         83.3859         10.0944 
        1.69967         82.9247         10.0066 
        1.70581         82.6646         9.91992 
        1.71193         82.2215         9.83456 
        1.71806         81.7152         9.75003 
        1.72421         81.2608         9.66633 
        1.73035         80.8634         9.58371 
        1.73649         80.5329         9.50208 
        1.74262         80.0922         9.42147 
        1.74876          79.535         9.34174 
        1.75489         79.4453         9.26311 
        1.76101         79.1099         9.18541 
        1.76715         78.5229          9.1085 
        1.77329         78.0923         9.03237 
        1.77943         77.7695         8.95709 
        1.78557         77.5116         8.88278 
        1.79171         76.9436         8.80931 
        1.79785         76.5744         8.73665 
        1.80399         76.3043         8.66484 
        1.81012         75.7064         8.59393 
        1.81625         75.4247         8.52384 
        1.82239         75.0176         8.45444 
        1.82853         74.6558         8.38584 
        1.83466          74.249         8.31808 
        1.84078         73.9885         8.25113 
        1.84692         73.6971         8.18482 
        1.85306          73.514         8.11916 
         1.8592         73.0575         8.05433 
        1.86533          72.556         7.99024 
        1.87147         72.2089         7.92678 
        1.87761         71.5975         7.86398 
        1.88375         71.5048         7.80195 
        1.88988         71.0322         7.74065 
        1.89601         70.9032         7.67997 
        1.90215         70.5253          7.6199 
        1.90829         69.9697         7.56051 
        1.91442         69.5811         7.50175 
        1.92056         69.4044         7.44366 
         1.9267         69.0683         7.38614 
        1.93284         68.8929         7.32919 
        1.93897         68.3522         7.27295 
        1.94509         68.0931         7.21742 
        1.95123         67.7252         7.16234 
        1.95737         67.4774         7.10779 
        1.96349         67.2606         7.05395 
        1.96964         66.8754         7.00052 
        1.97578         66.4083         6.94761 
        1.98192         66.0435         6.89537 
        1.98805         65.7333         6.84365 
        1.99419         65.6877         6.79247 
        2.00033         65.1185         6.74179 
        2.00647         64.7397         6.69164 
         2.0126         64.6001         6.64209 
        2.01874         64.3616         6.59296 
        2.02488         64.0059         6.54429 
        2.03101         63.5512         6.49621 
        2.03714         63.3496         6.44865 
        2.04328         63.1542         6.40152 
        2.04941         62.7789          6.3549 
        2.05554         62.3828         6.30878 
        2.06167         62.0684         6.26305 
        2.06781         61.8174         6.21777 
        2.07396         61.4069         6.17288 
        2.08009         61.2898         6.12851 
        2.08622         60.8538         6.08463 
        2.09237         60.6592         6.04109 
        2.09851         60.2564         5.99798 
        2.10464          59.993         5.95535 
        2.11077         59.7978          5.9132 
        2.11691         59.5363         5.87135 
        2.12305         59.1431         5.82992 
        2.12918         58.8441         5.78898 
        2.13531         58.6576         5.74843 
        2.14145          58.294         5.70818 
         2.1476         58.2088         5.66828 
        2.15372         57.7133         5.62895 
        2.15985          57.531         5.58996 
        2.16599         57.2981         5.55122 
        2.17213         56.9573          5.5129 
        2.17827         56.5356         5.47495 
         2.1844         56.4209         5.43739 
        2.19054         56.2175         5.40018 
        2.19666         55.8891         5.36336 
         2.2028         55.6706         5.32686 
        2.20893          55.311         5.29068 
        2.21508         55.1069          5.2548 
        2.22122         54.7371         5.21923 
        2.22736         54.4863         5.18408 
        2.23349          54.286         5.14925 
        2.23962         54.0827         5.11473 
        2.24577         53.8052          5.0805 
         2.2519          53.514         5.04662 
        2.25802         53.2556         5.01312 
        2.26417         53.0778         4.97982 
        2.27031         52.8457         4.94679 
        2.27644         52.4218         4.91417 
        2.28257         52.3095         4.88184 
        2.28872         51.9944         4.84974 
        2.29486         51.8366         4.81793 
        2.30099         51.4791         4.78648 
        2.30712         51.3121         4.75529 
        2.31326         51.0498         4.72434 
         2.3194          50.821         4.69367 
        2.32553         50.5547         4.66333 
        2.33166         50.3564         4.63327 
         2.3378          50.102         4.60344 
        2.34394         49.9037         4.57386 
        2.35007         49.6126         4.54459 
        2.35619         49.4413          4.5156 
        2.36233         49.2455         4.48681 
        2.36848         48.9337          4.4582 
        2.37462         48.7034          4.4299 
        2.38075         48.4271         4.40188 
        2.38689         48.2055         4.37408 
        2.39303         48.0979         4.34652 
        2.39916         47.8211         4.31923 
        2.40529         47.6698         4.29218 
        2.41143         47.4537         4.26534 
        2.41757          47.149         4.23872 
         2.4237         47.0266         4.21237 
        2.42983         46.7656         4.18626 
        2.43598         46.5827         4.16029 
        2.44211         46.2917         4.13459 
        2.44823         46.1722         4.10916 
        2.45437         45.8235         4.08388 
        2.46052         45.6633         4.05879 
        2.46665         45.3975         4.03396 
        2.47279         45.2222         4.00934 
        2.47892         45.0116         3.98491 
        2.48507         44.8436         3.96067 
         2.4912         44.6076         3.93667 
