# k  (h/Mpc)    P(k)  (Mpc/h)^3    P_linear(k)  (Mpc/h)^3
     0.00783031         19675.8         19770.6 
       0.013688         22234.8         22854.7 
       0.019231         21471.6         21814.1 
      0.0249154         19123.5         19021.9 
      0.0312784         15390.8         15504.9 
      0.0375637         12407.7         12585.1 
      0.0433917         10635.8         10649.3 
      0.0492413         9306.64         9380.43 
      0.0555754         8521.51         8520.98 
      0.0619321          7648.8         7900.71 
       0.067871         7203.72         7327.07 
      0.0738098         6622.41         6658.66 
      0.0800417         5874.28         5864.79 
      0.0862327            5083         5069.86 
      0.0921407         4485.08         4399.31 
      0.0982031         4025.52         3861.31 
       0.104506         3574.94         3475.54 
       0.110769         3351.02         3235.27 
       0.116806         3230.51         3084.59 
       0.122832         3059.79         2957.01 
       0.129052         2880.92         2803.97 
       0.135211         2765.88         2611.24 
       0.141259         2514.57         2389.78 
       0.147318          2293.4         2160.48 
       0.153489         2119.39         1947.31 
       0.159709         2013.51         1773.19 
       0.165845         1842.78         1647.26 
       0.171974         1797.46         1560.46 
       0.178125         1739.82         1498.28 
       0.184229          1610.7         1445.11 
        0.19034         1584.37         1387.25 
       0.196428         1530.24         1318.42 
       0.202534         1424.14         1238.84 
       0.208729         1389.38         1153.55 
       0.214876         1313.62         1072.49 
       0.220989         1240.99         1001.92 
       0.227147         1203.32         944.084 
        0.23329          1154.1         899.113 
       0.239377         1147.29          863.82 
       0.245482         1089.65         833.219 
       0.251667         1050.46         802.934 
       0.257832         1030.58          770.72 
       0.263955         979.705         736.044 
       0.270079         947.414         699.802 
        0.27624         907.553         663.773 
       0.282372         893.093         630.409 
        0.28843         876.441         601.186 
       0.294538         834.298         575.825 
       0.300721         816.792          553.82 
        0.30691         796.153         534.292 
       0.313033          763.11         516.203 
       0.319153         754.223         498.329 
       0.325316         742.558         480.069 
        0.33145         723.926         461.624 
       0.337538         698.089         443.475 
       0.343633         681.398         425.987 
       0.349808          666.21         409.435 
       0.355968         653.559         394.355 
       0.362074          629.77         380.773 
       0.368217         627.199         368.283 
       0.374374         617.723         356.574 
       0.380519         593.754         345.378 
       0.386598         588.867          334.56 
       0.392688         573.362         323.866 
        0.39888         560.817         313.199 
       0.405048         548.076         302.877 
       0.411186         547.769         293.035 
       0.417313         541.076         283.751 
       0.423458         526.326         275.001 
       0.429607         510.827         266.775 
       0.435692         504.967         259.092 
       0.441815         495.291         251.711 
       0.447964         487.238         244.561 
       0.454126         481.433         237.616 
       0.460267         474.164         230.886 
       0.466387         463.918          224.37 
        0.47254         458.849         218.041 
       0.478662         449.999         211.996 
       0.484765         443.745         206.229 
       0.490885         440.383         200.701 
       0.497035         429.969         195.393 
       0.503198         429.573         190.299 
       0.509342         421.016         185.411 
       0.515458           412.6         180.705 
       0.521598         409.875         176.129 
       0.527764         401.526         171.678 
       0.533884         397.149         167.401 
           0.54         393.676         163.266 
       0.546137          386.32         159.259 
       0.552299         384.465         155.381 
       0.558452         378.223         151.653 
       0.564573         376.523         148.076 
       0.570708          370.43         144.613 
       0.576825         363.843         141.272 
       0.582926         362.805         138.044 
       0.589034         355.936         134.911 
       0.595184         353.561         131.853 
       0.601379         347.772         128.867 
       0.607522          341.12         125.997 
       0.613639         340.453         123.226 
       0.619772         338.946         120.534 
       0.625918         332.078          117.92 
       0.632068         330.502         115.386 
       0.638161         327.352         112.952 
         0.6443         322.365         110.572 
       0.650464         319.803         108.253 
       0.656582         316.385         106.015 
       0.662703         314.899          103.84 
       0.668861         308.933         101.713 
       0.675024          308.07         99.6447 
       0.681124         302.052         97.6553 
       0.687237          301.54         95.7176 
       0.693381          296.89         93.8246 
       0.699536         296.575         91.9805 
       0.705665         292.398         90.1947 
       0.711789         290.078         88.4585 
       0.717957         287.644         86.7565 
        0.72409         283.863         85.1089 
       0.730186          284.79         83.5143 
       0.736317         279.957         81.9523 
       0.742472           277.8         80.4249 
       0.748622         276.148         78.9382 
        0.75476         273.741         77.4928 
       0.760888         271.309         76.0864 
       0.767043         268.251         74.7098 
       0.773185         265.967         73.3706 
       0.779291         263.863         72.0722 
       0.785407         262.097         70.8038 
       0.791564         260.514         69.5583 
       0.797719         256.316         68.3436 
       0.803834          256.99         67.1659 
       0.809972         253.148          66.012 
       0.816124         250.807         64.8829 
       0.822261         248.964         63.7835 
       0.828378         247.797         62.7132 
       0.834502         244.365         61.6667 
       0.840667         244.385         60.6376 
       0.846816         240.476         59.6351 
       0.852925         240.762         58.6618 
       0.859047         237.837         57.7084 
       0.865192         237.007         56.7732 
       0.871341         234.499         55.8584 
       0.877463         233.056          54.968 
       0.883569         231.797         54.0994 
       0.889708         229.901         53.2453 
       0.895864         226.804         52.4076 
       0.902008         225.686         51.5899 
       0.908149         223.579         50.7902 
       0.914301         222.629         50.0062 
       0.920448         220.888         49.2397 
       0.926574         219.125         48.4921 
       0.932687         219.043         47.7617 
       0.938823         216.541         47.0438 
       0.944975         216.202         46.3392 
       0.951105         213.872         45.6517 
       0.957225         211.938         44.9794 
       0.963368         212.104         44.3185 
       0.969511         208.955         43.6709 
       0.975621          206.63         43.0399 
       0.981748           206.7         42.4199 
       0.987916           205.4         41.8083 
        0.99406         203.625         41.2112 
        1.00019         202.326          40.627 
        1.00632         201.374         40.0548 
        1.01246         199.871         39.4928 
        1.01859         197.846         38.9427 
        1.02471         196.578         38.4038 
        1.03085         195.596         37.8733 
        1.03698         195.034          37.354 
        1.04314         193.905         36.8424 
        1.04929         192.505         36.3416 
        1.05541         191.936         35.8523 
        1.06154         190.048         35.3708 
        1.06769         188.829         34.8975 
        1.07382          187.03         34.4345 
        1.07993         186.413         33.9809 
        1.08607         185.662         33.5338 
        1.09222         183.833         33.0943 
        1.09836         183.024         32.6632 
        1.10449         182.079         32.2404 
        1.11063          180.65         31.8246 
        1.11677         179.315         31.4163 
         1.1229         179.062          31.016 
        1.12903         176.876         30.6223 
        1.13518         176.227         30.2352 
        1.14131         175.496          29.855 
        1.14745         173.929         29.4816 
        1.15359         172.965         29.1146 
        1.15973         172.254         28.7537 
        1.16584         171.086         28.4006 
        1.17197         170.544          28.053 
        1.17811         168.806         27.7101 
        1.18424         168.035          27.374 
        1.19038         167.367         27.0425 
        1.19652         165.535         26.7167 
        1.20267         164.869         26.3963 
        1.20881         163.889         26.0813 
        1.21495         163.488         25.7719 
        1.22108         162.148         25.4676 
         1.2272         161.415          25.169 
        1.23334         160.134         24.8745 
        1.23949         159.555         24.5841 
        1.24562          158.45         24.2991 
        1.25174          158.05         24.0192 
        1.25789         156.586         23.7428 
        1.26402         155.986         23.4713 
        1.27014         155.181         23.2047 
        1.27628         154.531         22.9415 
        1.28244         153.154         22.6819 
        1.28858         152.353         22.4267 
        1.29471         151.181          22.176 
        1.30084         150.758         21.9294 
        1.30697         149.685         21.6863 
        1.31312         149.126         21.4464 
        1.31925         147.946          21.211 
        1.32537         147.548         20.9794 
        1.33151         146.241         20.7504 
        1.33765         145.804          20.525 
        1.34378         145.227         20.3034 
        1.34992         144.022         20.0849 
        1.35606         143.525         19.8692 
         1.3622         142.453         19.6571 
        1.36833         141.902         19.4486 
        1.37445         141.222         19.2432 
        1.38059         140.067         19.0401 
        1.38675         139.377         18.8396 
        1.39288         138.664         18.6427 
        1.39901         137.605         18.4487 
        1.40515         137.063         18.2571 
         1.4113         136.555         18.0683 
        1.41742         135.776         17.8829 
        1.42355         134.781         17.6997 
         1.4297         134.148         17.5186 
        1.43585         133.773         17.3401 
        1.44198         132.582         17.1648 
        1.44809         132.166         16.9922 
        1.45423         131.482         16.8214 
        1.46036         130.594         16.6533 
        1.46649         129.651         16.4874 
        1.47263         129.316         16.3237 
        1.47877         128.531         16.1623 
        1.48491         127.668         16.0028 
        1.49104         126.842         15.8458 
        1.49718         126.405         15.6908 
        1.50333         125.269         15.5377 
        1.50947         125.173         15.3869 
         1.5156          124.18         15.2383 
        1.52172         123.508         15.0918 
        1.52787         123.166         14.9469 
          1.534         122.515          14.804 
        1.54013         121.699         14.6632 
        1.54627         121.075          14.524 
        1.55241         120.559         14.3865 
        1.55855         119.778         14.2511 
        1.56467         119.202         14.1178 
         1.5708         118.475         13.9858 
        1.57695         118.132         13.8553 
        1.58308         117.063         13.7268 
        1.58922         116.531         13.5998 
        1.59535         116.185         13.4745 
         1.6015         115.328         13.3506 
        1.60764         114.694         13.2283 
        1.61376         114.337         13.1079 
        1.61989         113.704         12.9889 
        1.62604         113.072         12.8711 
        1.63218          112.44         12.7548 
        1.63831         111.886         12.6403 
        1.64444         111.026         12.5272 
        1.65059         110.694         12.4151 
        1.65673         110.176         12.3046 
        1.66285         109.852         12.1957 
        1.66898         108.996         12.0881 
        1.67512         108.012         11.9816 
        1.68127         107.983         11.8763 
         1.6874         107.454         11.7725 
        1.69353         106.674           11.67 
        1.69967         106.216         11.5685 
        1.70581         105.635         11.4683 
        1.71193         105.228         11.3696 
        1.71806         104.255         11.2718 
        1.72421         103.806         11.1751 
        1.73035         103.428         11.0796 
        1.73649         103.011         10.9852 
        1.74262         102.189          10.892 
        1.74876         101.653         10.7998 
        1.75489         101.634         10.7089 
        1.76101         100.843         10.6191 
        1.76715         100.165         10.5302 
        1.77329         99.7279         10.4422 
        1.77943         99.1575         10.3551 
        1.78557         98.7492         10.2692 
        1.79171          98.118         10.1843 
        1.79785         97.5779         10.1003 
        1.80399         97.0138         10.0173 
        1.81012         96.5275         9.93529 
        1.81625         95.9789         9.85427 
        1.82239         95.7557         9.77403 
        1.82853         94.8916         9.69473 
        1.83466         94.3504         9.61639 
        1.84078         94.2804         9.53899 
        1.84692         93.7641         9.46233 
        1.85306         93.2605         9.38643 
         1.8592         92.8655         9.31147 
        1.86533         92.2956         9.23738 
        1.87147         91.7895         9.16402 
        1.87761         91.2774         9.09142 
        1.88375         90.8487          9.0197 
        1.88988         90.3177         8.94883 
        1.89601         89.9849         8.87868 
        1.90215           89.62         8.80924 
        1.90829         88.9484         8.74058 
        1.91442         88.4029         8.67264 
        1.92056         88.1177         8.60549 
         1.9267         87.5669         8.53899 
        1.93284         87.1116         8.47315 
        1.93897         86.8351         8.40813 
        1.94509         86.3886         8.34394 
        1.95123         85.8166         8.28025 
        1.95737         85.4515         8.21719 
        1.96349          85.196         8.15495 
        1.96964         84.8369         8.09318 
        1.97578         84.2005         8.03202 
        1.98192           83.76         7.97162 
        1.98805         83.4632         7.91183 
        1.99419         83.1412         7.85266 
        2.00033         82.5245         7.79407 
        2.00647         82.1633         7.73609 
         2.0126         81.8036          7.6788 
        2.01874         81.2215         7.62201 
        2.02488         80.9241         7.56574 
        2.03101         80.5318         7.51015 
        2.03714         80.1704         7.45517 
        2.04328         79.8722         7.40068 
        2.04941         79.3059         7.34679 
        2.05554         79.1697         7.29347 
        2.06167          78.595         7.24061 
        2.06781         78.3759         7.18826 
        2.07396         77.6165         7.13636 
        2.08009         77.4356         7.08507 
        2.08622         76.9632         7.03434 
        2.09237         76.6659           6.984 
        2.09851         76.1864         6.93416 
        2.10464         75.9929         6.88488 
        2.11077         75.5265         6.83614 
        2.11691         75.0863         6.78777 
        2.12305         74.6773         6.73987 
        2.12918         74.3072         6.69254 
        2.13531         74.1119         6.64567 
        2.14145         73.7423         6.59913 
         2.1476          73.337         6.55299 
        2.15372         72.9478         6.50753 
        2.15985         72.5782         6.46245 
        2.16599         72.2489         6.41767 
        2.17213          71.816         6.37337 
        2.17827         71.4077          6.3295 
         2.1844         71.1565         6.28608 
        2.19054          70.677         6.24305 
        2.19666         70.3291         6.20049 
         2.2028         70.2135         6.15829 
        2.20893         69.7755         6.11646 
        2.21508         69.4615         6.07498 
        2.22122         69.1013         6.03386 
        2.22736          68.664         5.99322 
        2.23349         68.3323         5.95296 
        2.23962         68.0977         5.91305 
        2.24577         67.8543         5.87347 
         2.2519         67.3955         5.83431 
        2.25802         67.0371         5.79557 
        2.26417         66.7606         5.75708 
        2.27031         66.3877          5.7189 
        2.27644         66.0647         5.68118 
        2.28257         65.8036          5.6438 
        2.28872         65.4692         5.60669 
        2.29486         65.1669         5.56993 
        2.30099         64.7856         5.53356 
        2.30712         64.6834         5.49751 
        2.31326         64.1608         5.46172 
         2.3194         63.8739         5.42627 
        2.32553         63.5566          5.3912 
        2.33166         63.3458         5.35645 
         2.3378         63.0032         5.32196 
        2.34394         62.8419         5.28776 
        2.35007         62.3366         5.25392 
        2.35619         62.0668         5.22041 
        2.36233         61.6801         5.18712 
        2.36848         61.5807         5.15405 
        2.37462         61.1807         5.12134 
        2.38075         60.8565         5.08894 
        2.38689         60.6284          5.0568 
        2.39303         60.3352         5.02494 
        2.39916         59.9725         4.99339 
        2.40529         59.8188         4.96212 
        2.41143         59.4516         4.93109 
        2.41757         59.0852         4.90031 
         2.4237         58.9411         4.86985 
        2.42983         58.6374         4.83966 
        2.43598         58.4138         4.80964 
        2.44211         58.0649         4.77993 
        2.44823         57.7373         4.75053 
        2.45437         57.5104          4.7213 
        2.46052         57.2404          4.6923 
        2.46665         56.9148         4.66359 
        2.47279         56.5858         4.63513 
        2.47892         56.4264         4.60689 
        2.48507         56.2021         4.57886 
         2.4912         55.9651         4.55111 
