# k  (h/Mpc)    P(k)  (Mpc/h)^3    P_linear(k)  (Mpc/h)^3
     0.00783031         9941.64         9987.78 
       0.013688         12991.8         13306.7 
       0.019231         14156.4         14366.1 
      0.0249154         14082.1           14117 
      0.0312784         12814.1         12998.4 
      0.0375637         11375.2         11635.3 
      0.0433917         10342.8         10475.2 
      0.0492413         9328.93         9542.16 
      0.0555754          8644.7          8795.5 
      0.0619321         7853.71         8237.84 
       0.067871         7519.04         7788.96 
      0.0738098          7113.1          7329.4 
      0.0800417         6595.47         6792.53 
      0.0862327         6000.46         6209.11 
      0.0921407         5471.48         5644.16 
      0.0982031            5016         5105.56 
       0.104506         4503.71         4631.69 
       0.110769         4170.36         4266.14 
       0.116806            3992         4006.17 
       0.122832         3755.03         3812.88 
       0.129052         3586.56         3649.15 
       0.135211         3488.37         3490.81 
       0.141259         3266.32         3318.26 
       0.147318         3039.64         3122.53 
       0.153489         2877.39         2907.43 
       0.159709         2752.06         2691.25 
       0.165845         2511.08         2495.96 
       0.171974         2441.28         2330.89 
       0.178125         2354.78         2199.46 
       0.184229          2180.2         2099.28 
        0.19034         2149.83         2020.06 
       0.196428         2093.36         1950.86 
       0.202534         1975.49            1881 
       0.208729         1940.36         1803.01 
       0.214876         1865.37         1717.01 
       0.220989          1764.8         1626.01 
       0.227147         1721.36         1534.62 
        0.23329         1655.54         1449.74 
       0.239377         1637.95         1376.12 
       0.245482          1561.6         1314.44 
       0.251667         1504.83         1263.33 
       0.257832         1487.29         1220.61 
       0.263955         1420.65          1182.4 
       0.270079         1386.17         1144.67 
        0.27624         1329.67         1104.78 
       0.282372         1312.85         1062.44 
        0.28843         1296.16         1018.78 
       0.294538         1235.62          974.79 
       0.300721         1208.71         932.385 
        0.30691          1185.1           893.8 
       0.313033         1139.73         860.202 
       0.319153         1126.42          831.03 
       0.325316          1112.1         805.157 
        0.33145          1091.6         781.562 
       0.337538         1055.91         758.928 
       0.343633         1030.48         736.139 
       0.349808         1010.56         712.423 
       0.355968         992.378         688.333 
       0.362074         963.595         664.506 
       0.368217         960.188         641.339 
       0.374374         945.793         619.529 
       0.380519          912.97         599.533 
       0.386598         907.065         581.578 
       0.392688         887.997         565.117 
        0.39888         866.799         549.561 
       0.405048         853.266         534.752 
       0.411186           849.9         520.268 
       0.417313         846.425         505.887 
       0.423458         819.809         491.469 
       0.429607         798.156         477.176 
       0.435692         790.855         463.408 
       0.441815          777.46         450.123 
       0.447964         766.814           437.5 
       0.454126          757.01         425.673 
       0.460267         746.797         414.632 
       0.466387         736.719         404.227 
        0.47254         723.579         394.227 
       0.478662         713.105         384.591 
       0.484765         707.175         375.165 
       0.490885          699.15         365.846 
       0.497035         687.128         356.655 
       0.503198         686.225         347.666 
       0.509342         672.806         338.978 
       0.515458         660.504          330.66 
       0.521598          655.23         322.694 
       0.527764         642.363         315.076 
       0.533884         638.818          307.84 
           0.54         632.036         300.885 
       0.546137         622.256         294.135 
       0.552299         620.201          287.55 
       0.558452         612.575         281.132 
       0.564573          605.65         274.876 
       0.570708         601.283          268.75 
       0.576825         589.534         262.812 
       0.582926           586.8          257.08 
       0.589034         579.262         251.539 
       0.595184         574.084         246.154 
       0.601379         565.251         240.915 
       0.607522         557.148         235.895 
       0.613639         555.505         231.055 
       0.619772         552.545         226.345 
       0.625918         543.469         221.751 
       0.632068         539.225         217.265 
       0.638161         533.391         212.923 
         0.6443         528.761         208.656 
       0.650464         523.534         204.488 
       0.656582         519.162          200.47 
       0.662703          514.09         196.572 
       0.668861         508.338         192.768 
       0.675024         504.352          189.07 
       0.681124          498.41         185.511 
       0.687237         495.972         182.038 
       0.693381         489.591         178.634 
       0.699536         486.485         175.309 
       0.705665         481.734         172.082 
       0.711789         480.767         168.939 
       0.717957         473.186         165.853 
        0.72409         469.277         162.862 
       0.730186         470.549         159.965 
       0.736317         462.594         157.124 
       0.742472         457.606         154.343 
       0.748622         454.209         151.633 
        0.75476         451.502         148.995 
       0.760888         448.127         146.425 
       0.767043         445.125         143.906 
       0.773185         442.666         141.452 
       0.779291         436.207          139.07 
       0.785407         434.318         136.741 
       0.791564         430.374          134.45 
       0.797719         424.381         132.215 
       0.803834         427.001         130.045 
       0.809972         420.601         127.916 
       0.816124         416.529         125.831 
       0.822261         413.032         123.799 
       0.828378          411.84         121.818 
       0.834502         405.614          119.88 
       0.840667         405.548         117.971 
       0.846816         399.542          116.11 
       0.852925         399.452         114.302 
       0.859047         395.638         112.528 
       0.865192         394.336         110.786 
       0.871341         388.858         109.081 
       0.877463         385.671          107.42 
       0.883569         383.252         105.798 
       0.889708         380.115         104.201 
       0.895864         377.454         102.634 
       0.902008         375.563         101.103 
       0.908149         372.561         99.6045 
       0.914301          370.61         98.1343 
       0.920448         367.647         96.6955 
       0.926574         365.608         95.2909 
       0.932687         362.905         93.9176 
       0.938823         359.243         92.5667 
       0.944975         357.801         91.2395 
       0.951105         354.967         89.9435 
       0.957225         350.481          88.675 
       0.963368         350.915          87.427 
       0.969511         344.661         86.2032 
       0.975621         345.147         85.0097 
       0.981748         342.433         83.8359 
       0.987916         340.412         82.6771 
        0.99406         337.421         81.5448 
        1.00019         334.301         80.4361 
        1.00632         334.328         79.3493 
        1.01246          331.58         78.2812 
        1.01859         327.405         77.2346 
        1.02471         325.356         76.2086 
        1.03085         324.945         75.1979 
        1.03698         322.149         74.2079 
        1.04314         321.494         73.2316 
        1.04929         318.774         72.2754 
        1.05541         315.126         71.3403 
        1.06154         313.882         70.4196 
        1.06769         310.643         69.5139 
        1.07382         310.435         68.6273 
        1.07993         307.165         67.7584 
        1.08607         304.909          66.901 
        1.09222         303.499         66.0577 
        1.09836         302.046         65.2302 
        1.10449         299.754         64.4179 
        1.11063         296.887         63.6186 
        1.11677         295.021         62.8334 
         1.1229         293.584         62.0629 
        1.12903         292.158         61.3048 
        1.13518         289.727         60.5588 
        1.14131         289.104         59.8258 
        1.14745         285.007         59.1055 
        1.15359         283.153         58.3969 
        1.15973         282.304         57.6999 
        1.16584         281.085         57.0174 
        1.17197         278.687         56.3451 
        1.17811           276.3         55.6816 
        1.18424         274.717         55.0309 
        1.19038         273.308         54.3888 
        1.19652         270.295         53.7572 
        1.20267         270.106         53.1358 
        1.20881          267.82         52.5244 
        1.21495         266.905         51.9237 
        1.22108         264.894         51.3326 
         1.2272         262.047         50.7521 
        1.23334         261.102         50.1793 
        1.23949         260.192         49.6141 
        1.24562         258.257         49.0592 
        1.25174         256.385         48.5137 
        1.25789         254.244         47.9749 
        1.26402         254.023         47.4454 
        1.27014         252.495         46.9251 
        1.27628         249.578         46.4112 
        1.28244         248.894          45.904 
        1.28858         247.081         45.4051 
        1.29471         245.968         44.9149 
        1.30084         244.391         44.4324 
        1.30697         242.062         43.9563 
        1.31312         240.673         43.4865 
        1.31925         239.382         43.0252 
        1.32537         238.552         42.5711 
        1.33151         236.475         42.1219 
        1.33765         234.906         41.6796 
        1.34378         233.448         41.2445 
        1.34992         231.983         40.8154 
        1.35606         230.915         40.3915 
         1.3622         229.427         39.9744 
        1.36833         227.403         39.5643 
        1.37445         226.909         39.1602 
        1.38059         225.049         38.7605 
        1.38675         223.551         38.3655 
        1.39288         222.432         37.9776 
        1.39901         220.895         37.5954 
        1.40515         219.796         37.2175 
         1.4113         218.068          36.845 
        1.41742         216.274         36.4791 
        1.42355          216.79         36.1175 
         1.4297         214.417         35.7598 
        1.43585         213.007          35.407 
        1.44198         211.235         35.0604 
        1.44809         210.323         34.7192 
        1.45423         209.441         34.3812 
        1.46036         207.944         34.0484 
        1.46649          206.85         33.7198 
        1.47263         205.741         33.3954 
        1.47877         204.415         33.0755 
        1.48491         202.474         32.7592 
        1.49104         200.854         32.4478 
        1.49718         200.043         32.1402 
        1.50333         198.792         31.8361 
        1.50947         197.982         31.5367 
         1.5156         196.794         31.2415 
        1.52172         195.481         30.9502 
        1.52787         194.414          30.662 
          1.534         193.356         30.3779 
        1.54013         192.238         30.0976 
        1.54627         191.171         29.8205 
        1.55241         189.959         29.5468 
        1.55855         189.192         29.2769 
        1.56467         187.457         29.0112 
         1.5708          186.17          28.748 
        1.57695         185.452         28.4878 
        1.58308         184.116         28.2313 
        1.58922         183.249         27.9779 
        1.59535         181.638         27.7277 
         1.6015         180.643         27.4803 
        1.60764         179.857          27.236 
        1.61376         178.407         26.9953 
        1.61989         177.428         26.7574 
        1.62604         176.159         26.5219 
        1.63218         175.508         26.2893 
        1.63831         174.568         26.0601 
        1.64444         173.272         25.8336 
        1.65059         172.449         25.6092 
        1.65673         171.111         25.3877 
        1.66285         170.455         25.1695 
        1.66898         169.258         24.9538 
        1.67512         168.351         24.7403 
        1.68127         167.211          24.529 
         1.6874         166.317         24.3207 
        1.69353          165.57          24.115 
        1.69967         164.204         23.9111 
        1.70581         163.717         23.7098 
        1.71193         162.203         23.5115 
        1.71806         161.311         23.3151 
        1.72421         160.629         23.1205 
        1.73035         159.515         22.9284 
        1.73649         158.317         22.7385 
        1.74262         157.718          22.551 
        1.74876         156.803         22.3655 
        1.75489         155.845         22.1824 
        1.76101         154.712         22.0014 
        1.76715          153.81         21.8223 
        1.77329         153.159         21.6449 
        1.77943         151.818         21.4694 
        1.78557          151.42         21.2962 
        1.79171         150.443         21.1248 
        1.79785         149.409         20.9553 
        1.80399         148.549         20.7877 
        1.81012         147.266         20.6222 
        1.81625         147.074         20.4586 
        1.82239         145.758         20.2965 
        1.82853         145.328         20.1362 
        1.83466         144.159         19.9778 
        1.84078         143.524         19.8214 
        1.84692         143.019         19.6663 
        1.85306         141.695         19.5128 
         1.8592         141.114         19.3611 
        1.86533         139.871         19.2111 
        1.87147         139.476         19.0626 
        1.87761         138.295         18.9155 
        1.88375         137.471         18.7702 
        1.88988          136.74         18.6266 
        1.89601         136.363         18.4844 
        1.90215         135.622         18.3437 
        1.90829         134.421         18.2044 
        1.91442         133.483         18.0666 
        1.92056         132.814         17.9303 
         1.9267          131.98         17.7953 
        1.93284         131.392         17.6617 
        1.93897         130.491         17.5296 
        1.94509          129.83         17.3992 
        1.95123           129.1         17.2698 
        1.95737         128.512         17.1417 
        1.96349         127.632         17.0152 
        1.96964         126.858         16.8895 
        1.97578         126.306         16.7651 
        1.98192         125.518         16.6423 
        1.98805         124.788         16.5206 
        1.99419         123.949         16.4002 
        2.00033         123.357         16.2809 
        2.00647         122.633         16.1628 
         2.0126          121.96         16.0461 
        2.01874         121.473         15.9304 
        2.02488         120.412         15.8158 
        2.03101         119.997         15.7024 
        2.03714         119.086         15.5904 
        2.04328         118.509         15.4792 
        2.04941         118.002         15.3693 
        2.05554         117.519         15.2605 
        2.06167         116.387         15.1526 
        2.06781         115.713         15.0458 
        2.07396         115.385         14.9398 
        2.08009         114.522         14.8351 
        2.08622         113.857         14.7314 
        2.09237         113.131         14.6286 
        2.09851         112.721         14.5267 
        2.10464         112.017          14.426 
        2.11077         111.339         14.3264 
        2.11691         110.796         14.2274 
        2.12305         110.095         14.1295 
        2.12918         109.535         14.0326 
        2.13531         109.065         13.9367 
        2.14145         108.178         13.8415 
         2.1476         107.529          13.747 
        2.15372          107.06         13.6539 
        2.15985         106.412         13.5616 
        2.16599          105.68         13.4699 
        2.17213         105.275         13.3791 
        2.17827          104.51         13.2892 
         2.1844         104.226         13.2002 
        2.19054          103.47          13.112 
        2.19666         102.764         13.0247 
         2.2028         102.375         12.9382 
        2.20893         101.856         12.8524 
        2.21508         101.022         12.7672 
        2.22122         100.732         12.6829 
        2.22736         100.219         12.5994 
        2.23349         99.5456         12.5168 
        2.23962         99.0172         12.4348 
        2.24577         98.4937         12.3535 
         2.2519         97.7214          12.273 
        2.25802         97.3123         12.1934 
        2.26417         96.8313         12.1143 
        2.27031         96.1338         12.0358 
        2.27644         95.7918         11.9583 
        2.28257         95.2667         11.8814 
        2.28872         94.7745         11.8051 
        2.29486         94.4394         11.7294 
        2.30099         93.5268         11.6546 
        2.30712         93.3459         11.5804 
        2.31326         92.7977         11.5067 
         2.3194         92.0885         11.4337 
        2.32553         91.5607         11.3615 
        2.33166         91.1368         11.2899 
         2.3378         90.8913         11.2189 
        2.34394         90.2156         11.1484 
        2.35007         89.4527         11.0787 
        2.35619         89.0715         11.0096 
        2.36233         88.7272          10.941 
        2.36848         88.1235         10.8728 
        2.37462         87.6399         10.8053 
        2.38075         87.2554         10.7385 
        2.38689         86.8998         10.6721 
        2.39303         86.4131         10.6064 
        2.39916         85.9848         10.5413 
        2.40529         85.4033         10.4767 
        2.41143          85.019         10.4126 
        2.41757         84.5377         10.3491 
         2.4237          84.028         10.2862 
        2.42983         83.5734         10.2238 
        2.43598         83.3308         10.1618 
        2.44211         82.6202         10.1004 
        2.44823         82.2522         10.0396 
        2.45437         81.9296         9.97919 
        2.46052         81.4094         9.91921 
        2.46665         80.9264         9.85984 
        2.47279         80.5735         9.80098 
        2.47892         80.0323         9.74256 
        2.48507         79.7241         9.68456 
         2.4912         79.2082         9.62715 
