# k  (h/Mpc)    Pcb(k)  (Mpc/h)^3    Pcb_linear(k)  (Mpc/h)^3
     0.00783031         9539.04         9575.69 
       0.013688         12479.5         12769.6 
       0.019231           13601         13792.6 
      0.0249154           13529           13557 
      0.0312784           12317         12485.2 
      0.0375637         10937.4         11177.3 
      0.0433917          9944.2         10063.7 
      0.0492413         8971.65         9167.83 
      0.0555754         8314.58         8450.88 
      0.0619321         7558.44         7915.36 
       0.067871         7235.84         7484.26 
      0.0738098         6843.97         7042.84 
      0.0800417         6347.11         6527.09 
      0.0862327         5774.49         5966.56 
      0.0921407         5264.44         5423.75 
      0.0982031         4824.64         4906.23 
       0.104506         4331.91          4450.9 
       0.110769         4010.63         4099.66 
       0.116806         3838.43         3849.86 
       0.122832         3610.07         3664.13 
       0.129052         3449.61         3506.81 
       0.135211         3353.82         3354.66 
       0.141259         3141.23         3188.85 
       0.147318         2922.65         3000.77 
       0.153489         2765.71         2794.07 
       0.159709         2642.79         2586.32 
       0.165845         2410.97         2398.65 
       0.171974         2343.43         2240.02 
       0.178125         2258.51         2113.72 
       0.184229         2092.14         2017.45 
        0.19034         2061.98         1941.33 
       0.196428         2007.23         1874.83 
       0.202534         1893.54         1807.69 
       0.208729         1860.06         1732.73 
       0.214876         1788.32         1650.09 
       0.220989         1689.75         1562.65 
       0.227147         1648.45         1474.82 
        0.23329         1585.23         1393.24 
       0.239377         1566.79          1322.5 
       0.245482         1493.06         1263.22 
       0.251667         1438.64          1214.1 
       0.257832         1422.34         1173.05 
       0.263955         1357.68         1136.32 
       0.270079         1323.89         1100.07 
        0.27624         1269.99         1061.73 
       0.282372            1253         1021.04 
        0.28843         1238.03         979.084 
       0.294538         1179.43         936.811 
       0.300721         1152.61         896.061 
        0.30691         1130.78         858.977 
       0.313033         1086.95         826.687 
       0.319153         1073.69         798.652 
       0.325316         1059.64         773.787 
        0.33145         1040.11         751.112 
       0.337538          1005.7         729.361 
       0.343633         980.963         707.456 
       0.349808         961.439         684.669 
       0.355968         944.336         661.517 
       0.362074         916.656         638.618 
       0.368217         913.172         616.356 
       0.374374         899.264         595.393 
       0.380519         867.639         576.177 
       0.386598          861.44         558.922 
       0.392688         843.822         543.103 
        0.39888         823.075         528.153 
       0.405048         810.389         513.918 
       0.411186         807.195             500 
       0.417313         803.096          486.18 
       0.423458         777.961         472.323 
       0.429607         757.577         458.587 
       0.435692          749.97         445.355 
       0.441815         737.549         432.588 
       0.447964          726.74         420.458 
       0.454126         717.632          409.09 
       0.460267         707.577          398.48 
       0.466387         698.053          388.48 
        0.47254         685.894          378.87 
       0.478662         675.179         369.609 
       0.484765         669.548          360.55 
       0.490885         662.148         351.595 
       0.497035         650.553         342.762 
       0.503198         649.778         334.123 
       0.509342         636.578         325.773 
       0.515458         625.295          317.78 
       0.521598         619.429         310.124 
       0.527764         607.783         302.803 
       0.533884         604.793         295.849 
           0.54         597.974         289.164 
       0.546137         588.198         282.677 
       0.552299         586.632         276.349 
       0.558452         579.065         270.179 
       0.564573         572.373         264.169 
       0.570708         568.137         258.281 
       0.576825         557.169         252.574 
       0.582926         554.275         247.066 
       0.589034         547.088         241.741 
       0.595184         542.475         236.565 
       0.601379         534.042         231.531 
       0.607522         526.217         226.706 
       0.613639         524.442         222.055 
       0.619772         521.842         217.529 
       0.625918         513.293         213.114 
       0.632068         508.887         208.802 
       0.638161         503.624          204.63 
         0.6443         499.351         200.529 
       0.650464         494.053         196.523 
       0.656582         489.817         192.661 
       0.662703         485.393         188.915 
       0.668861         479.675         185.259 
       0.675024         475.902         181.705 
       0.681124         470.629         178.285 
       0.687237          467.85         174.947 
       0.693381         462.258         171.676 
       0.699536         458.808         168.481 
       0.705665         454.359         165.379 
       0.711789         453.363         162.358 
       0.717957         446.267         159.392 
        0.72409         442.578         156.518 
       0.730186         444.124         153.734 
       0.736317         436.343         151.004 
       0.742472         431.655         148.331 
       0.748622         428.101         145.727 
        0.75476         426.083         143.192 
       0.760888         422.563         140.722 
       0.767043         419.519         138.301 
       0.773185          417.34         135.942 
       0.779291         411.009         133.653 
       0.785407         409.511         131.414 
       0.791564         405.537         129.213 
       0.797719          399.86         127.065 
       0.803834         402.643         124.979 
       0.809972         396.617         122.934 
       0.816124         392.644          120.93 
       0.822261         389.062         118.977 
       0.828378         388.285         117.073 
       0.834502         382.383          115.21 
       0.840667         382.297         113.376 
       0.846816         376.496         111.588 
       0.852925         376.341         109.849 
       0.859047         372.628         108.145 
       0.865192         371.752         106.471 
       0.871341         366.529         104.832 
       0.877463         363.266         103.236 
       0.883569          361.36         101.677 
       0.889708         358.458         100.143 
       0.895864         355.964         98.6366 
       0.902008         353.943         97.1651 
       0.908149          351.12         95.7249 
       0.914301         349.237         94.3119 
       0.920448         346.707         92.9291 
       0.926574         344.643         91.5793 
       0.932687         341.973         90.2594 
       0.938823          338.74         88.9611 
       0.944975         337.293         87.6857 
       0.951105         334.546         86.4401 
       0.957225         330.716         85.2211 
       0.963368         330.834         84.0217 
       0.969511         324.984         82.8455 
       0.975621          325.24         81.6985 
       0.981748         322.787         80.5704 
       0.987916         320.971         79.4568 
        0.99406         318.128         78.3686 
        1.00019         315.418         77.3031 
        1.00632         315.277         76.2586 
        1.01246         312.786         75.2321 
        1.01859         308.826         74.2263 
        1.02471         306.782         73.2402 
        1.03085         306.432         72.2689 
        1.03698         303.756         71.3174 
        1.04314          303.25         70.3792 
        1.04929         300.674         69.4603 
        1.05541         297.493         68.5616 
        1.06154         296.076         67.6767 
        1.06769         293.045         66.8063 
        1.07382         293.063         65.9543 
        1.07993         289.757         65.1191 
        1.08607         287.533         64.2952 
        1.09222         286.394         63.4848 
        1.09836         285.009         62.6894 
        1.10449         282.664         61.9088 
        1.11063         280.175         61.1407 
        1.11677           278.7          60.386 
         1.1229         276.979         59.6455 
        1.12903         275.853         58.9169 
        1.13518         273.608            58.2 
        1.14131         272.909         57.4956 
        1.14745         269.185         56.8033 
        1.15359         267.279         56.1224 
        1.15973         266.576         55.4524 
        1.16584         265.536         54.7965 
        1.17197         263.273         54.1504 
        1.17811         261.031         53.5128 
        1.18424         259.515         52.8874 
        1.19038         258.124         52.2703 
        1.19652         255.377         51.6634 
        1.20267         255.087         51.0662 
        1.20881         252.915         50.4786 
        1.21495         252.256         49.9013 
        1.22108         250.282         49.3331 
         1.2272         247.785         48.7753 
        1.23334         246.857         48.2248 
        1.23949         246.036         47.6816 
        1.24562         244.131         47.1484 
        1.25174         242.386         46.6241 
        1.25789         240.384         46.1063 
        1.26402         240.161         45.5974 
        1.27014         238.721         45.0974 
        1.27628          235.92         44.6034 
        1.28244         235.302          44.116 
        1.28858          233.62         43.6366 
        1.29471          232.53         43.1654 
        1.30084         231.008         42.7017 
        1.30697         229.008         42.2442 
        1.31312         227.716         41.7927 
        1.31925         226.367         41.3494 
        1.32537          225.69         40.9129 
        1.33151         223.783         40.4813 
        1.33765         222.144         40.0561 
        1.34378         220.995          39.638 
        1.34992         219.704         39.2256 
        1.35606         218.548         38.8182 
         1.3622         217.282         38.4174 
        1.36833         215.179         38.0233 
        1.37445         214.862         37.6349 
        1.38059         213.086         37.2508 
        1.38675         211.701         36.8712 
        1.39288         210.586         36.4984 
        1.39901         209.286          36.131 
        1.40515         208.177         35.7679 
         1.4113         206.638         35.4099 
        1.41742         204.918         35.0582 
        1.42355         205.365         34.7107 
         1.4297         203.143         34.3669 
        1.43585         201.899         34.0279 
        1.44198         200.066         33.6948 
        1.44809          199.15         33.3668 
        1.45423         198.503          33.042 
        1.46036         197.048         32.7222 
        1.46649         195.902         32.4065 
        1.47263         195.016         32.0947 
        1.47877         193.762         31.7872 
        1.48491         191.894         31.4832 
        1.49104         190.228         31.1839 
        1.49718         189.704         30.8883 
        1.50333         188.595         30.5961 
        1.50947         187.657         30.3083 
         1.5156         186.551         30.0247 
        1.52172         185.378         29.7447 
        1.52787         184.443         29.4677 
          1.534         183.286         29.1946 
        1.54013         182.335         28.9253 
        1.54627         181.295          28.659 
        1.55241         180.178         28.3959 
        1.55855         179.354         28.1366 
        1.56467          177.73         27.8812 
         1.5708          176.59         27.6283 
        1.57695         175.934         27.3782 
        1.58308         174.733         27.1317 
        1.58922         173.931         26.8882 
        1.59535         172.533         26.6477 
         1.6015         171.307         26.4099 
        1.60764           170.6         26.1751 
        1.61376         169.387         25.9439 
        1.61989         168.504         25.7152 
        1.62604         167.283         25.4888 
        1.63218         166.653         25.2653 
        1.63831         165.597         25.0451 
        1.64444         164.474         24.8273 
        1.65059          163.64         24.6117 
        1.65673         162.533         24.3989 
        1.66285         161.989         24.1892 
        1.66898         160.686         23.9819 
        1.67512         159.948         23.7766 
        1.68127         158.782         23.5736 
         1.6874         157.987         23.3734 
        1.69353         157.243         23.1757 
        1.69967         156.038         22.9798 
        1.70581         155.523         22.7863 
        1.71193         154.123         22.5957 
        1.71806         153.284         22.4069 
        1.72421         152.662           22.22 
        1.73035         151.642         22.0353 
        1.73649         150.449         21.8529 
        1.74262         149.945         21.6726 
        1.74876         148.987         21.4943 
        1.75489         148.129         21.3184 
        1.76101         147.197         21.1445 
        1.76715         146.177         20.9723 
        1.77329         145.689         20.8018 
        1.77943         144.349         20.6332 
        1.78557         143.968         20.4667 
        1.79171         143.071          20.302 
        1.79785         141.988         20.1391 
        1.80399         141.323         19.9781 
        1.81012         140.084          19.819 
        1.81625         139.858         19.6617 
        1.82239          138.77         19.5059 
        1.82853         138.347         19.3519 
        1.83466         137.198         19.1997 
        1.84078         136.501         19.0493 
        1.84692         136.149         18.9003 
        1.85306          134.89         18.7527 
         1.8592         134.268          18.607 
        1.86533         133.183         18.4628 
        1.87147         132.784         18.3201 
        1.87761         131.697         18.1788 
        1.88375         130.903         18.0391 
        1.88988          130.06         17.9011 
        1.89601         129.767         17.7645 
        1.90215         129.081         17.6292 
        1.90829         127.988         17.4953 
        1.91442          127.05         17.3629 
        1.92056         126.545         17.2319 
         1.9267         125.689         17.1022 
        1.93284          125.12         16.9738 
        1.93897         124.338         16.8469 
        1.94509         123.664         16.7215 
        1.95123         122.982         16.5972 
        1.95737         122.432          16.474 
        1.96349         121.662         16.3524 
        1.96964         120.847         16.2317 
        1.97578         120.386         16.1122 
        1.98192         119.633         15.9941 
        1.98805          118.94         15.8771 
        1.99419         118.186         15.7614 
        2.00033         117.522         15.6468 
        2.00647         116.869         15.5333 
         2.0126         116.267         15.4211 
        2.01874         115.895         15.3099 
        2.02488         114.774         15.1997 
        2.03101         114.431         15.0908 
        2.03714         113.578         14.9831 
        2.04328         113.012         14.8763 
        2.04941         112.449         14.7707 
        2.05554         112.035         14.6661 
        2.06167         110.934         14.5624 
        2.06781         110.322         14.4597 
        2.07396         109.986         14.3579 
        2.08009         109.196         14.2572 
        2.08622         108.602         14.1576 
        2.09237          108.03         14.0588 
        2.09851         107.492         13.9609 
        2.10464         106.879         13.8641 
        2.11077         106.189         13.7684 
        2.11691         105.767         13.6733 
        2.12305         105.013         13.5791 
        2.12918         104.545         13.4861 
        2.13531         104.081         13.3939 
        2.14145         103.187         13.3024 
         2.1476          102.67         13.2116 
        2.15372         102.192         13.1221 
        2.15985         101.594         13.0334 
        2.16599         100.901         12.9453 
        2.17213         100.548          12.858 
        2.17827         99.7925         12.7716 
         2.1844          99.439         12.6861 
        2.19054         98.8555         12.6013 
        2.19666         98.1346         12.5174 
         2.2028         97.7719         12.4342 
        2.20893         97.1875         12.3518 
        2.21508         96.5298           12.27 
        2.22122         96.1744         12.1889 
        2.22736         95.7154         12.1087 
        2.23349          95.088         12.0292 
        2.23962         94.6038         11.9505 
        2.24577         94.0866         11.8723 
         2.2519         93.4263          11.795 
        2.25802         92.9598         11.7185 
        2.26417          92.519         11.6425 
        2.27031         91.8646          11.567 
        2.27644         91.5499         11.4925 
        2.28257         91.0096         11.4186 
        2.28872         90.5569         11.3453 
        2.29486         90.2109         11.2726 
        2.30099         89.3979         11.2007 
        2.30712         89.1977         11.1294 
        2.31326         88.6922         11.0585 
         2.3194         87.9805         10.9884 
        2.32553         87.5563          10.919 
        2.33166         87.0739         10.8502 
         2.3378         86.8613         10.7819 
        2.34394         86.2924         10.7142 
        2.35007         85.5844         10.6472 
        2.35619          85.166         10.5808 
        2.36233         84.8351         10.5148 
        2.36848         84.2754         10.4493 
        2.37462         83.7945         10.3844 
        2.38075          83.478         10.3202 
        2.38689         83.0907         10.2565 
        2.39303         82.6425         10.1933 
        2.39916         82.2639         10.1307 
        2.40529         81.6658         10.0687 
        2.41143         81.3076         10.0071 
        2.41757         80.8587           9.946 
         2.4237         80.3761         9.88553 
        2.42983         79.9565         9.82559 
        2.43598         79.7119         9.76598 
        2.44211         78.9925         9.70696 
        2.44823         78.7333         9.64857 
        2.45437         78.3992          9.5905 
        2.46052         77.8999         9.53287 
        2.46665         77.4119         9.47581 
        2.47279         77.0568         9.41923 
        2.47892         76.5291         9.36309 
        2.48507         76.2226         9.30735 
         2.4912          75.839         9.25218 
