# k  (h/Mpc)    P(k)  (Mpc/h)^3    P_linear(k)  (Mpc/h)^3
     0.00783031          5442.4         5522.99 
       0.013688         6545.91         6533.92 
       0.019231          6273.1         6264.95 
      0.0249154         5374.15         5430.53 
      0.0312784         4377.63         4384.65 
      0.0375637         3573.21         3553.43 
      0.0433917         3028.47         3038.91 
      0.0492413         2731.18         2728.36 
      0.0555754         2497.67         2527.26 
      0.0619321         2376.29         2361.42 
       0.067871         2154.87         2174.29 
      0.0738098         1924.77         1940.59 
      0.0800417         1652.76         1671.29 
      0.0862327         1422.18         1423.16 
      0.0921407         1248.66         1235.97 
      0.0982031         1110.28         1105.08 
       0.104506         1047.74         1025.65 
       0.110769          996.62         981.628 
       0.116806         952.843         947.602 
       0.122832         912.424          902.98 
       0.129052         837.889         837.634 
       0.135211         763.167         758.117 
       0.141259         695.175         677.691 
       0.147318         630.729         606.927 
       0.153489         572.344         552.399 
       0.159709         539.006         516.319 
       0.165845         521.218         494.833 
       0.171974         498.871         480.107 
       0.178125         482.376         464.773 
       0.184229         462.447         444.216 
        0.19034         427.835         417.331 
       0.196428         406.868         386.698 
       0.202534         383.445         356.203 
       0.208729         355.762         329.298 
       0.214876         333.419         308.642 
       0.220989         321.701         294.011 
       0.227147         306.995          283.57 
        0.23329         296.949         275.012 
       0.239377         289.759         266.108 
       0.245482         271.952          255.43 
       0.251667         265.096         242.703 
       0.257832         252.988         228.976 
       0.263955         240.584          215.67 
       0.270079         229.252         203.843 
        0.27624         223.251         194.042 
       0.282372         215.009         186.344 
        0.28843         207.171          180.17 
       0.294538         198.941         174.626 
       0.300721         196.005         168.956 
        0.30691         187.015         162.814 
       0.313033           181.3         156.217 
       0.319153         172.745         149.403 
       0.325316         168.528         142.722 
        0.33145          161.68         136.647 
       0.337538         158.239         131.353 
       0.343633         152.583         126.805 
       0.349808         147.885         122.758 
       0.355968         144.927         119.037 
       0.362074         140.712          115.42 
       0.368217           136.5         111.698 
       0.374374         132.097         107.881 
       0.380519         129.167         104.042 
       0.386598         125.431         100.353 
       0.392688         122.928         96.8861 
        0.39888         119.476         93.6465 
       0.405048         116.369         90.7275 
       0.411186         113.713         88.0651 
       0.417313         110.757         85.5592 
       0.423458          108.13         83.1296 
       0.429607         105.454         80.7307 
       0.435692         101.897         78.3607 
       0.441815          100.83         76.0088 
       0.447964         98.9556          73.719 
       0.454126         94.4548         71.5257 
       0.460267         93.3138         69.4612 
       0.466387          91.503         67.5377 
        0.47254         89.5999         65.7194 
       0.478662         88.4869         63.9941 
       0.484765         85.8103         62.3316 
       0.490885         84.1787         60.7096 
       0.497035         83.0763          59.117 
       0.503198         80.6534         57.5543 
       0.509342         78.8857         56.0385 
       0.515458         77.5631         54.5845 
       0.521598         76.3564         53.1904 
       0.527764         75.0562         51.8551 
       0.533884         73.8607         50.5858 
           0.54         72.2275         49.3658 
       0.546137         71.4089         48.1834 
       0.552299         70.2759         47.0336 
       0.558452         68.4688         45.9192 
       0.564573         67.2259         44.8398 
       0.570708         66.2519         43.7869 
       0.576825         65.1793         42.7688 
       0.582926         63.7512         41.7872 
       0.589034         62.4673         40.8403 
       0.595184         61.6642         39.9224 
       0.601379         60.7301         39.0301 
       0.607522         59.2971         38.1735 
       0.613639         59.0662         37.3452 
       0.619772         57.6881         36.5372 
       0.625918         57.0776         35.7496 
       0.632068         56.3529          34.984 
       0.638161         55.4845         34.2477 
         0.6443         54.6162         33.5282 
       0.650464         53.8261         32.8283 
       0.656582         53.1904         32.1545 
       0.662703         52.1175         31.5001 
       0.668861         51.4339         30.8606 
       0.675024         50.7453         30.2384 
       0.681124         49.9513         29.6394 
       0.687237         49.0429         29.0552 
       0.693381         48.6045          28.484 
       0.699536         47.7279         27.9271 
       0.705665         47.8649         27.3878 
       0.711789         46.5607         26.8634 
       0.717957         46.0755         26.3496 
        0.72409         45.4646         25.8524 
       0.730186         44.7256         25.3714 
       0.736317         44.5104         24.9001 
       0.742472         43.8079         24.4393 
       0.748622         43.3448         23.9907 
        0.75476         42.7969         23.5544 
       0.760888         42.1285         23.1295 
       0.767043          41.652         22.7135 
       0.773185         41.0939         22.3086 
       0.779291         40.8691          21.916 
       0.785407         40.4773         21.5324 
       0.791564          39.848         21.1556 
       0.797719         39.0763         20.7881 
       0.803834         38.9726         20.4318 
       0.809972         38.3463         20.0827 
       0.816124         37.8316         19.7411 
       0.822261          37.524         19.4084 
       0.828378         37.2801         19.0846 
       0.834502         36.8105          18.768 
       0.840667         36.4177         18.4566 
       0.846816         35.8493         18.1532 
       0.852925         35.5674         17.8586 
       0.859047         35.1032           17.57 
       0.865192         34.7948          17.287 
       0.871341         34.6513           17.01 
       0.877463         33.9533         16.7404 
       0.883569         33.6711         16.4774 
       0.889708          33.412         16.2188 
       0.895864         33.0705         15.9651 
       0.902008         32.7693         15.7175 
       0.908149         32.4515         15.4753 
       0.914301         32.2985         15.2378 
       0.920448          31.841         15.0056 
       0.926574          31.521         14.7791 
       0.932687         31.2406         14.5578 
       0.938823         30.7845         14.3402 
       0.944975         30.6565         14.1267 
       0.951105         30.3334         13.9183 
       0.957225         29.9582         13.7145 
       0.963368         29.9447         13.5141 
       0.969511         29.6088         13.3178 
       0.975621         29.3708         13.1264 
       0.981748         28.9613         12.9383 
       0.987916         28.7772         12.7528 
        0.99406         28.5585         12.5716 
        1.00019         28.2194         12.3943 
        1.00632         28.0458         12.2207 
        1.01246         27.9054         12.0501 
        1.01859         27.4485         11.8831 
        1.02471         27.4148         11.7195 
        1.03085          27.165         11.5585 
        1.03698         26.7664         11.4008 
        1.04314         26.5925         11.2455 
        1.04929         26.3756         11.0934 
        1.05541         26.0922         10.9448 
        1.06154         26.0196         10.7985 
        1.06769         25.8023         10.6548 
        1.07382          25.576         10.5141 
        1.07993         25.4408         10.3763 
        1.08607         25.1126         10.2405 
        1.09222          25.022          10.107 
        1.09836         24.7648         9.97599 
        1.10449         24.5849         9.84751 
        1.11063         24.2721         9.72118 
        1.11677         24.1923         9.59712 
         1.1229         24.0651         9.47547 
        1.12903         23.7578         9.35583 
        1.13518         23.6501         9.23817 
        1.14131         23.5507         9.12262 
        1.14745         23.2677         9.00912 
        1.15359         23.2256         8.89755 
        1.15973         22.9441         8.78783 
        1.16584         22.7236         8.68047 
        1.17197         22.7273         8.57477 
        1.17811         22.4315         8.47051 
        1.18424          22.258          8.3683 
        1.19038         22.1932          8.2675 
        1.19652         22.0698          8.1684 
        1.20267         21.8992         8.07094 
        1.20881         21.6999         7.97509 
        1.21495         21.5634         7.88096 
        1.22108         21.4139         7.78838 
         1.2272         21.1981         7.69751 
        1.23334         21.1294         7.60789 
        1.23949         20.9808          7.5195 
        1.24562         20.8362         7.43276 
        1.25174         20.7418         7.34754 
        1.25789         20.5599          7.2634 
        1.26402         20.4697         7.18073 
        1.27014         20.2284         7.09957 
        1.27628         20.1221         7.01943 
        1.28244         20.0348         6.94038 
        1.28858         19.9452         6.86266 
        1.29471         19.8017         6.78631 
        1.30084          19.668         6.71121 
        1.30697         19.5206         6.63714 
        1.31312         19.3376         6.56408 
        1.31925         19.2529         6.49237 
        1.32537         19.1809          6.4218 
        1.33151         19.0219         6.35204 
        1.33765         18.9595         6.28337 
        1.34378         18.8308         6.21585 
        1.34992         18.6206         6.14928 
        1.35606         18.5734         6.08356 
         1.3622         18.4614         6.01891 
        1.36833         18.3188         5.95537 
        1.37445         18.3124         5.89278 
        1.38059         18.1375          5.8309 
        1.38675         17.9367         5.76977 
        1.39288         17.9227         5.70977 
        1.39901         17.7818         5.65064 
        1.40515         17.7133         5.59223 
         1.4113         17.5951         5.53467 
        1.41742         17.4273         5.47814 
        1.42355         17.3995          5.4223 
         1.4297         17.3172         5.36707 
        1.43585         17.2468         5.31265 
        1.44198         17.0821         5.25918 
        1.44809         16.9918         5.20656 
        1.45423         16.9159         5.15447 
        1.46036         16.8491         5.10319 
        1.46649         16.7432         5.05259 
        1.47263         16.6099         5.00265 
        1.47877         16.5461          4.9534 
        1.48491         16.4851         4.90474 
        1.49104         16.4163         4.85685 
        1.49718         16.2671         4.80956 
        1.50333         16.2143         4.76283 
        1.50947         16.1404         4.71682 
         1.5156         16.0081         4.67149 
        1.52172          15.911         4.62676 
        1.52787         15.8929         4.58253 
          1.534          15.753         4.53893 
        1.54013         15.6284         4.49595 
        1.54627          15.585         4.45345 
        1.55241          15.494          4.4115 
        1.55855         15.3976         4.37015 
        1.56467         15.3302         4.32945 
         1.5708         15.3056         4.28915 
        1.57695         15.1538         4.24931 
        1.58308         15.1536         4.21007 
        1.58922         15.0488          4.1713 
        1.59535         14.9515         4.13304 
         1.6015         14.8747          4.0952 
        1.60764         14.8361         4.05786 
        1.61376         14.7152         4.02109 
        1.61989          14.625         3.98475 
        1.62604          14.609         3.94877 
        1.63218         14.5143         3.91327 
        1.63831         14.4754         3.87828 
        1.64444         14.3484         3.84371 
        1.65059         14.2818         3.80949 
        1.65673         14.2346         3.77572 
        1.66285         14.1503         3.74245 
        1.66898         14.1209         3.70958 
        1.67512         14.0513         3.67704 
        1.68127          13.975         3.64486 
         1.6874         13.8857         3.61315 
        1.69353         13.8185         3.58183 
        1.69967         13.7455         3.55081 
        1.70581         13.6931         3.52017 
        1.71193         13.6247         3.49001 
        1.71806         13.5532         3.46014 
        1.72421         13.4944         3.43056 
        1.73035         13.4201         3.40137 
        1.73649         13.3758         3.37252 
        1.74262         13.3488         3.34404 
        1.74876          13.269         3.31586 
        1.75489         13.2063         3.28807 
        1.76101         13.1225          3.2606 
        1.76715         13.0992         3.23342 
        1.77329         13.0107         3.20651 
        1.77943         12.9497          3.1799 
        1.78557         12.9161         3.15363 
        1.79171         12.8662         3.12766 
        1.79785         12.7528         3.10197 
        1.80399         12.7137         3.07658 
        1.81012         12.7062         3.05151 
        1.81625         12.6194         3.02673 
        1.82239         12.5836         3.00219 
        1.82853         12.4803         2.97794 
        1.83466         12.4096         2.95398 
        1.84078         12.3588          2.9303 
        1.84692         12.3464         2.90686 
        1.85306         12.2665         2.88363 
         1.8592         12.2235          2.8607 
        1.86533         12.1874         2.83804 
        1.87147         12.1188         2.81559 
        1.87761         12.0893         2.79338 
        1.88375         11.9985         2.77143 
        1.88988         11.9607         2.74975 
        1.89601         11.9138         2.72828 
        1.90215         11.8546         2.70703 
        1.90829         11.8204         2.68602 
        1.91442         11.7743         2.66523 
        1.92056         11.7156         2.64468 
         1.9267         11.6649         2.62432 
        1.93284         11.6025         2.60417 
        1.93897         11.5558         2.58427 
        1.94509         11.5042         2.56462 
        1.95123         11.4668         2.54513 
        1.95737         11.4304         2.52582 
        1.96349         11.3706         2.50677 
        1.96964         11.3155         2.48786 
        1.97578         11.2741         2.46914 
        1.98192         11.2206         2.45064 
        1.98805         11.1911         2.43234 
        1.99419         11.1244         2.41422 
        2.00033         11.0759         2.39628 
        2.00647         11.0381         2.37853 
         2.0126         10.9998         2.36098 
        2.01874          10.932         2.34359 
        2.02488         10.8857         2.32636 
        2.03101         10.8736         2.30934 
        2.03714          10.834          2.2925 
        2.04328         10.7653         2.27581 
        2.04941         10.7019          2.2593 
        2.05554         10.7073         2.24297 
        2.06167         10.6427         2.22678 
        2.06781         10.6181         2.21075 
        2.07396         10.5893         2.19485 
        2.08009         10.5402         2.17914 
        2.08622         10.4483         2.16359 
        2.09237         10.4466         2.14818 
        2.09851         10.4043         2.13291 
        2.10464         10.3585         2.11781 
        2.11077         10.3015         2.10288 
        2.11691          10.274         2.08806 
        2.12305         10.2505         2.07338 
        2.12918         10.1818         2.05888 
        2.13531         10.1618         2.04452 
        2.14145         10.1053         2.03026 
         2.1476         10.1041         2.01612 
        2.15372         10.0438         2.00219 
        2.15985         9.98717         1.98838 
        2.16599         9.97779         1.97465 
        2.17213         9.92679         1.96108 
        2.17827          9.9037         1.94763 
         2.1844         9.86133         1.93432 
        2.19054          9.8087         1.92113 
        2.19666         9.80155         1.90809 
         2.2028         9.75643         1.89515 
        2.20893         9.71606         1.88233 
        2.21508         9.65445         1.86961 
        2.22122         9.62802         1.85701 
        2.22736         9.60049         1.84455 
        2.23349         9.54941         1.83221 
        2.23962         9.51514         1.81997 
        2.24577         9.48241         1.80784 
         2.2519         9.47019         1.79583 
        2.25802          9.4216         1.78396 
        2.26417         9.39926         1.77215 
        2.27031           9.336         1.76045 
        2.27644         9.31594         1.74888 
        2.28257         9.27719         1.73742 
        2.28872         9.25649         1.72604 
        2.29486         9.22457         1.71477 
        2.30099         9.20659         1.70361 
        2.30712         9.15399         1.69256 
        2.31326         9.12737         1.68158 
         2.3194         9.08974         1.67071 
        2.32553         9.05027         1.65995 
        2.33166         9.00163         1.64929 
         2.3378         8.98586         1.63871 
        2.34394         8.96051         1.62822 
        2.35007         8.91055         1.61784 
        2.35619         8.86855         1.60756 
        2.36233          8.8492         1.59735 
        2.36848         8.84167          1.5872 
        2.37462         8.81028         1.57717 
        2.38075         8.74537         1.56723 
        2.38689         8.72431         1.55737 
        2.39303         8.69633         1.54759 
        2.39916         8.68284         1.53791 
        2.40529         8.64059         1.52832 
        2.41143         8.62242          1.5188 
        2.41757         8.58921         1.50935 
         2.4237         8.55977         1.50001 
        2.42983          8.5132         1.49074 
        2.43598         8.51518         1.48153 
        2.44211         8.46727         1.47241 
        2.44823         8.42927         1.46339 
        2.45437         8.42677         1.45442 
        2.46052         8.37032         1.44552 
        2.46665         8.33637         1.43671 
        2.47279         8.30691         1.42798 
        2.47892         8.29089         1.41931 
        2.48507         8.26365         1.41071 
         2.4912         8.23906         1.40219 
