# k  (h/Mpc)    P(k)  (Mpc/h)^3    P_linear(k)  (Mpc/h)^3
     0.00783031         9179.37         9265.76 
       0.013688         10048.7         10262.3 
       0.019231         9334.26         9434.33 
      0.0249154         7958.23         7914.02 
      0.0312784         6194.11         6197.55 
      0.0375637         4862.98         4887.83 
      0.0433917         4102.44         4085.59 
      0.0492413         3594.51         3598.91 
      0.0555754         3306.05         3286.17 
      0.0619321         2994.34         3046.74 
       0.067871         2785.47         2796.67 
      0.0738098         2496.94         2491.64 
      0.0800417         2159.32         2137.86 
      0.0862327         1822.01         1805.11 
      0.0921407         1574.33         1546.69 
      0.0982031         1402.13         1359.01 
       0.104506         1258.95         1239.76 
       0.110769         1194.71         1173.15 
       0.116806         1159.87         1128.62 
       0.122832         1095.73         1078.58 
       0.129052         1026.95         1006.82 
       0.135211         953.391         916.094 
       0.141259         850.984         819.338 
       0.147318         758.348         729.076 
       0.153489          691.25         654.806 
       0.159709         648.905         601.916 
       0.165845         599.224         568.603 
       0.171974         590.564         547.151 
       0.178125          569.19          529.29 
       0.184229         535.233         508.536 
        0.19034         516.076         481.523 
       0.196428         488.532         449.085 
       0.202534         445.058         414.429 
       0.208729         426.637          381.36 
       0.214876         401.797         353.803 
       0.220989         373.332         332.774 
       0.227147         363.636         317.311 
        0.23329         349.973         305.635 
       0.239377         343.489         295.412 
       0.245482          326.07         284.548 
       0.251667         311.304          271.93 
       0.257832         304.642         257.856 
       0.263955          284.71         243.298 
       0.270079         270.573         229.359 
        0.27624         257.976         216.918 
       0.282372         249.773         206.543 
        0.28843          246.55         198.154 
       0.294538         234.304         191.026 
       0.300721         225.841           184.5 
        0.30691         221.564         178.018 
       0.313033         210.995         171.334 
       0.319153         206.624         164.324 
       0.325316         200.082         157.171 
        0.33145         193.304         150.264 
       0.337538         185.572         143.921 
       0.343633         179.553         138.225 
       0.349808         173.845         133.135 
       0.355968         169.769         128.599 
       0.362074         164.901         124.442 
       0.368217         161.768         120.422 
       0.374374         157.331         116.412 
       0.380519         150.617         112.408 
       0.386598         147.639         108.474 
       0.392688         142.808         104.636 
        0.39888         139.991         100.934 
       0.405048         136.352         97.4966 
       0.411186         134.261         94.3325 
       0.417313         131.046         91.4112 
       0.423458         127.499         88.6568 
       0.429607          124.06         86.0176 
       0.435692         122.143         83.4853 
       0.441815          118.76         80.9897 
       0.447964         115.074         78.5332 
       0.454126          112.97         76.1448 
       0.460267         111.708         73.8593 
       0.466387         108.614         71.6873 
        0.47254         107.322         69.6158 
       0.478662         103.693         67.6671 
       0.484765         101.984          65.819 
       0.490885         99.7302         64.0407 
       0.497035          98.692         62.3135 
       0.503198         96.8504         60.6372 
       0.509342         94.2861         59.0155 
       0.515458         92.6235         57.4482 
       0.521598         90.2091         55.9262 
       0.527764         89.3436         54.4548 
       0.533884         88.5422         53.0549 
           0.54         86.0812         51.7136 
       0.546137         84.0272         50.4196 
       0.552299         82.4922         49.1674 
       0.558452         81.0874         47.9601 
       0.564573         80.6336         46.7982 
       0.570708         78.2805         45.6702 
       0.576825         77.3935         44.5797 
       0.582926          76.458         43.5249 
       0.589034         75.0225         42.5021 
       0.595184         73.9792          41.506 
       0.601379         72.4393         40.5375 
       0.607522         70.7768         39.6103 
       0.613639         70.2657         38.7176 
       0.619772         68.8804          37.851 
       0.625918         68.4029          37.009 
       0.632068         66.8182         36.1911 
       0.638161          65.949         35.4044 
         0.6443         65.4625          34.635 
       0.650464         63.8799         33.8856 
       0.656582          63.617         33.1641 
       0.662703         62.6996          32.464 
       0.668861         61.3015         31.7806 
       0.675024         61.1377         31.1167 
       0.681124         60.1018         30.4786 
       0.687237         59.1481         29.8572 
       0.693381          58.338         29.2502 
       0.699536         57.7127         28.6589 
       0.705665         56.9736         28.0865 
       0.711789         56.0693         27.5303 
       0.717957         55.3058         26.9855 
        0.72409         54.6693         26.4585 
       0.730186          54.339         25.9489 
       0.736317         53.4708         25.4502 
       0.742472         52.5661         24.9628 
       0.748622         51.8398         24.4887 
        0.75476         51.5676          24.028 
       0.760888         51.1651         23.5799 
       0.767043         50.0622         23.1415 
       0.773185         49.3431         22.7152 
       0.779291         48.8475          22.302 
       0.785407         48.4102         21.8985 
       0.791564         48.1321         21.5024 
       0.797719          47.213         21.1164 
       0.803834         46.9857         20.7424 
       0.809972         46.4799         20.3761 
       0.816124         45.8067         20.0179 
       0.822261         45.1767         19.6693 
       0.828378          45.054         19.3302 
       0.834502         44.4898         18.9987 
       0.840667         44.0782         18.6729 
       0.846816          43.582         18.3558 
       0.852925          43.035          18.048 
       0.859047         42.8623         17.7466 
       0.865192         42.2347         17.4512 
       0.871341         41.7879         17.1623 
       0.877463         41.2982         16.8812 
       0.883569         41.2554         16.6072 
       0.889708         40.7259         16.3379 
       0.895864         40.4064         16.0739 
       0.902008         39.9491         15.8163 
       0.908149         39.4077         15.5645 
       0.914301         39.1562         15.3178 
       0.920448         39.0698         15.0767 
       0.926574         38.3188         14.8417 
       0.932687         38.0554         14.6121 
       0.938823         37.6863         14.3866 
       0.944975         37.2396         14.1654 
       0.951105         36.9587         13.9496 
       0.957225         36.7103         13.7388 
       0.963368         36.3929         13.5315 
       0.969511         36.0689         13.3286 
       0.975621          35.729         13.1309 
       0.981748         35.4324         12.9367 
       0.987916         35.0642         12.7452 
        0.99406          34.868         12.5584 
        1.00019          34.461         12.3756 
        1.00632         34.2184         12.1967 
        1.01246         33.9602         12.0211 
        1.01859         33.7053         11.8492 
        1.02471         33.3945         11.6808 
        1.03085         33.1166         11.5152 
        1.03698         32.9479         11.3532 
        1.04314         32.6341         11.1935 
        1.04929         32.2739         11.0374 
        1.05541         32.1859         10.8848 
        1.06154         31.8604         10.7347 
        1.06769         31.5428         10.5873 
        1.07382         31.2723         10.4431 
        1.07993         31.1441         10.3019 
        1.08607         30.8319         10.1627 
        1.09222         30.6724          10.026 
        1.09836          30.438         9.89197 
        1.10449         30.2423         9.76054 
        1.11063         29.9566         9.63136 
        1.11677         29.8852         9.50456 
         1.1229         29.5521         9.38027 
        1.12903         29.3517          9.2581 
        1.13518         29.2351         9.13801 
        1.14131         28.9731         9.02011 
        1.14745         28.7537         8.90437 
        1.15359         28.4058         8.79063 
        1.15973         28.4057         8.67884 
        1.16584         28.1397          8.5695 
        1.17197         27.8649         8.46189 
        1.17811            27.7          8.3558 
        1.18424         27.3492         8.25183 
        1.19038         27.2161         8.14935 
        1.19652         27.1043         8.04864 
        1.20267         26.8975         7.94963 
        1.20881          26.726         7.85232 
        1.21495         26.6526         7.75678 
        1.22108         26.5347         7.66285 
         1.2272            26.2          7.5707 
        1.23334         26.1041         7.47985 
        1.23949         25.9139         7.39028 
        1.24562         25.7483         7.30242 
        1.25174         25.5834         7.21612 
        1.25789         25.4046         7.13096 
        1.26402         25.2734         7.04732 
        1.27014          25.161         6.96523 
        1.27628         24.9146          6.8842 
        1.28244         24.9426         6.80431 
        1.28858         24.6332         6.72579 
        1.29471         24.4328         6.64868 
        1.30084         24.2833         6.57285 
        1.30697         24.2436         6.49809 
        1.31312         24.0549         6.42438 
        1.31925         23.8513         6.35205 
        1.32537         23.6784          6.2809 
        1.33151         23.5285         6.21059 
        1.33765         23.5054         6.14139 
        1.34378         23.3736         6.07338 
        1.34992         23.1527         6.00636 
        1.35606         22.9353          5.9402 
         1.3622          22.908         5.87515 
        1.36833         22.8291         5.81124 
        1.37445         22.5948         5.74831 
        1.38059         22.4603         5.68612 
        1.38675         22.3897          5.6247 
        1.39288         22.2416         5.56443 
        1.39901          22.072         5.50508 
        1.40515         21.9704         5.44645 
         1.4113         21.9117         5.38871 
        1.41742         21.7615         5.33201 
        1.42355         21.5546         5.27603 
         1.4297          21.535         5.22069 
        1.43585         21.4032         5.16616 
        1.44198          21.252         5.11262 
        1.44809         21.1067         5.05994 
        1.45423         21.0484          5.0078 
        1.46036         20.9714          4.9565 
        1.46649         20.7991         4.90589 
        1.47263         20.6876         4.85595 
        1.47877         20.5569         4.80673 
        1.48491          20.446         4.75811 
        1.49104         20.3332         4.71027 
        1.49718         20.3169         4.66304 
        1.50333         20.1919         4.61639 
        1.50947         19.9876         4.57047 
         1.5156         19.9834         4.52524 
        1.52172         19.8331         4.48062 
        1.52787         19.8019         4.43652 
          1.534         19.6103         4.39305 
        1.54013         19.6268         4.35022 
        1.54627         19.4461         4.30788 
        1.55241          19.365         4.26609 
        1.55855         19.2423         4.22492 
        1.56467         19.1076          4.1844 
         1.5708         19.0924          4.1443 
        1.57695         18.9854         4.10466 
        1.58308          18.829         4.06563 
        1.58922         18.7616         4.02708 
        1.59535         18.6886         3.98905 
         1.6015         18.6369         3.95146 
        1.60764         18.4802         3.91436 
        1.61376         18.3916         3.87785 
        1.61989         18.2755         3.84177 
        1.62604         18.1925         3.80606 
        1.63218         18.0623         3.77084 
        1.63831         18.0259         3.73614 
        1.64444         17.9629         3.70186 
        1.65059         17.8385         3.66793 
        1.65673         17.7859         3.63447 
        1.66285         17.7122         3.60151 
        1.66898         17.6168         3.56895 
        1.67512         17.5469         3.53673 
        1.68127         17.4532         3.50488 
         1.6874         17.3901         3.47349 
        1.69353         17.2733         3.44251 
        1.69967         17.1856         3.41183 
        1.70581         17.1331         3.38153 
        1.71193         17.0484         3.35172 
        1.71806         16.9799          3.3222 
        1.72421         16.9067         3.29298 
        1.73035          16.819         3.26414 
        1.73649         16.6918         3.23566 
        1.74262         16.6426         3.20753 
        1.74876         16.6327         3.17972 
        1.75489          16.487          3.1523 
        1.76101         16.4377         3.12521 
        1.76715         16.3132         3.09839 
        1.77329         16.2468         3.07186 
        1.77943         16.2079         3.04563 
        1.78557         16.1674         3.01974 
        1.79171         16.0735         2.99415 
        1.79785         15.9835         2.96884 
        1.80399         15.8779         2.94384 
        1.81012         15.8607         2.91916 
        1.81625         15.7416         2.89477 
        1.82239         15.6885         2.87062 
        1.82853         15.6265         2.84676 
        1.83466         15.5475         2.82319 
        1.84078         15.4691         2.79991 
        1.84692         15.4086         2.77686 
        1.85306         15.3588         2.75404 
         1.8592         15.3347         2.73151 
        1.86533         15.2443         2.70924 
        1.87147         15.1524          2.6872 
        1.87761         15.0894         2.66539 
        1.88375         15.0195         2.64385 
        1.88988         14.9588         2.62257 
        1.89601         14.9028         2.60151 
        1.90215         14.8337         2.58067 
        1.90829         14.7881         2.56006 
        1.91442         14.6872         2.53968 
        1.92056         14.6597         2.51954 
         1.9267         14.6034         2.49959 
        1.93284          14.553         2.47985 
        1.93897         14.4697         2.46036 
        1.94509         14.4231         2.44112 
        1.95123         14.3366         2.42204 
        1.95737         14.2679         2.40314 
        1.96349         14.2382          2.3845 
        1.96964         14.1729           2.366 
        1.97578         14.1315         2.34768 
        1.98192         14.0503          2.3296 
        1.98805         13.9916         2.31171 
        1.99419         13.9322           2.294 
        2.00033         13.8681         2.27647 
        2.00647         13.8165         2.25913 
         2.0126         13.7358         2.24199 
        2.01874         13.7024         2.22501 
        2.02488         13.6345         2.20819 
        2.03101         13.5835         2.19157 
        2.03714          13.532         2.17514 
        2.04328         13.4681         2.15885 
        2.04941         13.4073         2.14275 
        2.05554         13.3855         2.12682 
        2.06167         13.3416         2.11103 
        2.06781         13.2824          2.0954 
        2.07396         13.2249         2.07991 
        2.08009         13.1564          2.0646 
        2.08622         13.1243         2.04946 
        2.09237         13.0642         2.03444 
        2.09851         13.0226         2.01957 
        2.10464         12.9384         2.00487 
        2.11077         12.9021         1.99034 
        2.11691         12.8476         1.97591 
        2.12305         12.8096         1.96163 
        2.12918         12.7517         1.94753 
        2.13531         12.7076         1.93356 
        2.14145         12.6545          1.9197 
         2.1476         12.5816         1.90595 
        2.15372         12.5812         1.89241 
        2.15985         12.5094         1.87899 
        2.16599         12.4489         1.86565 
        2.17213         12.4072         1.85247 
        2.17827         12.3511         1.83941 
         2.1844         12.2986         1.82649 
        2.19054         12.3004         1.81368 
        2.19666         12.2185         1.80102 
         2.2028         12.1937         1.78847 
        2.20893         12.1142         1.77603 
        2.21508         12.0753          1.7637 
        2.22122         12.0217         1.75147 
        2.22736         12.0012         1.73939 
        2.23349         11.9388         1.72743 
        2.23962         11.9098         1.71557 
        2.24577         11.8602         1.70381 
         2.2519         11.7992         1.69218 
        2.25802         11.7434         1.68068 
        2.26417          11.747         1.66925 
        2.27031         11.6764         1.65791 
        2.27644         11.6376         1.64672 
        2.28257         11.5869         1.63562 
        2.28872         11.5665         1.62461 
        2.29486         11.5376         1.61371 
        2.30099         11.4567         1.60292 
        2.30712         11.4347         1.59223 
        2.31326         11.3729         1.58161 
         2.3194         11.3451          1.5711 
        2.32553         11.2889         1.56071 
        2.33166         11.2393         1.55041 
         2.3378         11.2187         1.54019 
        2.34394         11.1687         1.53005 
        2.35007         11.1383         1.52003 
        2.35619         11.1059          1.5101 
        2.36233         11.0307         1.50024 
        2.36848         11.0053         1.49045 
        2.37462         10.9716         1.48076 
        2.38075         10.9172         1.47117 
        2.38689          10.886         1.46166 
        2.39303         10.8395         1.45223 
        2.39916         10.8025          1.4429 
        2.40529         10.7642         1.43364 
        2.41143         10.7174         1.42447 
        2.41757         10.6663         1.41536 
         2.4237         10.6404         1.40636 
        2.42983         10.6177         1.39743 
        2.43598         10.5806         1.38856 
        2.44211         10.5382         1.37978 
        2.44823         10.4803         1.37109 
        2.45437         10.4744         1.36245 
        2.46052         10.4203         1.35389 
        2.46665         10.4021         1.34541 
        2.47279          10.348           1.337 
        2.47892          10.313         1.32866 
        2.48507         10.2867         1.32039 
         2.4912         10.2256          1.3122 
