# k  (h/Mpc)    Pcb(k)  (Mpc/h)^3    Pcb_linear(k)  (Mpc/h)^3
     0.00783031         7996.04         8055.04 
       0.013688         8769.42         8935.42 
       0.019231         8145.12         8220.03 
      0.0249154         6938.25         6898.06 
      0.0312784         5404.64         5403.33 
      0.0375637          4244.5         4262.13 
      0.0433917         3578.75         3562.95 
      0.0492413         3136.29         3138.76 
      0.0555754          2883.9         2866.17 
      0.0619321          2615.5         2657.46 
       0.067871         2431.54         2439.42 
      0.0738098          2178.1         2173.41 
      0.0800417         1882.73         1864.86 
      0.0862327         1588.13         1574.62 
      0.0921407         1370.59         1349.22 
      0.0982031         1219.44         1185.51 
       0.104506         1095.64          1081.5 
       0.110769         1039.58         1023.41 
       0.116806         1009.07         984.564 
       0.122832         953.663         940.918 
       0.129052         894.213         878.323 
       0.135211         828.334          799.18 
       0.141259         739.219         714.775 
       0.147318         658.052         636.035 
       0.153489         599.111         571.245 
       0.159709         561.207         525.106 
       0.165845         518.758         496.046 
       0.171974         510.981         477.332 
       0.178125          492.34         461.751 
       0.184229         464.056         443.645 
        0.19034         446.808         420.079 
       0.196428         422.181         391.783 
       0.202534         384.495         361.549 
       0.208729         367.446         332.701 
       0.214876          345.93         308.659 
       0.220989         321.161         290.314 
       0.227147         312.674         276.824 
        0.23329         301.013         266.638 
       0.239377         294.892         257.719 
       0.245482         280.274         248.242 
       0.251667         267.299         237.235 
       0.257832         261.339         224.956 
       0.263955         244.039         212.257 
       0.270079         231.686         200.096 
        0.27624         220.694         189.243 
       0.282372         213.281         180.193 
        0.28843         210.331         172.873 
       0.294538         200.136         166.654 
       0.300721         192.587          160.96 
        0.30691         188.928         155.306 
       0.313033         180.062         149.475 
       0.319153         176.212         143.359 
       0.325316          170.07         137.119 
        0.33145         164.037         131.094 
       0.337538         157.526         125.559 
       0.343633         152.413          120.59 
       0.349808         147.428         116.149 
       0.355968         143.762         112.193 
       0.362074         139.984         108.565 
       0.368217         136.943         105.058 
       0.374374         133.114         101.561 
       0.380519         127.416         98.0667 
       0.386598         124.651          94.635 
       0.392688         120.481         91.2868 
        0.39888         118.192         88.0572 
       0.405048         115.087         85.0579 
       0.411186         112.974         82.2979 
       0.417313         110.105          79.749 
       0.423458         107.112         77.3461 
       0.429607         104.391         75.0437 
       0.435692         102.788         72.8344 
       0.441815         99.6459         70.6573 
       0.447964         96.4823         68.5141 
       0.454126         94.6556         66.4305 
       0.460267         93.6523         64.4365 
       0.466387         91.0213         62.5417 
        0.47254         89.8989         60.7344 
       0.478662          86.743         59.0344 
       0.484765         85.2644         57.4221 
       0.490885          83.195         55.8705 
       0.497035         82.3834         54.3638 
       0.503198         80.6663         52.9013 
       0.509342         78.5019         51.4863 
       0.515458         77.1295         50.1192 
       0.521598         75.1108         48.7913 
       0.527764         74.3041         47.5077 
       0.533884          73.587         46.2864 
           0.54         71.4969         45.1162 
       0.546137         69.7288         43.9873 
       0.552299         68.3843         42.8948 
       0.558452          67.161         41.8416 
       0.564573         66.7571         40.8279 
       0.570708         64.7945         39.8438 
       0.576825         64.0816         38.8924 
       0.582926          63.252         37.9722 
       0.589034         62.0144         37.0798 
       0.595184          61.123         36.2109 
       0.601379         59.7565          35.366 
       0.607522         58.4273          34.557 
       0.613639         57.9703         33.7782 
       0.619772          56.743         33.0222 
       0.625918         56.2711         32.2875 
       0.632068         55.1314          31.574 
       0.638161         54.2531         30.8877 
         0.6443         53.8321         30.2164 
       0.650464         52.4833         29.5627 
       0.656582         52.2832         28.9332 
       0.662703         51.4606         28.3224 
       0.668861         50.2899         27.7262 
       0.675024         50.0773          27.147 
       0.681124         49.3085         26.5903 
       0.687237         48.4397         26.0482 
       0.693381           47.77         25.5186 
       0.699536          47.252         25.0028 
       0.705665         46.5918         24.5034 
       0.711789         45.8497         24.0182 
       0.717957         45.1733         23.5428 
        0.72409         44.6468         23.0831 
       0.730186         44.3417         22.6385 
       0.736317          43.571         22.2034 
       0.742472         42.9163         21.7782 
       0.748622         42.3106         21.3646 
        0.75476         41.8826         20.9627 
       0.760888         41.6597         20.5717 
       0.767043         40.7421         20.1893 
       0.773185         40.1539         19.8173 
       0.779291         39.7258         19.4568 
       0.785407         39.3239         19.1048 
       0.791564           39.16         18.7593 
       0.797719         38.3411         18.4225 
       0.803834         38.1371         18.0962 
       0.809972         37.6633         17.7766 
       0.816124         37.1796         17.4642 
       0.822261         36.6344           17.16 
       0.828378         36.5033         16.8641 
       0.834502         36.0355          16.575 
       0.840667          35.689         16.2908 
       0.846816          35.245          16.014 
       0.852925         34.8344         15.7455 
       0.859047         34.6974         15.4826 
       0.865192         34.1417         15.2248 
       0.871341          33.764         14.9728 
       0.877463         33.3606         14.7276 
       0.883569         33.2829         14.4886 
       0.889708          32.843         14.2536 
       0.895864         32.5386         14.0233 
       0.902008         32.2123         13.7985 
       0.908149         31.7627         13.5789 
       0.914301         31.5113         13.3637 
       0.920448         31.3914         13.1533 
       0.926574         30.8782         12.9482 
       0.932687         30.5903          12.748 
       0.938823          30.235         12.5513 
       0.944975         29.9221         12.3583 
       0.951105         29.7171           12.17 
       0.957225         29.4621         11.9861 
       0.963368         29.2009         11.8053 
       0.969511         28.9174         11.6282 
       0.975621         28.6868         11.4557 
       0.981748         28.3984         11.2863 
       0.987916         28.1232         11.1193 
        0.99406         27.8853         10.9563 
        1.00019         27.6185         10.7968 
        1.00632         27.4283         10.6407 
        1.01246         27.1655         10.4875 
        1.01859         26.9459         10.3375 
        1.02471         26.6951         10.1907 
        1.03085         26.4982         10.0462 
        1.03698         26.3536          9.9048 
        1.04314         26.0825         9.76554 
        1.04929         25.7512         9.62928 
        1.05541          25.716         9.49618 
        1.06154         25.4457         9.36526 
        1.06769          25.141         9.23662 
        1.07382         24.9785         9.11082 
        1.07993         24.8321         8.98764 
        1.08607         24.5781         8.86624 
        1.09222         24.4241         8.74696 
        1.09836         24.2111         8.63002 
        1.10449         24.0821         8.51536 
        1.11063         23.8438         8.40266 
        1.11677         23.7838         8.29204 
         1.1229         23.5167          8.1836 
        1.12903         23.3234         8.07702 
        1.13518         23.2563         7.97224 
        1.14131          23.033         7.86939 
        1.14745         22.8267         7.76841 
        1.15359         22.5607         7.66918 
        1.15973         22.5316         7.57165 
        1.16584         22.3164         7.47626 
        1.17197         22.0881         7.38238 
        1.17811         21.9575         7.28982 
        1.18424         21.6952         7.19912 
        1.19038          21.602         7.10971 
        1.19652         21.4479         7.02185 
        1.20267         21.3354         6.93547 
        1.20881         21.1646         6.85057 
        1.21495         21.1046         6.76723 
        1.22108         20.9824         6.68528 
         1.2272         20.7411         6.60488 
        1.23334         20.6559         6.52562 
        1.23949          20.496         6.44748 
        1.24562         20.3438         6.37083 
        1.25174         20.2246         6.29554 
        1.25789         20.0851         6.22124 
        1.26402         19.9741         6.14827 
        1.27014         19.8564         6.07666 
        1.27628         19.6702         6.00596 
        1.28244         19.6875         5.93626 
        1.28858         19.4418         5.86776 
        1.29471         19.2901         5.80049 
        1.30084         19.1721         5.73433 
        1.30697         19.0873         5.66911 
        1.31312          18.954         5.60481 
        1.31925         18.8045          5.5417 
        1.32537         18.6563         5.47963 
        1.33151         18.5237         5.41828 
        1.33765         18.5158         5.35791 
        1.34378         18.4024         5.29858 
        1.34992         18.2272         5.24011 
        1.35606          18.065         5.18239 
         1.3622         18.0229         5.12564 
        1.36833         17.9463         5.06988 
        1.37445         17.7863         5.01498 
        1.38059         17.6675         4.96073 
        1.38675          17.613         4.90714 
        1.39288          17.462         4.85456 
        1.39901         17.3424         4.80278 
        1.40515         17.2654         4.75163 
         1.4113         17.1976         4.70125 
        1.41742         17.0881         4.65179 
        1.42355          16.933         4.60296 
         1.4297         16.8809         4.55467 
        1.43585         16.7807          4.5071 
        1.44198          16.708         4.46039 
        1.44809         16.5818         4.41443 
        1.45423         16.5067         4.36894 
        1.46036         16.4347         4.32418 
        1.46649         16.3118         4.28003 
        1.47263         16.2234         4.23646 
        1.47877         16.1021         4.19352 
        1.48491         16.0405          4.1511 
        1.49104         15.9389         4.10936 
        1.49718         15.9269         4.06817 
        1.50333         15.8139         4.02747 
        1.50947         15.6639          3.9874 
         1.5156           15.65         3.94794 
        1.52172         15.5476         3.90902 
        1.52787         15.4999         3.87054 
          1.534         15.3764         3.83262 
        1.54013         15.3513         3.79525 
        1.54627         15.2181         3.75831 
        1.55241         15.1381         3.72185 
        1.55855         15.0517         3.68593 
        1.56467         14.9597         3.65058 
         1.5708           14.93          3.6156 
        1.57695         14.8457         3.58102 
        1.58308         14.7275         3.54697 
        1.58922         14.6709         3.51334 
        1.59535         14.6009         3.48016 
         1.6015         14.5459         3.44736 
        1.60764         14.4541           3.415 
        1.61376         14.3871         3.38314 
        1.61989         14.2625         3.35166 
        1.62604         14.2186         3.32051 
        1.63218         14.1339         3.28978 
        1.63831         14.0722         3.25951 
        1.64444         14.0245         3.22961 
        1.65059         13.9405         3.20001 
        1.65673         13.8752         3.17081 
        1.66285         13.8123         3.14206 
        1.66898          13.741         3.11365 
        1.67512         13.7104         3.08554 
        1.68127         13.6237         3.05776 
         1.6874         13.5732         3.03037 
        1.69353         13.4745         3.00334 
        1.69967         13.3937         2.97657 
        1.70581         13.3641         2.95014 
        1.71193         13.2923         2.92413 
        1.71806         13.2258         2.89838 
        1.72421         13.1769         2.87289 
        1.73035         13.1076         2.84773 
        1.73649         13.0141         2.82288 
        1.74262         12.9943         2.79834 
        1.74876         12.9357         2.77408 
        1.75489         12.8503         2.75015 
        1.76101          12.789         2.72652 
        1.76715         12.7299         2.70312 
        1.77329         12.6694         2.67998 
        1.77943         12.6254         2.65709 
        1.78557         12.5956          2.6345 
        1.79171          12.508         2.61218 
        1.79785         12.4344          2.5901 
        1.80399         12.3625         2.56829 
        1.81012         12.3415         2.54675 
        1.81625         12.2734         2.52547 
        1.82239         12.2112         2.50441 
        1.82853         12.1659         2.48359 
        1.83466          12.101         2.46303 
        1.84078         12.0398         2.44272 
        1.84692         12.0129         2.42261 
        1.85306          11.971          2.4027 
         1.8592         11.9248         2.38304 
        1.86533         11.8665         2.36362 
        1.87147         11.7936         2.34439 
        1.87761         11.7541         2.32536 
        1.88375         11.6962         2.30657 
        1.88988         11.6457           2.288 
        1.89601         11.6023         2.26963 
        1.90215          11.532         2.25145 
        1.90829         11.4974         2.23347 
        1.91442         11.4283         2.21569 
        1.92056         11.3886         2.19811 
         1.9267         11.3522         2.18071 
        1.93284         11.3341         2.16349 
        1.93897         11.2488         2.14649 
        1.94509         11.2162          2.1297 
        1.95123         11.1463         2.11305 
        1.95737         11.0802         2.09657 
        1.96349         11.0663          2.0803 
        1.96964         11.0417         2.06416 
        1.97578         10.9881         2.04819 
        1.98192         10.9303         2.03241 
        1.98805         10.8697          2.0168 
        1.99419         10.8511         2.00135 
        2.00033         10.7817         1.98606 
        2.00647         10.7387         1.97092 
         2.0126          10.683         1.95598 
        2.01874         10.6556         1.94116 
        2.02488         10.5984         1.92648 
        2.03101         10.5643         1.91198 
        2.03714         10.5161         1.89765 
        2.04328         10.4855         1.88344 
        2.04941         10.4255         1.86939 
        2.05554         10.4058          1.8555 
        2.06167          10.372         1.84172 
        2.06781         10.3411         1.82809 
        2.07396         10.2869         1.81457 
        2.08009         10.2301         1.80121 
        2.08622         10.1954           1.788 
        2.09237         10.1699          1.7749 
        2.09851         10.1107         1.76193 
        2.10464         10.0734          1.7491 
        2.11077         10.0321         1.73642 
        2.11691         9.98746         1.72384 
        2.12305         9.94715         1.71138 
        2.12918         9.90786         1.69908 
        2.13531         9.88309         1.68689 
        2.14145         9.83021          1.6748 
         2.1476         9.77604          1.6628 
        2.15372           9.789         1.65099 
        2.15985         9.71652         1.63928 
        2.16599         9.68632         1.62765 
        2.17213         9.65213         1.61614 
        2.17827         9.61301         1.60475 
         2.1844          9.5742         1.59348 
        2.19054         9.55708         1.58231 
        2.19666         9.50761         1.57126 
         2.2028         9.47666         1.56031 
        2.20893         9.42368         1.54946 
        2.21508         9.38992          1.5387 
        2.22122         9.35462         1.52804 
        2.22736         9.32591          1.5175 
        2.23349         9.28257         1.50706 
        2.23962         9.25859         1.49671 
        2.24577         9.24239         1.48645 
         2.2519         9.18214         1.47631 
        2.25802         9.14383         1.46627 
        2.26417         9.14109          1.4563 
        2.27031         9.08509         1.44641 
        2.27644         9.06975         1.43664 
        2.28257         9.01858         1.42696 
        2.28872         9.00133         1.41736 
        2.29486         8.97776         1.40784 
        2.30099         8.92195         1.39843 
        2.30712         8.89077          1.3891 
        2.31326         8.85538         1.37984 
         2.3194         8.82459         1.37067 
        2.32553         8.78488          1.3616 
        2.33166         8.74093         1.35262 
         2.3378         8.73797          1.3437 
        2.34394          8.6925         1.33486 
        2.35007         8.67245         1.32611 
        2.35619         8.63827         1.31745 
        2.36233         8.59968         1.30885 
        2.36848          8.5554         1.30031 
        2.37462         8.53129         1.29186 
        2.38075         8.48733         1.28349 
        2.38689         8.48984         1.27519 
        2.39303         8.44015         1.26697 
        2.39916         8.41648         1.25882 
        2.40529         8.38759         1.25075 
        2.41143         8.35033         1.24274 
        2.41757          8.3146          1.2348 
         2.4237         8.28978         1.22695 
        2.42983         8.27013         1.21916 
        2.43598          8.2404         1.21142 
        2.44211          8.2072         1.20375 
        2.44823         8.16887         1.19618 
        2.45437         8.16287         1.18864 
        2.46052         8.11869         1.18117 
        2.46665         8.10411         1.17377 
        2.47279         8.07591         1.16644 
        2.47892         8.03924         1.15916 
        2.48507         8.00966         1.15194 
         2.4912         7.96597          1.1448 
