# k  (h/Mpc)    P(k)  (Mpc/h)^3    P_linear(k)  (Mpc/h)^3
     0.00783031         9196.44         9239.65 
       0.013688         11963.5         12242.4 
       0.019231         13029.6         13213.6 
      0.0249154           12990         13019.7 
      0.0312784         11887.5         12050.5 
      0.0375637           10617         10849.6 
      0.0433917         9694.55         9812.57 
      0.0492413         8770.27         8963.76 
      0.0555754         8132.87         8268.36 
      0.0619321         7388.11         7735.83 
       0.067871         7062.12         7303.13 
      0.0738098         6672.39         6865.44 
      0.0800417         6189.97         6364.33 
      0.0862327         5640.69         5828.21 
      0.0921407         5154.52         5312.82 
      0.0982031         4735.24          4821.4 
       0.104506         4261.57         4385.93 
       0.110769         3948.89         4044.92 
       0.116806         3777.73         3796.84 
       0.122832         3547.85         3607.55 
       0.129052         3386.23         3444.77 
       0.135211         3286.84         3289.02 
       0.141259         3077.81         3123.73 
       0.147318         2863.78         2940.64 
       0.153489          2712.9         2742.35 
       0.159709         2594.87         2544.17 
       0.165845         2369.53          2364.7 
       0.171974         2304.57         2211.48 
       0.178125          2220.7         2087.35 
       0.184229         2056.85         1990.47 
        0.19034         2025.19         1912.13 
       0.196428         1969.89         1843.19 
       0.202534         1857.52         1774.58 
       0.208729         1824.21         1699.92 
       0.214876         1754.41         1619.39 
       0.220989          1657.6         1535.31 
       0.227147         1618.11         1451.25 
        0.23329         1556.75         1372.93 
       0.239377         1538.06         1304.36 
       0.245482         1465.52         1246.02 
       0.251667         1411.83          1196.7 
       0.257832         1395.85          1154.8 
       0.263955         1331.83         1117.14 
       0.270079         1298.34         1080.33 
        0.27624          1245.5         1042.15 
       0.282372          1228.5         1002.31 
        0.28843         1214.35         961.736 
       0.294538         1156.79         921.063 
       0.300721         1130.06         881.789 
        0.30691         1109.07         845.792 
       0.313033         1066.17         814.053 
       0.319153         1052.86         786.141 
       0.325316         1038.87         761.067 
        0.33145         1019.78         738.114 
       0.337538         985.922         716.196 
       0.343633         961.471         694.366 
       0.349808          942.08         671.952 
       0.355968         925.455         649.394 
       0.362074         898.455         627.224 
       0.368217         894.782         605.646 
       0.374374         881.111         585.268 
       0.380519         850.096         566.427 
       0.386598         843.797          549.35 
       0.392688         826.943         533.591 
        0.39888         806.312         518.608 
       0.405048         794.082         504.373 
       0.411186         790.855         490.542 
       0.417313         786.615         476.885 
       0.423458         761.997         463.322 
       0.429607         742.142          449.93 
       0.435692         734.465         437.036 
       0.441815         722.467         424.589 
       0.447964         711.675         412.722 
       0.454126         702.746         401.513 
       0.460267         692.862         391.013 
       0.466387         683.635         381.093 
        0.47254         671.776         371.538 
       0.478662         661.024         362.346 
       0.484765         655.572         353.409 
       0.490885         648.394          344.61 
       0.497035         637.055         335.947 
       0.503198         636.341         327.495 
       0.509342         623.173         319.337 
       0.515458         612.341         311.515 
       0.521598         606.224         303.985 
       0.527764         595.112         296.765 
       0.533884         592.352         289.904 
           0.54         585.497         283.303 
       0.546137         575.804         276.892 
       0.552299         574.316         270.639 
       0.558452         566.927         264.564 
       0.564573         560.214         258.669 
       0.570708         556.134         252.901 
       0.576825         545.476         247.308 
       0.582926         542.478           241.9 
       0.589034         535.489         236.668 
       0.595184         531.087         231.585 
       0.601379         522.768         226.637 
       0.607522          515.19         221.888 
       0.613639         513.333         217.303 
       0.619772         510.825         212.839 
       0.625918         502.581          208.49 
       0.632068         497.999         204.254 
       0.638161         492.906         200.163 
         0.6443         488.876         196.144 
       0.650464         483.596         192.216 
       0.656582         479.376         188.425 
       0.662703         475.155         184.741 
       0.668861          469.59         181.145 
       0.675024         465.844         177.652 
       0.681124         460.863         174.291 
       0.687237         457.943         171.013 
       0.693381         452.713         167.803 
       0.699536         448.997         164.666 
       0.705665         444.757         161.621 
       0.711789         443.747         158.653 
       0.717957         436.834          155.74 
        0.72409         433.266         152.917 
       0.730186         434.859         150.183 
       0.736317         427.209         147.503 
       0.742472          422.48         144.881 
       0.748622         418.943         142.327 
        0.75476         417.173         139.841 
       0.760888         413.669         137.418 
       0.767043         410.616         135.043 
       0.773185          408.56          132.73 
       0.779291         402.238         130.483 
       0.785407         400.902         128.286 
       0.791564         396.873         126.126 
       0.797719         391.387         124.017 
       0.803834         394.176         121.971 
       0.809972         388.369         119.964 
       0.816124         384.467         117.999 
       0.822261         380.799         116.084 
       0.828378         380.182         114.217 
       0.834502         374.448         112.391 
       0.840667         374.289         110.593 
       0.846816         368.682          108.84 
       0.852925         368.394         107.137 
       0.859047         364.696         105.466 
       0.865192         363.999         103.826 
       0.871341         358.858          102.22 
       0.877463         355.574         100.655 
       0.883569         353.874         99.1278 
       0.889708         351.109         97.6244 
       0.895864         348.679         96.1486 
       0.902008         346.618         94.7068 
       0.908149         343.874         93.2957 
       0.914301         342.032         91.9114 
       0.920448         339.576         90.5567 
       0.926574         337.554         89.2345 
       0.932687         334.877         87.9417 
       0.938823           331.8         86.6701 
       0.944975          330.29          85.421 
       0.951105         327.652         84.2012 
       0.957225         324.057         83.0075 
       0.963368         324.003         81.8332 
       0.969511         318.383         80.6816 
       0.975621         318.567         79.5587 
       0.981748         316.137         78.4544 
       0.987916         314.414         77.3642 
        0.99406         311.649         76.2991 
        1.00019         309.064         75.2563 
        1.00632         308.877         74.2341 
        1.01246         306.519         73.2295 
        1.01859         302.626         72.2453 
        1.02471         300.549         71.2805 
        1.03085         300.233         70.3302 
        1.03698          297.59         69.3993 
        1.04314         297.149         68.4814 
        1.04929         294.563         67.5824 
        1.05541           291.6         66.7034 
        1.06154         290.172         65.8379 
        1.06769         287.153         64.9866 
        1.07382         287.261         64.1532 
        1.07993         283.988         63.3365 
        1.08607         281.712         62.5308 
        1.09222         280.744         61.7384 
        1.09836         279.295         60.9607 
        1.10449         276.935         60.1974 
        1.11063         274.592         59.4465 
        1.11677         273.317         58.7088 
         1.1229         271.454         57.9849 
        1.12903         270.475         57.2727 
        1.13518         268.302          56.572 
        1.14131         267.543         55.8835 
        1.14745         263.923         55.2069 
        1.15359         262.017         54.5415 
        1.15973         261.349         53.8869 
        1.16584         260.427          53.246 
        1.17197         258.185         52.6147 
        1.17811         255.986         51.9918 
        1.18424         254.475         51.3808 
        1.19038         253.067         50.7779 
        1.19652         250.492         50.1851 
        1.20267         250.136         49.6017 
        1.20881         248.025         49.0278 
        1.21495         247.405          48.464 
        1.22108         245.467         47.9091 
         1.2272         243.094         47.3644 
        1.23334         242.161         46.8268 
        1.23949         241.391         46.2965 
        1.24562         239.496         45.7758 
        1.25174         237.794          45.264 
        1.25789         235.869         44.7585 
        1.26402         235.626         44.2617 
        1.27014         234.146         43.7736 
        1.27628         231.411         43.2915 
        1.28244         230.849         42.8158 
        1.28858         229.236         42.3479 
        1.29471         228.124          41.888 
        1.30084         226.651         41.4355 
        1.30697         224.762          40.989 
        1.31312         223.491         40.5485 
        1.31925         222.104         40.1159 
        1.32537         221.484           39.69 
        1.33151          219.62         39.2689 
        1.33765         217.963         38.8542 
        1.34378         216.944         38.4463 
        1.34992         215.685          38.044 
        1.35606         214.539         37.6467 
         1.3622         213.332         37.2557 
        1.36833         211.197         36.8713 
        1.37445         210.893         36.4925 
        1.38059         209.201          36.118 
        1.38675         207.874         35.7478 
        1.39288         206.752         35.3843 
        1.39901         205.505         35.0261 
        1.40515         204.384          34.672 
         1.4113         202.965          34.323 
        1.41742         201.244         33.9802 
        1.42355         201.645         33.6414 
         1.4297         199.479         33.3063 
        1.43585         198.261         32.9759 
        1.44198         196.434         32.6512 
        1.44809         195.509         32.3316 
        1.45423         194.968         32.0151 
        1.46036         193.522         31.7033 
        1.46649         192.374         31.3957 
        1.47263          191.53         31.0919 
        1.47877         190.323         30.7923 
        1.48491         188.467         30.4962 
        1.49104           186.8         30.2046 
        1.49718         186.378         29.9166 
        1.50333         185.305         29.6319 
        1.50947         184.346         29.3516 
         1.5156         183.261         29.0753 
        1.52172         182.082         28.8025 
        1.52787         181.225         28.5328 
          1.534          180.08         28.2668 
        1.54013          179.16         28.0046 
        1.54627         178.134         27.7452 
        1.55241         176.992          27.489 
        1.55855         176.155         27.2365 
        1.56467         174.589         26.9878 
         1.5708         173.527         26.7416 
        1.57695         172.893         26.4981 
        1.58308         171.754         26.2582 
        1.58922         170.939         26.0211 
        1.59535         169.645          25.787 
         1.6015         168.293         25.5555 
        1.60764         167.647          25.327 
        1.61376         166.495         25.1019 
        1.61989         165.644         24.8794 
        1.62604         164.458         24.6591 
        1.63218          163.83         24.4416 
        1.63831          162.72         24.2272 
        1.64444         161.667         24.0154 
        1.65059         160.839         23.8056 
        1.65673         159.807         23.5985 
        1.66285         159.302         23.3945 
        1.66898         157.953         23.1928 
        1.67512         157.249         22.9932 
        1.68127         156.084         22.7957 
         1.6874         155.348          22.601 
        1.69353         154.568         22.4086 
        1.69967         153.447         22.2181 
        1.70581         152.918         22.0299 
        1.71193         151.568         21.8445 
        1.71806         150.772          21.661 
        1.72421         150.152         21.4791 
        1.73035         149.157         21.2996 
        1.73649         147.971         21.1222 
        1.74262         147.449         20.9469 
        1.74876         146.508         20.7736 
        1.75489         145.698         20.6025 
        1.76101         144.832         20.4334 
        1.76715         143.786         20.2661 
        1.77329         143.334         20.1003 
        1.77943         141.983         19.9364 
        1.78557         141.613         19.7746 
        1.79171         140.727         19.6145 
        1.79785         139.666         19.4562 
        1.80399         139.059         19.2997 
        1.81012          137.84         19.1451 
        1.81625         137.588         18.9922 
        1.82239         136.586         18.8408 
        1.82853         136.175         18.6912 
        1.83466             135         18.5433 
        1.84078         134.283         18.3972 
        1.84692         133.996         18.2524 
        1.85306         132.762          18.109 
         1.8592         132.119         17.9674 
        1.86533         131.094         17.8274 
        1.87147         130.662         17.6887 
        1.87761         129.644         17.5515 
        1.88375         128.866         17.4158 
        1.88988          127.97         17.2818 
        1.89601         127.704         17.1491 
        1.90215         127.033         17.0177 
        1.90829         125.984         16.8877 
        1.91442         125.077         16.7591 
        1.92056         124.592         16.6319 
         1.9267         123.751          16.506 
        1.93284         123.179         16.3812 
        1.93897         122.443          16.258 
        1.94509         121.735         16.1364 
        1.95123         121.091         16.0157 
        1.95737         120.544         15.8961 
        1.96349          119.81          15.778 
        1.96964          118.99         15.6609 
        1.97578         118.553         15.5448 
        1.98192         117.803         15.4302 
        1.98805         117.143         15.3167 
        1.99419         116.413         15.2044 
        2.00033         115.714         15.0931 
        2.00647         115.097          14.983 
         2.0126         114.507         14.8742 
        2.01874         114.141         14.7662 
        2.02488         113.053         14.6593 
        2.03101         112.721         14.5536 
        2.03714         111.881         14.4491 
        2.04328         111.303         14.3455 
        2.04941         110.703          14.243 
        2.05554         110.351         14.1416 
        2.06167         109.265          14.041 
        2.06781         108.655         13.9414 
        2.07396         108.322         13.8426 
        2.08009         107.604         13.7449 
        2.08622         106.982         13.6483 
        2.09237         106.462         13.5525 
        2.09851         105.902         13.4575 
        2.10464         105.301         13.3637 
        2.11077         104.598         13.2708 
        2.11691         104.226         13.1786 
        2.12305         103.475         13.0873 
        2.12918         103.023         12.9971 
        2.13531         102.564         12.9077 
        2.14145         101.666         12.8189 
         2.1476         101.179         12.7309 
        2.15372         100.703         12.6442 
        2.15985         100.126         12.5582 
        2.16599         99.4643         12.4727 
        2.17213         99.1201         12.3881 
        2.17827           98.37         12.3044 
         2.1844          97.974         12.2215 
        2.19054         97.4582         12.1393 
        2.19666         96.7075          12.058 
         2.2028         96.3736         11.9774 
        2.20893         95.7767         11.8974 
        2.21508         95.1667         11.8181 
        2.22122         94.7878         11.7396 
        2.22736         94.3274         11.6619 
        2.23349         93.7423         11.5849 
        2.23962         93.2959         11.5085 
        2.24577          92.752         11.4328 
         2.2519         92.1364         11.3579 
        2.25802         91.6477         11.2838 
        2.26417         91.1975         11.2101 
        2.27031         90.5874         11.1371 
        2.27644         90.2746         11.0648 
        2.28257         89.7402         10.9933 
        2.28872         89.2764         10.9222 
        2.29486         88.9259         10.8518 
        2.30099         88.1469         10.7821 
        2.30712         87.9507         10.7131 
        2.31326         87.4464         10.6445 
         2.3194         86.7425         10.5766 
        2.32553         86.3678         10.5093 
        2.33166         85.8532         10.4427 
         2.3378         85.6386         10.3766 
        2.34394         85.1163          10.311 
        2.35007         84.4444         10.2461 
        2.35619         83.9968         10.1818 
        2.36233         83.6684         10.1179 
        2.36848         83.1294         10.0545 
        2.37462         82.6467          9.9917 
        2.38075         82.3507         9.92952 
        2.38689         81.9645         9.86782 
        2.39303         81.5264         9.80666 
        2.39916         81.1606         9.74608 
        2.40529         80.5379         9.68601 
        2.41143         80.2081         9.62641 
        2.41757         79.7576         9.56729 
         2.4237         79.3003         9.50877 
        2.42983         78.8822         9.45075 
        2.43598          78.637         9.39306 
        2.44211         77.9155         9.33594 
        2.44823         77.6864         9.27943 
        2.45437         77.3644         9.22324 
        2.46052         76.8725         9.16746 
        2.46665          76.381         9.11225 
        2.47279         76.0087         9.05751 
        2.47892         75.4961         9.00318 
        2.48507         75.1851         8.94925 
         2.4912         74.8363         8.89587 
