# k  (h/Mpc)    P(k)  (Mpc/h)^3    P_linear(k)  (Mpc/h)^3
     0.00783031         2347.39          2363.1 
       0.013688         3088.77          3132.5 
       0.019231         3357.99         3381.82 
      0.0249154         3330.76          3332.7 
      0.0312784         3071.08         3084.95 
      0.0375637         2756.75         2777.72 
      0.0433917         2509.05         2512.36 
      0.0492413         2280.91         2295.12 
      0.0555754         2114.54         2117.13 
      0.0619321         1947.41         1980.82 
       0.067871         1853.92         1870.06 
      0.0738098         1746.07         1758.01 
      0.0800417         1622.57         1629.71 
      0.0862327         1480.66         1492.44 
      0.0921407         1349.67         1360.48 
      0.0982031         1232.28         1234.65 
       0.104506         1111.91         1123.14 
       0.110769         1027.53         1035.82 
       0.116806         975.674         972.297 
       0.122832         918.439         923.827 
       0.129052         880.467         882.147 
       0.135211         846.374         842.265 
       0.141259         798.028         799.939 
       0.147318         744.505         753.053 
       0.153489         699.979         702.277 
       0.159709         656.938         651.528 
       0.165845         602.073         605.567 
       0.171974         576.914         566.332 
       0.178125         547.161         534.543 
       0.184229         515.112         509.736 
        0.19034         501.148         489.675 
       0.196428         483.799         472.018 
       0.202534         458.094          454.45 
       0.208729         445.979          435.33 
       0.214876         429.109         414.708 
       0.220989         400.141         393.178 
       0.227147         388.324         371.651 
        0.23329         371.038         351.594 
       0.239377          357.26         334.034 
       0.245482          339.52         319.093 
       0.251667         325.349         306.462 
       0.257832         320.278         295.734 
       0.263955         304.986          286.09 
       0.270079         295.481         276.661 
        0.27624         283.196         266.884 
       0.282372         274.866         256.683 
        0.28843         271.033         246.292 
       0.294538         258.529         235.876 
       0.300721         247.191         225.818 
        0.30691         242.211           216.6 
       0.313033         232.504         208.472 
       0.319153         228.326         201.324 
       0.325316         219.727         194.903 
        0.33145         213.683         189.025 
       0.337538         207.644         183.412 
       0.343633         201.796         177.821 
       0.349808         195.876         172.081 
       0.355968         190.536         166.304 
       0.362074         186.743         160.627 
       0.368217         182.095         155.101 
       0.374374         178.226         149.882 
       0.380519         170.599         145.057 
       0.386598         166.709         140.684 
       0.392688         162.459         136.648 
        0.39888          159.47         132.811 
       0.405048         156.132         129.166 
       0.411186          153.08         125.624 
       0.417313         149.242         122.126 
       0.423458         145.502         118.653 
       0.429607         143.093         115.224 
       0.435692         140.522         111.922 
       0.441815         136.077         108.734 
       0.447964         132.343         105.695 
       0.454126         129.931         102.824 
       0.460267         129.031         100.135 
       0.466387         125.924         97.5951 
        0.47254         124.484         95.1482 
       0.478662         120.485          92.794 
       0.484765         118.567         90.5054 
       0.490885         115.758         88.2521 
       0.497035         114.875         86.0334 
       0.503198         111.989          83.869 
       0.509342         109.335           81.78 
       0.515458          108.23         79.7767 
       0.521598         105.665         77.8484 
       0.527764         104.519         75.9994 
       0.533884         103.241         74.2422 
           0.54         100.831         72.5519 
       0.546137         98.2407           70.91 
       0.552299         96.9365         69.3088 
       0.558452         95.1832          67.753 
       0.564573          94.774         66.2431 
       0.570708         91.9821         64.7662 
       0.576825         91.0724         63.3337 
       0.582926          89.953         61.9488 
       0.589034         88.4649         60.6091 
       0.595184         87.3256         59.3072 
       0.601379         85.0785         58.0401 
       0.607522         84.0792         56.8239 
       0.613639         83.1675         55.6497 
       0.619772          81.815         54.5066 
       0.625918          80.568         53.3929 
       0.632068          79.767          52.308 
       0.638161         78.2464         51.2603 
         0.6443         77.5495         50.2311 
       0.650464         75.9398         49.2252 
       0.656582         75.5672         48.2542 
       0.662703         74.7459         47.3108 
       0.668861          73.049           46.39 
       0.675024         72.6951         45.4953 
       0.681124         71.7728         44.6347 
       0.687237         70.3669         43.7952 
       0.693381         69.6598         42.9732 
       0.699536         69.1769         42.1699 
       0.705665         67.9746         41.3899 
       0.711789         67.0113           40.63 
       0.717957         66.0499         39.8839 
        0.72409         65.4975         39.1609 
       0.730186         65.1253         38.4608 
       0.736317         63.9827         37.7746 
       0.742472         63.3108         37.1031 
       0.748622          62.375          36.449 
        0.75476         61.3101         35.8123 
       0.760888         61.1765         35.1919 
       0.767043         60.1667         34.5837 
       0.773185         59.7283         33.9912 
       0.779291         59.0169         33.4159 
       0.785407         58.1028         32.8532 
       0.791564         58.0806            32.3 
       0.797719         57.1881         31.7599 
       0.803834         56.6907         31.2358 
       0.809972         55.9558         30.7219 
       0.816124         55.4272         30.2187 
       0.822261         54.8173         29.7282 
       0.828378         54.4655         29.2503 
       0.834502         53.8888         28.7826 
       0.840667         53.4366         28.3222 
       0.846816         52.4867         27.8733 
       0.852925         52.4172          27.437 
       0.859047         51.9286         27.0092 
       0.865192         51.1913         26.5891 
       0.871341         50.6804         26.1778 
       0.877463         50.3149         25.7772 
       0.883569         50.0954          25.386 
       0.889708         49.5073         25.0009 
       0.895864          48.958          24.623 
       0.902008         48.4115         24.2538 
       0.908149         48.1055         23.8924 
       0.914301         47.8092         23.5379 
       0.920448          47.284          23.191 
       0.926574         46.6272         22.8523 
       0.932687         46.3554         22.5213 
       0.938823         45.8749         22.1956 
       0.944975           45.51         21.8757 
       0.951105         45.1024         21.5634 
       0.957225         44.9299         21.2577 
       0.963368         44.3578         20.9569 
       0.969511         44.0315          20.662 
       0.975621         43.6442         20.3744 
       0.981748         43.2026         20.0916 
       0.987916         42.9626         19.8125 
        0.99406         42.5282         19.5397 
        1.00019         42.2364         19.2726 
        1.00632         41.9136         19.0109 
        1.01246         41.6339         18.7536 
        1.01859         41.1903         18.5015 
        1.02471         40.8386         18.2545 
        1.03085         40.7381         18.0111 
        1.03698         40.3634         17.7727 
        1.04314         40.0312         17.5376 
        1.04929         39.6396         17.3074 
        1.05541         39.5002         17.0823 
        1.06154         39.2829         16.8606 
        1.06769         38.7824         16.6426 
        1.07382         38.5187         16.4292 
        1.07993         38.1815         16.2201 
        1.08607         37.9854         16.0137 
        1.09222         37.6992         15.8108 
        1.09836         37.4142         15.6116 
        1.10449         37.1983         15.4162 
        1.11063         36.9262         15.2239 
        1.11677          36.857         15.0349 
         1.1229         36.4833         14.8496 
        1.12903         36.2765         14.6672 
        1.13518         36.0251         14.4877 
        1.14131         35.7681         14.3114 
        1.14745         35.3517         14.1381 
        1.15359         35.1189         13.9677 
        1.15973         34.8581         13.8001 
        1.16584         34.6633         13.6359 
        1.17197         34.3382         13.4743 
        1.17811         34.1656         13.3147 
        1.18424         33.8968         13.1583 
        1.19038         33.7503         13.0039 
        1.19652         33.5108         12.8521 
        1.20267         33.3189         12.7027 
        1.20881         33.0908         12.5557 
        1.21495          32.849         12.4113 
        1.22108         32.8191         12.2692 
         1.2272         32.5836         12.1297 
        1.23334         32.3479          11.992 
        1.23949         32.1204         11.8562 
        1.24562         31.8204         11.7229 
        1.25174         31.6999         11.5918 
        1.25789         31.5557         11.4624 
        1.26402         31.3869         11.3351 
        1.27014         31.1809         11.2101 
        1.27628         30.8798         11.0867 
        1.28244         30.8822         10.9648 
        1.28858         30.5462          10.845 
        1.29471         30.3423         10.7273 
        1.30084         30.1529         10.6114 
        1.30697         30.0756          10.497 
        1.31312          29.799         10.3842 
        1.31925         29.6575         10.2734 
        1.32537         29.4743         10.1644 
        1.33151         29.3024         10.0565 
        1.33765          29.218          9.9503 
        1.34378         29.0215         9.84585 
        1.34992         28.8774         9.74282 
        1.35606         28.6547         9.64106 
         1.3622         28.4271         9.54095 
        1.36833         28.3498          9.4425 
        1.37445         28.2415          9.3455 
        1.38059         28.0509         9.24958 
        1.38675         27.8184         9.15478 
        1.39288         27.6893         9.06169 
        1.39901          27.571         8.96995 
        1.40515         27.4169         8.87928 
         1.4113         27.2976         8.78991 
        1.41742           27.16         8.70211 
        1.42355         26.9471         8.61535 
         1.4297         26.8071         8.52953 
        1.43585         26.6838         8.44491 
        1.44198         26.5772         8.36177 
        1.44809         26.4258         8.27991 
        1.45423         26.2681         8.19885 
        1.46036         26.1463         8.11902 
        1.46649         25.9762         8.04024 
        1.47263         25.8898         7.96244 
        1.47877          25.794         7.88571 
        1.48491         25.6223         7.80987 
        1.49104         25.4676          7.7352 
        1.49718         25.3567         7.66145 
        1.50333         25.2557         7.58855 
        1.50947         25.1272         7.51675 
         1.5156         24.9751         7.44599 
        1.52172         24.8344         7.37615 
        1.52787          24.694         7.30707 
          1.534         24.6512         7.23896 
        1.54013         24.5252         7.17179 
        1.54627         24.3584         7.10536 
        1.55241         24.2249         7.03976 
        1.55855         24.1352         6.97509 
        1.56467         24.0619         6.91141 
         1.5708         23.9521         6.84835 
        1.57695         23.7822         6.78599 
        1.58308         23.6223         6.72455 
        1.58922         23.5434         6.66384 
        1.59535          23.397         6.60389 
         1.6015         23.2723         6.54461 
        1.60764           23.21         6.48608 
        1.61376         23.1449         6.42844 
        1.61989         22.9729         6.37145 
        1.62604         22.9041         6.31503 
        1.63218         22.7788         6.25934 
        1.63831         22.6562         6.20444 
        1.64444         22.5621         6.15019 
        1.65059         22.4421         6.09646 
        1.65673         22.3743         6.04343 
        1.66285         22.2221         5.99118 
        1.66898         22.1743         5.93954 
        1.67512         22.0932          5.8884 
        1.68127          21.921         5.83783 
         1.6874          21.867         5.78796 
        1.69353         21.7302         5.73871 
        1.69967         21.6289         5.68991 
        1.70581         21.5865         5.64171 
        1.71193         21.4207         5.59425 
        1.71806         21.3822         5.54724 
        1.72421         21.2731         5.50067 
        1.73035         21.1452          5.4547 
        1.73649         21.0844         5.40926 
        1.74262         20.9344         5.36438 
        1.74876         20.8914         5.31998 
        1.75489         20.8051         5.27617 
        1.76101         20.7096         5.23288 
        1.76715         20.6101         5.19001 
        1.77329         20.5249         5.14757 
        1.77943         20.3989         5.10559 
        1.78557         20.3676         5.06415 
        1.79171         20.2384         5.02315 
        1.79785         20.2025         4.98261 
        1.80399         20.0674         4.94252 
        1.81012         20.0171         4.90293 
        1.81625         19.8668         4.86379 
        1.82239         19.8029         4.82502 
        1.82853         19.7439          4.7867 
        1.83466         19.6162         4.74883 
        1.84078          19.593         4.71141 
        1.84692         19.5327         4.67433 
        1.85306         19.4314         4.63761 
         1.8592         19.3398         4.60135 
        1.86533         19.2159         4.56549 
        1.87147         19.1564         4.52997 
        1.87761         19.0536         4.49482 
        1.88375         19.0126         4.46009 
        1.88988         18.8811         4.42576 
        1.89601         18.8299         4.39177 
        1.90215         18.7256         4.35812 
        1.90829         18.6533         4.32484 
        1.91442         18.5594          4.2919 
        1.92056         18.5676         4.25934 
         1.9267         18.4645         4.22708 
        1.93284         18.4242         4.19513 
        1.93897         18.2955         4.16358 
        1.94509         18.2395         4.13243 
        1.95123         18.1713         4.10151 
        1.95737         18.1227         4.07089 
        1.96349          17.982         4.04066 
        1.96964          17.936         4.01065 
        1.97578         17.8938         3.98093 
        1.98192         17.7857         3.95158 
        1.98805         17.7179         3.92251 
        1.99419         17.6548         3.89374 
        2.00033         17.6076         3.86525 
        2.00647         17.5219         3.83705 
         2.0126         17.4623         3.80918 
        2.01874         17.3431         3.78154 
        2.02488         17.3161         3.75416 
        2.03101         17.2244          3.7271 
        2.03714         17.1771         3.70033 
        2.04328         17.0672          3.6738 
        2.04941         16.9921         3.64754 
        2.05554         16.9888         3.62157 
        2.06167         16.9114         3.59581 
        2.06781         16.8219          3.5703 
        2.07396         16.8163           3.545 
        2.08009         16.6771         3.51999 
        2.08622         16.6476         3.49526 
        2.09237         16.6035         3.47071 
        2.09851         16.4961         3.44639 
        2.10464         16.4729         3.42235 
        2.11077         16.3795         3.39857 
        2.11691          16.352         3.37496 
        2.12305         16.2645         3.35157 
        2.12918         16.1532         3.32847 
        2.13531         16.1543         3.30558 
        2.14145         16.0729         3.28285 
         2.1476         15.9876         3.26031 
        2.15372          15.951          3.2381 
        2.15985         15.9026         3.21607 
        2.16599         15.8336         3.19418 
        2.17213         15.7998         3.17252 
        2.17827         15.7171         3.15107 
         2.1844         15.6676         3.12984 
        2.19054         15.6241         3.10879 
        2.19666         15.5559         3.08797 
         2.2028          15.479         3.06733 
        2.20893         15.4397         3.04686 
        2.21508           15.37         3.02655 
        2.22122         15.3118         3.00643 
        2.22736         15.2802         2.98653 
        2.23349         15.2105         2.96681 
        2.23962         15.1697         2.94727 
        2.24577          15.107         2.92788 
         2.2519         15.0516          2.9087 
        2.25802         14.9441         2.88971 
        2.26417         14.9647         2.87085 
        2.27031         14.8802         2.85213 
        2.27644         14.8321         2.83364 
        2.28257         14.7397         2.81531 
        2.28872         14.7494         2.79711 
        2.29486         14.6832         2.77908 
        2.30099          14.628         2.76124 
        2.30712         14.5325         2.74355 
        2.31326         14.4669         2.72599 
         2.3194         14.4559         2.70859 
        2.32553         14.3667         2.69137 
        2.33166         14.3331         2.67431 
         2.3378         14.2852         2.65738 
        2.34394         14.2528         2.64058 
        2.35007         14.1814         2.62396 
        2.35619         14.1373          2.6075 
        2.36233          14.052         2.59114 
        2.36848         14.0361         2.57489 
        2.37462         13.9856         2.55881 
        2.38075         13.9511         2.54289 
        2.38689         13.9015         2.52709 
        2.39303         13.8073         2.51143 
        2.39916         13.7947         2.49591 
        2.40529         13.7529         2.48053 
        2.41143         13.6913         2.46527 
        2.41757         13.6352         2.45012 
         2.4237          13.599         2.43514 
        2.42983         13.5335         2.42028 
        2.43598         13.5084         2.40551 
        2.44211         13.4668         2.39088 
        2.44823         13.4065         2.37641 
        2.45437         13.3636         2.36202 
        2.46052         13.3305         2.34773 
        2.46665         13.2807         2.33359 
        2.47279         13.2357         2.31957 
        2.47892         13.1669         2.30566 
        2.48507         13.1407         2.29185 
         2.4912         13.0807         2.27818 
