# k  (h/Mpc)    P(k)  (Mpc/h)^3    P_linear(k)  (Mpc/h)^3
     0.00783031         9414.99         9487.48 
       0.013688         11466.6         11734.1 
       0.019231         11746.2         11900.3 
      0.0249154         11016.2         11003.2 
      0.0312784         9443.19         9515.36 
      0.0375637         7983.63         8092.53 
      0.0433917         7021.89         7045.56 
      0.0492413         6230.25         6293.93 
      0.0555754          5726.1         5743.53 
      0.0619321         5185.53         5340.39 
       0.067871         4910.76         4991.51 
      0.0738098         4560.46         4606.43 
      0.0800417         4126.93         4150.73 
      0.0862327         3647.97         3678.11 
      0.0921407         3250.94         3256.18 
      0.0982031         2931.27         2892.79 
       0.104506         2613.82          2608.9 
       0.110769         2432.53         2415.24 
       0.116806         2339.04         2288.31 
       0.122832         2209.26         2189.66 
       0.129052          2105.9         2087.92 
       0.135211         2021.32         1968.63 
       0.141259         1862.99         1830.22 
       0.147318         1702.88         1679.71 
       0.153489         1580.31          1530.1 
       0.159709         1489.53         1398.17 
       0.165845         1356.87         1295.05 
       0.171974         1321.66         1219.41 
       0.178125         1272.71         1165.07 
       0.184229         1189.42         1123.04 
        0.19034         1167.47         1083.09 
       0.196428         1128.81         1038.28 
       0.202534          1051.7          985.54 
       0.208729          1024.5         925.784 
       0.214876         973.693         865.016 
       0.220989         908.243         808.486 
       0.227147         882.511         759.517 
        0.23329         846.822         720.246 
       0.239377         833.797         689.961 
       0.245482          792.76          665.64 
       0.251667          763.47         643.769 
       0.257832         754.422         621.717 
       0.263955         714.179         597.755 
       0.270079         688.919         571.399 
        0.27624         658.645         543.558 
       0.282372         643.475          516.21 
        0.28843         636.079         491.209 
       0.294538         603.016         469.115 
       0.300721         585.227         450.209 
        0.30691         575.008         434.293 
       0.313033         549.897         420.471 
       0.319153         541.395         407.479 
       0.325316         531.173         394.284 
        0.33145         518.577         380.599 
       0.337538         499.604         366.463 
       0.343633         484.812         352.181 
       0.349808         472.363         338.153 
       0.355968         462.981         325.103 
       0.362074         447.963         313.448 
       0.368217         444.476         302.985 
       0.374374         435.546         293.605 
       0.380519         418.041         284.963 
       0.386598         413.117         276.753 
       0.392688         403.221         268.621 
        0.39888         392.793         260.269 
       0.405048         385.361         251.923 
       0.411186          383.35          243.73 
       0.417313         377.438         235.824 
       0.423458         366.607         228.346 
       0.429607         356.909         221.406 
       0.435692         351.156         215.041 
       0.441815         345.014         209.084 
       0.447964         336.947         203.434 
       0.454126          332.63         197.967 
       0.460267         327.466         192.621 
       0.466387         321.231         187.376 
        0.47254         316.867         182.176 
       0.478662         308.988         177.111 
       0.484765         305.294         172.236 
       0.490885         301.653         167.576 
       0.497035         296.321         163.132 
       0.503198         294.772         158.909 
       0.509342         287.201         154.911 
       0.515458         283.028         151.105 
       0.521598         277.578         147.411 
       0.527764         274.115         143.789 
       0.533884         272.892         140.272 
           0.54         267.909         136.845 
       0.546137         261.954         133.502 
       0.552299         260.658         130.251 
       0.558452         256.241         127.118 
       0.564573         254.262         124.122 
       0.570708         249.439         121.243 
       0.576825          245.49         118.488 
       0.582926          243.21         115.836 
       0.589034         239.665          113.26 
       0.595184         237.981         110.733 
       0.601379         233.805         108.254 
       0.607522         229.137         105.862 
       0.613639         227.875         103.549 
       0.619772         226.268           101.3 
       0.625918         223.435         99.1152 
       0.632068         219.328         96.9969 
       0.638161         217.725         94.9632 
         0.6443         215.829         92.9777 
       0.650464         212.055         91.0464 
       0.656582         210.413         89.1866 
       0.662703         208.829         87.3792 
       0.668861          204.81         85.6107 
       0.675024         204.383          83.887 
       0.681124         201.633         82.2249 
       0.687237         199.574         80.6023 
       0.693381         197.165          79.015 
       0.699536         195.378         77.4679 
       0.705665         193.315         75.9704 
       0.711789         191.161         74.5162 
       0.717957         189.162         73.0923 
        0.72409         187.076         71.7151 
       0.730186         187.696         70.3826 
       0.736317         184.504          69.077 
       0.742472         182.045         67.7995 
       0.748622         179.473         66.5546 
        0.75476         180.112          65.343 
       0.760888         177.776         64.1628 
       0.767043         175.024         63.0068 
       0.773185          173.65         61.8817 
       0.779291         171.445         60.7905 
       0.785407         170.598         59.7244 
       0.791564         169.058         58.6777 
       0.797719         166.475          57.657 
       0.803834         167.083         56.6675 
       0.809972         165.382          55.698 
       0.816124         162.775         54.7493 
       0.822261         161.605         53.8254 
       0.828378          161.33         52.9258 
       0.834502         158.976         52.0461 
       0.840667         158.605         51.1807 
       0.846816         156.399         50.3375 
       0.852925         155.292         49.5187 
       0.859047         153.843         48.7165 
       0.865192         153.285         47.9295 
       0.871341         151.428         47.1594 
       0.877463         150.138         46.4098 
       0.883569         150.057         45.6785 
       0.889708          148.58         44.9593 
       0.895864         147.184         44.2538 
       0.902008         145.708          43.565 
       0.908149         144.152         42.8913 
       0.914301          143.85         42.2309 
       0.920448         143.378         41.5851 
       0.926574         141.077         40.9551 
       0.932687         140.899         40.3395 
       0.938823         139.798         39.7344 
       0.944975         138.597         39.1404 
       0.951105         137.348         38.5607 
       0.957225          136.83         37.9937 
       0.963368         135.542         37.4363 
       0.969511         134.308         36.8901 
       0.975621         133.072         36.3577 
       0.981748         132.265         35.8346 
       0.987916         131.611         35.3184 
        0.99406          130.85         34.8145 
        1.00019         129.771         34.3213 
        1.00632         128.887         33.8382 
        1.01246         128.046         33.3637 
        1.01859         127.206         32.8991 
        1.02471         126.287          32.444 
        1.03085         125.234         31.9959 
        1.03698         124.317         31.5572 
        1.04314         123.849          31.125 
        1.04929         123.294         30.7019 
        1.05541         122.366         30.2883 
        1.06154         121.384         29.8815 
        1.06769         120.589         29.4815 
        1.07382         119.901         29.0901 
        1.07993         119.093         28.7068 
        1.08607         118.281         28.3288 
        1.09222         117.619         27.9573 
        1.09836         116.679         27.5929 
        1.10449         115.923         27.2355 
        1.11063         115.217          26.884 
        1.11677         114.525         26.5388 
         1.1229         113.593         26.2004 
        1.12903         113.051         25.8675 
        1.13518         112.287         25.5402 
        1.14131         111.666         25.2188 
        1.14745         111.077          24.903 
        1.15359         109.842         24.5927 
        1.15973         109.552         24.2875 
        1.16584         108.874         23.9888 
        1.17197         108.313         23.6948 
        1.17811         107.359         23.4048 
        1.18424         106.809         23.1205 
        1.19038         106.385         22.8401 
        1.19652         105.655         22.5645 
        1.20267         104.941         22.2934 
        1.20881         104.244         22.0269 
        1.21495          103.77         21.7651 
        1.22108         103.217         21.5077 
         1.2272         102.345          21.255 
        1.23334         102.138         21.0058 
        1.23949         101.508           20.76 
        1.24562         100.678         20.5188 
        1.25174          100.15         20.2818 
        1.25789         99.5886         20.0479 
        1.26402         99.1643          19.818 
        1.27014         98.5113         19.5924 
        1.27628         97.6465         19.3695 
        1.28244         97.5363         19.1498 
        1.28858         96.6317         18.9337 
        1.29471         96.1312         18.7214 
        1.30084         95.4495         18.5126 
        1.30697         95.2129         18.3067 
        1.31312         94.5124         18.1037 
        1.31925         93.8702         17.9043 
        1.32537         93.5081         17.7082 
        1.33151         93.2908         17.5143 
        1.33765         92.4245         17.3234 
        1.34378         92.0885         17.1357 
        1.34992         91.7659         16.9507 
        1.35606         91.0635         16.7681 
         1.3622         90.8868         16.5884 
        1.36833         89.9212         16.4118 
        1.37445         89.5919         16.2379 
        1.38059         89.2068          16.066 
        1.38675         88.4258         15.8962 
        1.39288         88.0818         15.7295 
        1.39901          87.434         15.5652 
        1.40515         87.1372          15.403 
         1.4113          86.695         15.2431 
        1.41742         86.1162         15.0861 
        1.42355         85.8578          14.931 
         1.4297         85.2182         14.7776 
        1.43585         84.7536         14.6265 
        1.44198         84.2461          14.478 
        1.44809         83.6564         14.3319 
        1.45423         83.5598         14.1872 
        1.46036         82.8628         14.0448 
        1.46649         82.3527         13.9043 
        1.47263         82.0518         13.7657 
        1.47877         81.5985         13.6289 
        1.48491         81.1484         13.4939 
        1.49104         80.4429         13.3609 
        1.49718         80.3027         13.2296 
        1.50333         79.8949         13.0999 
        1.50947         79.5868         12.9722 
         1.5156          79.258         12.8464 
        1.52172         78.5597         12.7222 
        1.52787         78.1694         12.5995 
          1.534         77.7841         12.4785 
        1.54013         77.5598         12.3592 
        1.54627         76.8561         12.2413 
        1.55241         76.6593         12.1249 
        1.55855          76.104         12.0101 
        1.56467         75.4658         11.8972 
         1.5708          75.265         11.7854 
        1.57695         74.9473         11.6749 
        1.58308          74.547          11.566 
        1.58922         74.3157         11.4585 
        1.59535         74.0356         11.3524 
         1.6015         73.5985         11.2474 
        1.60764         73.1426         11.1439 
        1.61376          72.764         11.0419 
        1.61989          72.206         10.9411 
        1.62604         72.0084         10.8414 
        1.63218         71.7439         10.7429 
        1.63831         71.3143          10.646 
        1.64444         71.0305         10.5501 
        1.65059         70.5474         10.4552 
        1.65673         70.1775         10.3616 
        1.66285         69.7118         10.2694 
        1.66898         69.3327         10.1783 
        1.67512         69.0311         10.0881 
        1.68127         68.8333         9.99896 
         1.6874         68.3706         9.91106 
        1.69353         67.9774         9.82427 
        1.69967         67.7531         9.73831 
        1.70581           67.39         9.65342 
        1.71193         66.9987         9.56986 
        1.71806         66.6548         9.48711 
        1.72421         66.4266         9.40517 
        1.73035         66.1259          9.3243 
        1.73649         65.6772         9.24439 
        1.74262         65.2192         9.16549 
        1.74876         65.0497         9.08745 
        1.75489         64.6567         9.01048 
        1.76101         64.3035         8.93442 
        1.76715         64.0853         8.85914 
        1.77329         63.6554         8.78463 
        1.77943         63.5102         8.71095 
        1.78557         63.1984         8.63822 
        1.79171         62.7997         8.56631 
        1.79785         62.4629          8.4952 
        1.80399         62.2095         8.42491 
        1.81012         61.8749         8.35551 
        1.81625         61.5829         8.28692 
        1.82239         61.3062           8.219 
        1.82853         60.8665         8.15188 
        1.83466         60.6588         8.08557 
        1.84078         60.3627         8.02006 
        1.84692         60.2283         7.95518 
        1.85306         59.8253         7.89093 
         1.8592         59.5592          7.8275 
        1.86533         59.2151         7.76479 
        1.87147         58.9074          7.7027 
        1.87761         58.5918         7.64127 
        1.88375         58.3249         7.58057 
        1.88988         57.9752          7.5206 
        1.89601         57.7619         7.46124 
        1.90215         57.3809         7.40248 
        1.90829         57.1964         7.34437 
        1.91442         56.8565         7.28689 
        1.92056         56.7174         7.23007 
         1.9267         56.3576         7.17379 
        1.93284         56.1509         7.11808 
        1.93897         55.8247         7.06307 
        1.94509         55.4989         7.00875 
        1.95123         55.2899         6.95487 
        1.95737         55.0537         6.90152 
        1.96349         54.7931         6.84886 
        1.96964         54.4557         6.79659 
        1.97578         54.1675         6.74486 
        1.98192         53.9144         6.69376 
        1.98805          53.572         6.64318 
        1.99419         53.4239         6.59313 
        2.00033         53.1547         6.54356 
        2.00647         52.9039         6.49452 
         2.0126         52.6311         6.44607 
        2.01874         52.5606         6.39803 
        2.02488         52.1868         6.35044 
        2.03101         51.9595         6.30342 
        2.03714         51.7221         6.25692 
        2.04328         51.4172         6.21084 
        2.04941           51.03         6.16526 
        2.05554         50.9897         6.12016 
        2.06167         50.8037         6.07546 
        2.06781         50.4455          6.0312 
        2.07396           50.16         5.98731 
        2.08009         49.9467         5.94393 
        2.08622          49.748         5.90104 
        2.09237         49.4862         5.85848 
        2.09851         49.1972         5.81633 
        2.10464         49.0046         5.77467 
        2.11077         48.8145         5.73347 
        2.11691         48.5453         5.69257 
        2.12305         48.2856         5.65208 
        2.12918         48.0617         5.61207 
        2.13531         47.8187         5.57245 
        2.14145         47.6057         5.53311 
         2.1476         47.4816         5.49412 
        2.15372         47.2621         5.45569 
        2.15985          46.921         5.41759 
        2.16599         46.6951         5.37974 
        2.17213         46.5053          5.3423 
        2.17827         46.3297         5.30522 
         2.1844         45.9981         5.26853 
        2.19054         45.9412         5.23217 
        2.19666          45.629          5.1962 
         2.2028         45.3803         5.16054 
        2.20893         45.1811          5.1252 
        2.21508         44.9068         5.09015 
        2.22122          44.747         5.05541 
        2.22736         44.4862         5.02107 
        2.23349         44.3588         4.98705 
        2.23962         44.1492         4.95333 
        2.24577         43.8948          4.9199 
         2.2519         43.6971         4.88681 
        2.25802         43.5085         4.85409 
        2.26417         43.3024         4.82157 
        2.27031          43.095         4.78932 
        2.27644         42.9913         4.75746 
        2.28257         42.5898         4.72589 
        2.28872         42.6048         4.69454 
        2.29486         42.3415         4.66349 
        2.30099          42.045         4.63278 
        2.30712         41.9313         4.60233 
        2.31326         41.7106         4.57211 
         2.3194         41.5018         4.54217 
        2.32553         41.3741         4.51255 
        2.33166         41.1093         4.48321 
         2.3378         40.8985         4.45408 
        2.34394         40.7237         4.42521 
        2.35007         40.5375         4.39663 
        2.35619         40.3957         4.36834 
        2.36233         40.0978         4.34024 
        2.36848         40.0481         4.31232 
        2.37462         39.7076          4.2847 
        2.38075         39.6599         4.25735 
        2.38689         39.4976         4.23022 
        2.39303         39.2671         4.20332 
        2.39916         39.0578         4.17669 
        2.40529         38.9288         4.15029 
        2.41143          38.723          4.1241 
        2.41757         38.6123         4.09813 
         2.4237         38.4165         4.07242 
        2.42983         38.1698         4.04694 
        2.43598         38.0242          4.0216 
        2.44211         37.8196         3.99653 
        2.44823         37.6258         3.97173 
        2.45437         37.5011         3.94706 
        2.46052         37.2634         3.92259 
        2.46665         37.1406         3.89836 
        2.47279         36.8883         3.87435 
        2.47892         36.8131         3.85053 
        2.48507         36.7039         3.82688 
         2.4912         36.3819         3.80348 
