# k  (h/Mpc)    P(k)  (Mpc/h)^3    P_linear(k)  (Mpc/h)^3
     0.00783031         16038.4         16276.4 
       0.013688         19595.8         19419.5 
       0.019231         18963.6         18911.3 
      0.0249154         16374.7         16701.3 
      0.0312784         13613.1         13728.7 
      0.0375637         11259.9           11214 
      0.0433917         9436.06         9552.53 
      0.0492413         8463.19         8482.92 
      0.0555754          7573.5          7775.1 
      0.0619321         7294.88         7258.09 
       0.067871         6594.22         6750.31 
      0.0738098         6000.13         6131.01 
      0.0800417         5235.46         5383.94 
      0.0862327         4597.28         4640.06 
      0.0921407         4089.65         4024.53 
      0.0982031         3595.19         3545.79 
       0.104506         3368.88         3218.19 
       0.110769         3147.33         3025.99 
       0.116806         2999.37         2907.97 
       0.122832         2878.38          2797.8 
       0.129052         2666.96          2648.9 
       0.135211         2492.94          2452.8 
       0.141259         2338.89         2228.47 
       0.147318          2157.1         2002.77 
       0.153489         1949.03         1802.11 
       0.159709         1829.13         1647.85 
       0.165845         1756.92         1544.67 
       0.171974         1672.52         1479.08 
       0.178125         1602.81         1432.67 
       0.184229         1539.85         1387.33 
        0.19034         1449.76         1329.62 
       0.196428         1410.48         1255.84 
       0.202534          1347.4         1170.15 
       0.208729         1270.13         1081.28 
       0.214876         1205.51         1001.42 
       0.220989          1158.3         936.825 
       0.227147         1108.57         888.312 
        0.23329         1065.41         853.507 
       0.239377         1046.85         826.813 
       0.245482         980.089         801.723 
       0.251667         973.564         773.169 
       0.257832         933.115         739.505 
       0.263955         899.793         701.917 
       0.270079         863.825         662.999 
        0.27624         851.588         625.984 
       0.282372         816.166         593.866 
        0.28843         803.171         567.762 
       0.294538         761.713         546.678 
       0.300721         757.668         528.947 
        0.30691         725.852         512.779 
       0.313033         711.276         496.461 
       0.319153         693.621         478.924 
       0.325316          672.23         459.887 
        0.33145         653.864         440.397 
       0.337538         642.277         421.513 
       0.343633         624.637         404.085 
       0.349808         601.813         388.474 
       0.355968         597.377         374.996 
       0.362074         589.455         363.305 
       0.368217         571.715         352.524 
       0.374374         547.339         342.094 
       0.380519         546.581         331.547 
       0.386598         531.022         320.841 
       0.392688         528.287         309.987 
        0.39888         512.649         299.075 
       0.405048          503.29         288.716 
       0.411186         495.707         279.169 
       0.417313         485.529         270.442 
       0.423458         475.549         262.478 
       0.429607         468.983         255.093 
       0.435692         457.301         248.114 
       0.441815         452.947         241.252 
       0.447964          443.42         234.434 
       0.454126         435.455         227.619 
       0.460267         426.395         220.926 
       0.466387           421.3         214.474 
        0.47254         414.817         208.293 
       0.478662         412.721         202.478 
       0.484765         398.181         197.032 
       0.490885         394.803         191.899 
       0.497035         387.318         186.983 
       0.503198         382.837         182.218 
       0.509342         380.024         177.577 
       0.515458         375.902         173.062 
       0.521598         366.069          168.63 
       0.527764         360.733          164.29 
       0.533884         358.064         160.118 
           0.54         353.063         156.115 
       0.546137         351.304         152.284 
       0.552299         344.467         148.613 
       0.558452         342.678         145.094 
       0.564573         337.912         141.711 
       0.570708         331.877         138.418 
       0.576825         325.004         135.227 
       0.582926         323.453         132.133 
       0.589034         320.388          129.12 
       0.595184          317.69         126.171 
       0.601379         312.496          123.29 
       0.607522         308.307         120.526 
       0.613639          306.76         117.867 
       0.619772         300.364         115.297 
       0.625918         299.222         112.809 
       0.632068         294.209           110.4 
       0.638161         292.984         108.082 
         0.6443         288.274         105.809 
       0.650464          285.62         103.584 
       0.656582         282.869         101.434 
       0.662703         282.409         99.3421 
       0.668861         277.595         97.2974 
       0.675024         274.474         95.3121 
       0.681124         272.455         93.4072 
       0.687237         269.686         91.5545 
       0.693381         265.613         89.7461 
       0.699536         263.046         87.9846 
       0.705665         260.796          86.278 
       0.711789         259.401         84.6169 
       0.717957         257.607         82.9864 
        0.72409         255.145         81.4068 
       0.730186         251.925         79.8772 
       0.736317         249.424         78.3784 
       0.742472         247.774         76.9129 
       0.748622         245.637         75.4871 
        0.75476         243.057         74.1015 
       0.760888         240.463         72.7538 
       0.767043         240.418         71.4351 
       0.773185         237.749         70.1525 
       0.779291          233.68          68.909 
       0.785407         233.257         67.6942 
       0.791564         230.603         66.5011 
       0.797719         228.078         65.3373 
       0.803834         226.362         64.2087 
       0.809972         225.655         63.1028 
       0.816124          224.72         62.0205 
       0.822261         222.455         60.9666 
       0.828378         220.191         59.9406 
       0.834502         218.918         58.9374 
       0.840667         216.701         57.9509 
       0.846816         215.158         56.9899 
       0.852925          214.15         56.0571 
       0.859047         212.303         55.1433 
       0.865192         209.653         54.2471 
       0.871341         208.086         53.3703 
       0.877463         207.129         52.5171 
       0.883569         206.318         51.6849 
       0.889708         203.824         50.8666 
       0.895864         202.163          50.064 
       0.902008         200.846         49.2805 
       0.908149         199.955         48.5144 
       0.914301         197.341         47.7634 
       0.920448         196.364         47.0291 
       0.926574         194.688         46.3129 
       0.932687         194.759         45.6132 
       0.938823         192.295         44.9256 
       0.944975         191.323         44.2506 
       0.951105         190.204          43.592 
       0.957225         188.814          42.948 
       0.963368         186.206         42.3149 
       0.969511         185.614         41.6945 
       0.975621         183.841         41.0901 
       0.981748         183.816         40.4961 
       0.987916         182.124         39.9101 
        0.99406         180.364          39.338 
        1.00019         180.137         38.7784 
        1.00632         178.554         38.2302 
        1.01246         177.291         37.6918 
        1.01859         177.205         37.1647 
        1.02471         174.585         36.6484 
        1.03085         173.273         36.1401 
        1.03698          172.47         35.6426 
        1.04314         170.838         35.1524 
        1.04929         170.125         34.6727 
        1.05541         169.942         34.2038 
        1.06154         167.969         33.7426 
        1.06769         167.766         33.2891 
        1.07382           166.2         32.8456 
        1.07993         164.984         32.4112 
        1.08607         164.505         31.9829 
        1.09222         163.469         31.5619 
        1.09836         162.186         31.1491 
        1.10449         160.489         30.7442 
        1.11063         159.366          30.346 
        1.11677         158.933         29.9551 
         1.1229         157.677         29.5718 
        1.12903         157.116         29.1949 
        1.13518         156.159         28.8243 
        1.14131         154.691         28.4603 
        1.14745         154.643         28.1029 
        1.15359         153.329         27.7515 
        1.15973         152.247         27.4061 
        1.16584         151.137         27.0681 
        1.17197         150.708         26.7353 
        1.17811          149.44         26.4072 
        1.18424         148.818         26.0855 
        1.19038         148.446         25.7682 
        1.19652         147.144         25.4564 
        1.20267         146.524         25.1497 
        1.20881         145.417         24.8482 
        1.21495         144.479         24.5521 
        1.22108         143.619         24.2609 
         1.2272         142.557         23.9751 
        1.23334         142.229         23.6933 
        1.23949         141.126         23.4153 
        1.24562         140.356         23.1426 
        1.25174         139.578         22.8747 
        1.25789         138.675         22.6102 
        1.26402         137.343         22.3504 
        1.27014         136.513         22.0953 
        1.27628          136.26         21.8434 
        1.28244         135.978          21.595 
        1.28858          134.78         21.3508 
        1.29471         133.599          21.111 
        1.30084         133.476          20.875 
        1.30697         132.032         20.6424 
        1.31312           131.5         20.4129 
        1.31925         130.661         20.1877 
        1.32537         130.284         19.9661 
        1.33151          129.14          19.747 
        1.33765         128.382         19.5314 
        1.34378         127.931         19.3195 
        1.34992         127.479         19.1105 
        1.35606         127.091         18.9042 
         1.3622          125.77         18.7013 
        1.36833         124.889         18.5019 
        1.37445         124.452         18.3055 
        1.38059         123.546         18.1114 
        1.38675         122.998         17.9196 
        1.39288         122.587         17.7314 
        1.39901         122.169         17.5459 
        1.40515         120.894         17.3627 
         1.4113         120.449         17.1822 
        1.41742         119.571          17.005 
        1.42355         119.013         16.8299 
         1.4297         118.479         16.6568 
        1.43585         117.614         16.4862 
        1.44198         117.129         16.3186 
        1.44809         116.642         16.1537 
        1.45423         116.131         15.9905 
        1.46036         115.259         15.8298 
        1.46649         114.465         15.6713 
        1.47263         113.802         15.5148 
        1.47877         113.323         15.3605 
        1.48491         112.313         15.2081 
        1.49104         112.297         15.0581 
        1.49718          111.41           14.91 
        1.50333         110.855         14.7636 
        1.50947         110.309         14.6195 
         1.5156         109.732         14.4776 
        1.52172         109.091         14.3376 
        1.52787         108.409         14.1991 
          1.534         107.962         14.0626 
        1.54013         107.412         13.9281 
        1.54627           106.9         13.7951 
        1.55241         106.115         13.6638 
        1.55855         105.494         13.5344 
        1.56467         105.195          13.407 
         1.5708         104.332         13.2809 
        1.57695         104.103         13.1563 
        1.58308          103.52         13.0336 
        1.58922         103.165         12.9123 
        1.59535         102.449         12.7926 
         1.6015          102.07         12.6743 
        1.60764          101.44         12.5575 
        1.61376         100.992         12.4426 
        1.61989         100.371         12.3289 
        1.62604         99.8119         12.2165 
        1.63218         99.6422         12.1055 
        1.63831         98.7053         11.9962 
        1.64444         98.3149         11.8881 
        1.65059         97.8204         11.7812 
        1.65673         97.1287         11.6757 
        1.66285         96.8209         11.5717 
        1.66898          96.419         11.4691 
        1.67512         95.7277         11.3674 
        1.68127         95.3437         11.2669 
         1.6874         94.6136         11.1678 
        1.69353         94.3035           11.07 
        1.69967         94.0053         10.9732 
        1.70581         93.3445         10.8775 
        1.71193         92.8759         10.7833 
        1.71806         92.5091         10.6901 
        1.72421         91.8184         10.5977 
        1.73035         91.5833         10.5066 
        1.73649         91.1071         10.4166 
        1.74262         90.4501         10.3276 
        1.74876         90.1809         10.2397 
        1.75489         89.5281          10.153 
        1.76101         89.0265         10.0673 
        1.76715         88.5293         9.98245 
        1.77329         88.3133         9.89851 
        1.77943         87.5846         9.81549 
        1.78557         87.4938         9.73355 
        1.79171            86.6         9.65253 
        1.79785         86.2655         9.57242 
        1.80399         85.8313         9.49323 
        1.81012         85.5172         9.41505 
        1.81625         85.1185         9.33778 
        1.82239         84.6989         9.26127 
        1.82853         84.2612         9.18565 
        1.83466         83.7748         9.11095 
        1.84078         83.3647         9.03716 
        1.84692         82.9686         8.96407 
        1.85306         82.5565         8.89169 
         1.8592         82.2652         8.82024 
        1.86533         81.6867          8.7496 
        1.87147         81.2281         8.67967 
        1.87761         80.9089         8.61046 
        1.88375         80.4124          8.5421 
        1.88988         80.0947         8.47455 
        1.89601         79.6448         8.40769 
        1.90215         79.1305          8.3415 
        1.90829         78.8234         8.27606 
        1.91442          78.492         8.21132 
        1.92056          77.971         8.14733 
         1.9267         77.7053         8.08395 
        1.93284         77.2574         8.02121 
        1.93897         76.9073         7.95926 
        1.94509         76.6131          7.8981 
        1.95123         76.1896         7.83742 
        1.95737         75.6939         7.77734 
        1.96349         75.3192         7.71804 
        1.96964         74.9105         7.65919 
        1.97578         74.5497         7.60092 
        1.98192         74.4976         7.54339 
        1.98805          73.766         7.48644 
        1.99419         73.5334         7.43007 
        2.00033         73.2932         7.37426 
        2.00647         72.8063         7.31904 
         2.0126          72.483         7.26448 
        2.01874         71.8983         7.21039 
        2.02488         71.7408         7.15681 
        2.03101         71.2759         7.10387 
        2.03714         70.7977         7.05151 
        2.04328         70.6013         6.99963 
        2.04941         70.2725          6.9483 
        2.05554         69.9973         6.89754 
        2.06167          69.639         6.84721 
        2.06781         69.1029         6.79737 
        2.07396          68.813         6.74796 
        2.08009         68.5929         6.69913 
        2.08622         68.2201         6.65083 
        2.09237         67.9144         6.60292 
        2.09851         67.6485         6.55547 
        2.10464         67.2106         6.50857 
        2.11077         66.9424         6.46218 
        2.11691         66.6137         6.41614 
        2.12305         66.2093         6.37055 
        2.12918         65.8832         6.32551 
        2.13531          65.542          6.2809 
        2.14145         65.1999         6.23662 
         2.1476         64.8304         6.19272 
        2.15372         64.6964         6.14945 
        2.15985         64.2434         6.10656 
        2.16599         63.9355         6.06396 
        2.17213         63.6673          6.0218 
        2.17827         63.3181         5.98006 
         2.1844         63.0013         5.93875 
        2.19054         62.8205         5.89782 
        2.19666         62.4712         5.85733 
         2.2028         62.2929         5.81719 
        2.20893         61.8255          5.7774 
        2.21508         61.6318         5.73795 
        2.22122         61.2505         5.69884 
        2.22736         60.9964         5.66018 
        2.23349         60.6336         5.62189 
        2.23962         60.3389         5.58394 
        2.24577         60.0354          5.5463 
         2.2519         59.8097         5.50906 
        2.25802         59.5471         5.47222 
        2.26417         59.1845         5.43562 
        2.27031         58.9211         5.39932 
        2.27644         58.6381         5.36345 
        2.28257         58.4034         5.32791 
        2.28872         58.0561         5.29263 
        2.29486         57.6637         5.25768 
        2.30099         57.3554         5.22311 
        2.30712         57.2448         5.18883 
        2.31326         56.9165         5.15481 
         2.3194         56.6676         5.12111 
        2.32553         56.3922         5.08777 
        2.33166         56.0315         5.05474 
         2.3378         55.7858         5.02196 
        2.34394         55.4888         4.98946 
        2.35007         55.2659          4.9573 
        2.35619         55.0456         4.92545 
        2.36233          54.768         4.89381 
        2.36848         54.5394         4.86239 
        2.37462         54.1479          4.8313 
        2.38075         54.0359         4.80052 
        2.38689         53.7282         4.76998 
        2.39303         53.4173         4.73971 
        2.39916         53.1922         4.70974 
        2.40529         53.0118         4.68002 
        2.41143         52.7208         4.65055 
        2.41757         52.4381         4.62131 
         2.4237         52.2501         4.59237 
        2.42983          51.949         4.56369 
        2.43598         51.6507         4.53518 
        2.44211         51.4274         4.50696 
        2.44823         51.2254         4.47904 
        2.45437         50.9624         4.45128 
        2.46052         50.7601         4.42373 
        2.46665         50.5536         4.39646 
        2.47279         50.1816         4.36944 
        2.47892         50.0561         4.34262 
        2.48507           49.75           4.316 
         2.4912         49.5257         4.28966 
