# k  (h/Mpc)    Pcb(k)  (Mpc/h)^3    Pcb_linear(k)  (Mpc/h)^3
     0.00783031         655.605         661.279 
       0.013688         739.367         746.224 
       0.019231         698.417         700.787 
      0.0249154         603.103          602.23 
      0.0312784         484.433         483.598 
      0.0375637         387.811          387.56 
      0.0433917         326.141         324.981 
      0.0492413         284.855         284.508 
      0.0555754         258.345         257.386 
      0.0619321         236.874         237.904 
       0.067871         219.811         219.862 
      0.0738098         198.933         198.852 
      0.0800417         174.495         174.018 
      0.0862327         149.597         149.351 
      0.0921407         129.036         128.753 
      0.0982031         113.105         112.425 
       0.104506         100.955         100.893 
       0.110769         93.9632         93.8413 
       0.116806         89.8868         89.4759 
       0.122832         85.7692         85.7379 
       0.129052         81.3813         81.1436 
       0.135211         75.6891          75.288 
       0.141259         68.7815          68.561 
       0.147318         61.7298         61.6448 
       0.153489         55.5637          55.291 
       0.159709         50.5941         50.1848 
       0.165845         46.6571         46.5693 
       0.171974         44.6004         44.1376 
       0.178125         42.7752         42.4236 
       0.184229         41.1378         40.9352 
        0.19034         39.6357         39.2567 
       0.196428         37.5434         37.2101 
       0.202534         34.9172         34.8259 
       0.208729         32.6166         32.2803 
       0.214876         30.3559         29.8889 
       0.220989         28.1106         27.8426 
       0.227147         26.6793         26.2026 
        0.23329         25.4327         24.9578 
       0.239377         24.4849         23.9982 
       0.245482         23.6115         23.1633 
       0.251667         22.6376         22.3159 
       0.257832         21.8679         21.3896 
       0.263955         20.7266          20.375 
       0.270079         19.6627         19.3098 
        0.27624         18.5622         18.2571 
       0.282372         17.6248         17.2943 
        0.28843          16.922         16.4668 
       0.294538          16.186         15.7622 
       0.300721         15.4975          15.161 
        0.30691         15.0556         14.6299 
       0.313033         14.5219         14.1337 
       0.319153         14.1231         13.6342 
       0.325316         13.4617         13.1156 
        0.33145         12.9156         12.5864 
       0.337538         12.4219         12.0652 
       0.343633         11.9731         11.5654 
       0.349808         11.4733         11.0983 
       0.355968         11.0358         10.6781 
       0.362074         10.7225         10.3048 
       0.368217         10.3529         9.96412 
       0.374374         10.0829         9.64452 
       0.380519         9.70912         9.33711 
       0.386598         9.37896         9.03677 
       0.392688         9.05779         8.73741 
        0.39888         8.79819         8.43745 
       0.405048         8.52195         8.14709 
       0.411186         8.23188         7.87175 
       0.417313         7.97308         7.61406 
       0.423458         7.69268         7.37297 
       0.429607          7.5195          7.1481 
       0.435692         7.32581         6.93876 
       0.441815         7.08071         6.73736 
       0.447964         6.85244          6.5416 
       0.454126          6.6962         6.35066 
       0.460267          6.5432         6.16475 
       0.466387         6.34012         5.98443 
        0.47254         6.18432         5.80956 
       0.478662         5.99738         5.64311 
       0.484765         5.84055         5.48489 
       0.490885         5.66351          5.3339 
       0.497035         5.50229         5.18948 
       0.503198         5.39329         5.05112 
       0.509342         5.22766         4.91823 
       0.515458          5.1184         4.79008 
       0.521598          4.9961          4.6653 
       0.527764          4.8921         4.54383 
       0.533884          4.7325         4.42702 
           0.54          4.6369         4.31417 
       0.546137         4.50443           4.205 
       0.552299         4.40622         4.09962 
       0.558452         4.29793          3.9986 
       0.564573         4.20934         3.90183 
       0.570708         4.11433         3.80818 
       0.576825         4.02318         3.71782 
       0.582926          3.9236         3.63051 
       0.589034         3.84893         3.54578 
       0.595184         3.77807         3.46308 
       0.601379         3.67701         3.38235 
       0.607522         3.59116         3.30477 
       0.613639         3.50807         3.22996 
       0.619772         3.44793         3.15735 
       0.625918         3.37315         3.08696 
       0.632068          3.3075          3.0188 
       0.638161         3.23642         2.95339 
         0.6443         3.16566         2.88947 
       0.650464         3.10006         2.82718 
       0.656582         3.05323         2.76711 
       0.662703         2.99027         2.70871 
       0.668861         2.91331         2.65164 
       0.675024         2.85842         2.59617 
       0.681124         2.83717         2.54286 
       0.687237         2.76517         2.49098 
       0.693381         2.69499         2.44034 
       0.699536         2.66347         2.39105 
       0.705665         2.61179         2.34334 
       0.711789         2.55079         2.29699 
       0.717957         2.50388         2.25157 
        0.72409         2.46202         2.20762 
       0.730186          2.4333          2.1651 
       0.736317         2.37322         2.12347 
       0.742472         2.34132         2.08278 
       0.748622         2.30187         2.04319 
        0.75476         2.24622         2.00473 
       0.760888         2.21813         1.96733 
       0.767043         2.15951         1.93074 
       0.773185         2.13245         1.89517 
       0.779291         2.11229         1.86069 
       0.785407         2.06751         1.82704 
       0.791564         2.03088           1.794 
       0.797719         1.99595          1.7618 
       0.803834         1.96593         1.73059 
       0.809972         1.93108         1.70003 
       0.816124         1.90115         1.67014 
       0.822261         1.87149         1.64105 
       0.828378         1.84037         1.61274 
       0.834502         1.80961         1.58508 
       0.840667         1.78691         1.55789 
       0.846816         1.75235         1.53141 
       0.852925         1.72427         1.50572 
       0.859047         1.69765         1.48056 
       0.865192         1.67272          1.4559 
       0.871341         1.64977         1.43178 
       0.877463         1.61826         1.40832 
       0.883569         1.59725         1.38545 
       0.889708         1.57642         1.36297 
       0.895864         1.55263         1.34093 
       0.902008         1.52415         1.31942 
       0.908149         1.50431          1.2984 
       0.914301         1.48451         1.27781 
       0.920448         1.46611         1.25768 
       0.926574         1.44895         1.23805 
       0.932687         1.42545         1.21889 
       0.938823         1.39698         1.20006 
       0.944975         1.38462         1.18159 
       0.951105          1.3553         1.16358 
       0.957225         1.34292         1.14597 
       0.963368         1.32621         1.12867 
       0.969511          1.3097         1.11172 
       0.975621          1.2868         1.09521 
       0.981748         1.26344           1.079 
       0.987916         1.25039         1.06302 
        0.99406          1.2376         1.04741 
        1.00019         1.21971         1.03216 
        1.00632         1.20731         1.01722 
        1.01246         1.18943         1.00255 
        1.01859         1.17462        0.988203 
        1.02471         1.15398         0.97415 
        1.03085         1.13909        0.960322 
        1.03698         1.12784        0.946792 
        1.04314         1.11239        0.933465 
        1.04929         1.10152        0.920426 
        1.05541         1.08216        0.907689 
        1.06154         1.07263        0.895161 
        1.06769         1.06069        0.882851 
        1.07382         1.04474        0.870813 
        1.07993         1.03115        0.859027 
        1.08607         1.02109         0.84741 
        1.09222         1.00583        0.835996 
        1.09836        0.997459        0.824806 
        1.10449        0.979748        0.813833 
        1.11063        0.968547        0.803048 
        1.11677        0.959315        0.792461 
         1.1229        0.944726        0.782084 
        1.12903        0.937166        0.771883 
        1.13518        0.923447        0.761856 
        1.14131        0.914549        0.752012 
        1.14745        0.905111        0.742348 
        1.15359        0.892821        0.732852 
        1.15973        0.882895        0.723518 
        1.16584        0.872116        0.714388 
        1.17197         0.86057        0.705403 
        1.17811        0.850643        0.696545 
        1.18424        0.841518        0.687864 
        1.19038        0.830911        0.679307 
        1.19652        0.823956        0.670898 
        1.20267        0.816584        0.662632 
        1.20881         0.80387        0.654507 
        1.21495        0.796402        0.646531 
        1.22108        0.788668        0.638689 
         1.2272        0.777028        0.630995 
        1.23334        0.770284        0.623411 
        1.23949          0.7623        0.615933 
        1.24562        0.754125        0.608599 
        1.25174        0.747334        0.601395 
        1.25789        0.736276        0.594285 
        1.26402        0.729124        0.587303 
        1.27014        0.719201         0.58045 
        1.27628        0.714584        0.573686 
        1.28244         0.70635        0.567017 
        1.28858        0.697795        0.560462 
        1.29471        0.690349        0.554025 
        1.30084        0.684533        0.547695 
        1.30697        0.679106        0.541455 
        1.31312        0.671195        0.535302 
        1.31925        0.664168        0.529265 
        1.32537        0.658127        0.523326 
        1.33151        0.650333        0.517457 
        1.33765        0.644024        0.511682 
        1.34378        0.637053        0.506006 
        1.34992        0.632554        0.500411 
        1.35606        0.624612         0.49489 
         1.3622        0.619393        0.489461 
        1.36833        0.613351        0.484126 
        1.37445        0.606908        0.478874 
        1.38059        0.601433        0.473683 
        1.38675        0.595001        0.468556 
        1.39288        0.589473        0.463526 
        1.39901        0.583634        0.458571 
        1.40515        0.577965        0.453678 
         1.4113        0.574475        0.448858 
        1.41742         0.56724        0.444126 
        1.42355        0.560527        0.439453 
         1.4297        0.556993        0.434834 
        1.43585        0.550925        0.430282 
        1.44198        0.546625        0.425813 
        1.44809        0.540819        0.421416 
        1.45423        0.535996        0.417065 
        1.46036        0.531207        0.412783 
        1.46649        0.525876        0.408559 
        1.47263        0.521061        0.404391 
        1.47877        0.519046        0.400283 
        1.48491        0.510613        0.396226 
        1.49104        0.508478        0.392233 
        1.49718        0.502083        0.388292 
        1.50333        0.498568        0.384399 
        1.50947        0.494784        0.380567 
         1.5156        0.490048        0.376793 
        1.52172        0.485829         0.37307 
        1.52787        0.480524         0.36939 
          1.534        0.477729        0.365764 
        1.54013        0.473195         0.36219 
        1.54627        0.469067        0.358657 
        1.55241        0.464583        0.355171 
        1.55855        0.460757        0.351736 
        1.56467        0.456608        0.348356 
         1.5708        0.452821         0.34501 
        1.57695        0.448582        0.341703 
        1.58308        0.444096        0.338447 
        1.58922        0.441342        0.335231 
        1.59535        0.436915        0.332058 
         1.6015        0.433319        0.328921 
        1.60764        0.429684        0.325826 
        1.61376        0.426162         0.32278 
        1.61989        0.422727        0.319769 
        1.62604        0.418208        0.316791 
        1.63218        0.416049        0.313852 
        1.63831        0.411904        0.310957 
        1.64444        0.409247        0.308097 
        1.65059        0.405405        0.305266 
        1.65673        0.401688        0.302474 
        1.66285        0.398958        0.299725 
        1.66898        0.396059        0.297009 
        1.67512        0.391494        0.294321 
        1.68127        0.388633        0.291664 
         1.6874        0.386682        0.289045 
        1.69353        0.382474        0.286461 
        1.69967        0.380121        0.283901 
        1.70581        0.377693        0.281374 
        1.71193        0.374368        0.278887 
        1.71806        0.371731        0.276425 
        1.72421        0.368271        0.273987 
        1.73035        0.364465        0.271582 
        1.73649        0.363532        0.269206 
        1.74262        0.359167         0.26686 
        1.74876        0.357079        0.264541 
        1.75489        0.354675        0.262254 
        1.76101        0.351181        0.259994 
        1.76715        0.348692        0.257758 
        1.77329         0.34623        0.255546 
        1.77943        0.343461        0.253358 
        1.78557        0.341852          0.2512 
        1.79171        0.338875        0.249065 
        1.79785        0.336138        0.246956 
        1.80399        0.332553        0.244871 
        1.81012        0.331137        0.242812 
        1.81625        0.328955        0.240779 
        1.82239        0.326715        0.238765 
        1.82853         0.32361        0.236775 
        1.83466        0.321157         0.23481 
        1.84078        0.318664        0.232869 
        1.84692        0.316684        0.230947 
        1.85306        0.314887        0.229044 
         1.8592         0.31208        0.227165 
        1.86533        0.310236        0.225309 
        1.87147        0.307109        0.223471 
        1.87761        0.305111        0.221652 
        1.88375        0.303169        0.219856 
        1.88988        0.300358        0.218082 
        1.89601        0.298127        0.216326 
        1.90215        0.296738        0.214588 
        1.90829        0.294043         0.21287 
        1.91442        0.292679        0.211171 
        1.92056        0.290777        0.209492 
         1.9267        0.288156        0.207829 
        1.93284        0.286004        0.206183 
        1.93897         0.28434        0.204558 
        1.94509          0.2827        0.202954 
        1.95123        0.279895        0.201363 
        1.95737        0.278212        0.199788 
        1.96349        0.276202        0.198233 
        1.96964        0.274575        0.196691 
        1.97578        0.272394        0.195164 
        1.98192        0.270991        0.193657 
        1.98805        0.269236        0.192165 
        1.99419        0.267627        0.190689 
        2.00033        0.265736        0.189228 
        2.00647        0.264122        0.187782 
         2.0126        0.262136        0.186354 
        2.01874        0.260378        0.184938 
        2.02488        0.258362        0.183536 
        2.03101        0.256781        0.182151 
        2.03714         0.25577        0.180782 
        2.04328        0.253226        0.179425 
        2.04941        0.252084        0.178083 
        2.05554        0.250268        0.176755 
        2.06167        0.248645         0.17544 
        2.06781        0.246339        0.174137 
        2.07396        0.245711        0.172846 
        2.08009          0.2437         0.17157 
        2.08622        0.242327        0.170308 
        2.09237        0.240853        0.169057 
        2.09851        0.238755        0.167818 
        2.10464         0.23758        0.166593 
        2.11077        0.235266        0.165382 
        2.11691         0.23437         0.16418 
        2.12305        0.233318         0.16299 
        2.12918        0.231312        0.161815 
        2.13531        0.229974        0.160651 
        2.14145         0.22842        0.159496 
         2.1476        0.227065         0.15835 
        2.15372        0.225959        0.157222 
        2.15985        0.223954        0.156104 
        2.16599        0.222987        0.154993 
        2.17213        0.221655        0.153894 
        2.17827        0.219871        0.152806 
         2.1844        0.219106         0.15173 
        2.19054        0.217699        0.150663 
        2.19666        0.216242        0.149608 
         2.2028        0.214537        0.148563 
        2.20893        0.213812        0.147526 
        2.21508        0.212451        0.146499 
        2.22122        0.211188        0.145481 
        2.22736        0.209247        0.144474 
        2.23349        0.208044        0.143477 
        2.23962        0.207065         0.14249 
        2.24577        0.205949         0.14151 
         2.2519        0.204717        0.140541 
        2.25802        0.203367        0.139583 
        2.26417        0.202188        0.138631 
        2.27031        0.201065        0.137687 
        2.27644        0.200508        0.136754 
        2.28257        0.198627         0.13583 
        2.28872        0.197819        0.134913 
        2.29486        0.196579        0.134004 
        2.30099        0.195219        0.133106 
        2.30712        0.194133        0.132215 
        2.31326        0.192948        0.131331 
         2.3194        0.192036        0.130456 
        2.32553        0.190854         0.12959 
        2.33166        0.190054        0.128732 
         2.3378        0.188818        0.127881 
        2.34394        0.187752        0.127037 
        2.35007        0.186476        0.126202 
        2.35619        0.185112        0.125375 
        2.36233        0.184494        0.124554 
        2.36848        0.183415        0.123739 
        2.37462        0.182581        0.122932 
        2.38075        0.181543        0.122134 
        2.38689        0.180533        0.121342 
        2.39303        0.179524        0.120556 
        2.39916        0.178395        0.119779 
        2.40529        0.177459        0.119009 
        2.41143        0.176303        0.118245 
        2.41757        0.175359        0.117487 
         2.4237        0.174501        0.116737 
        2.42983        0.173489        0.115993 
        2.43598        0.172709        0.115255 
        2.44211        0.171337        0.114523 
        2.44823        0.170818          0.1138 
        2.45437        0.170104        0.113081 
        2.46052        0.168958        0.112368 
        2.46665        0.167984        0.111662 
        2.47279        0.167081        0.110962 
        2.47892        0.166473        0.110268 
        2.48507        0.165447        0.109579 
         2.4912         0.16452        0.108897 
