# k  (h/Mpc)    P(k)  (Mpc/h)^3    P_linear(k)  (Mpc/h)^3
     0.00783031         13798.8         13933.6 
       0.013688         15282.1           15681 
       0.019231         14502.7         14709.7 
      0.0249154         12695.9         12633.1 
      0.0312784         10098.9         10140.3 
      0.0375637          8048.1         8124.44 
      0.0433917         6824.63         6811.49 
      0.0492413         5942.09         5962.48 
      0.0555754         5418.86         5393.59 
      0.0619321         4872.57         4984.98 
       0.067871         4568.81          4606.7 
      0.0738098          4167.3         4166.31 
      0.0800417         3673.55         3645.87 
      0.0862327         3151.48         3128.97 
      0.0921407         2749.69         2697.36 
      0.0982031            2446         2355.25 
       0.104506         2164.86         2113.63 
       0.110769         2025.43         1965.87 
       0.116806         1953.07          1874.4 
       0.122832         1847.83         1796.08 
       0.129052         1745.46         1699.82 
       0.135211         1658.22         1577.14 
       0.141259         1501.69         1436.21 
       0.147318         1355.16         1291.32 
       0.153489         1239.94         1158.22 
       0.159709          1164.1         1051.25 
       0.165845         1061.52         975.509 
       0.171974         1036.57         924.569 
       0.178125         998.059         888.661 
       0.184229         932.289          857.48 
        0.19034         910.731         822.319 
       0.196428         874.838         779.445 
       0.202534         806.001         729.499 
       0.208729         781.977         676.176 
       0.214876         736.896         626.082 
       0.220989         685.978         583.217 
       0.227147         664.913         548.861 
        0.23329         636.965         522.786 
       0.239377         628.317         502.686 
       0.245482         595.521         485.196 
       0.251667         572.287         467.444 
       0.257832         562.484         448.042 
       0.263955         530.139          426.79 
       0.270079         507.793         404.475 
        0.27624         484.984         382.425 
       0.282372         472.535         362.258 
        0.28843         465.825         344.924 
       0.294538         441.057         330.163 
       0.300721         427.929          317.57 
        0.30691         419.329         306.446 
       0.313033         399.352         296.052 
       0.319153         392.594         285.589 
       0.325316         384.378         274.728 
        0.33145         373.664          263.64 
       0.337538          358.85         252.722 
       0.343633         348.078         242.256 
       0.349808         338.288          232.47 
       0.355968         331.364         223.669 
       0.362074         319.111          215.85 
       0.368217         316.132         208.713 
       0.374374         309.253         202.018 
       0.380519         296.195          195.58 
       0.386598         292.209         189.288 
       0.392688         283.782         183.017 
        0.39888         276.925         176.734 
       0.405048         270.253         170.652 
       0.411186         268.815         164.884 
       0.417313         263.929         159.487 
       0.423458         256.662         154.437 
       0.429607          248.78         149.727 
       0.435692         244.944         145.342 
       0.441815         239.997         141.123 
       0.447964         233.779         137.023 
       0.454126         230.656         133.023 
       0.460267         226.968         129.129 
       0.466387         221.366         125.352 
        0.47254         218.715         121.689 
       0.478662         212.995         118.202 
       0.484765         209.695         114.888 
       0.490885         206.786         111.725 
       0.497035          202.96         108.701 
       0.503198         201.559         105.802 
       0.509342         196.555         103.019 
       0.515458         193.053         100.334 
       0.521598         188.942         97.7208 
       0.527764         186.944         95.1764 
       0.533884         185.247         92.7296 
           0.54         181.734         90.3659 
       0.546137         177.471         88.0789 
       0.552299         175.722         85.8719 
       0.558452          172.74         83.7558 
       0.564573         171.848         81.7287 
       0.570708         167.527         79.7672 
       0.576825         165.131         77.8745 
       0.582926         163.592         76.0456 
       0.589034         160.648         74.2708 
       0.595184         159.227         72.5386 
       0.601379         156.589         70.8475 
       0.607522         152.775         69.2226 
       0.613639         152.036         67.6555 
       0.619772         150.562         66.1346 
       0.625918         148.667         64.6602 
       0.632068         145.602         63.2326 
       0.638161         144.845         61.8624 
         0.6443         142.959         60.5235 
       0.650464         140.487         59.2188 
       0.656582         139.191         57.9605 
       0.662703         138.247         56.7373 
       0.668861         135.145         55.5419 
       0.675024           134.9         54.3799 
       0.681124         132.853         53.2632 
       0.687237         131.651         52.1766 
       0.693381         129.291         51.1159 
       0.699536         128.572         50.0834 
       0.705665         127.097         49.0842 
       0.711789         125.184         48.1132 
       0.717957         124.027         47.1618 
        0.72409         122.324         46.2412 
       0.730186         122.548         45.3506 
       0.736317         120.771         44.4786 
       0.742472         118.858         43.6263 
       0.748622         117.175         42.7971 
        0.75476         117.448         41.9915 
       0.760888         115.829         41.2081 
       0.767043         113.751         40.4417 
       0.773185         112.504         39.6965 
       0.779291         111.556         38.9745 
       0.785407         110.758         38.2695 
       0.791564         109.694         37.5775 
       0.797719         107.871          36.903 
       0.803834         108.105         36.2494 
       0.809972         106.828         35.6092 
       0.816124         104.898         34.9831 
       0.822261         104.298         34.3738 
       0.828378         103.818         33.7808 
       0.834502         102.824         33.2013 
       0.840667         102.234         32.6318 
       0.846816         100.626         32.0772 
       0.852925         99.9442          31.539 
       0.859047         98.9681         31.0121 
       0.865192         98.3328         30.4955 
       0.871341         97.4744         29.9903 
       0.877463         96.4622          29.499 
       0.883569         96.3884         29.0198 
       0.889708         95.4158          28.549 
       0.895864         94.3799         28.0873 
       0.902008         93.3039         27.6369 
       0.908149         92.3289         27.1966 
       0.914301         91.8503         26.7651 
       0.920448         91.8692         26.3435 
       0.926574         90.0761         25.9324 
       0.932687         89.9958          25.531 
       0.938823          89.359         25.1367 
       0.944975         88.6165         24.7498 
       0.951105         87.6945         24.3725 
       0.957225         87.2031         24.0036 
       0.963368         86.4354         23.6412 
       0.969511         85.8416         23.2863 
       0.975621         84.6037         22.9405 
       0.981748          84.375         22.6009 
       0.987916         83.7003         22.2661 
        0.99406         83.3307         21.9393 
        1.00019          82.598         21.6197 
        1.00632         81.8056         21.3068 
        1.01246         81.3542         20.9997 
        1.01859         80.8634          20.699 
        1.02471         80.3528         20.4047 
        1.03085         79.5834          20.115 
        1.03698         78.9247         19.8316 
        1.04314         78.5427         19.5525 
        1.04929         78.1649         19.2794 
        1.05541         77.4697         19.0126 
        1.06154         76.7455         18.7502 
        1.06769         76.3363         18.4923 
        1.07382         75.8802         18.2402 
        1.07993         75.4696         17.9933 
        1.08607         74.9924           17.75 
        1.09222         74.3625         17.5109 
        1.09836         73.8504         17.2765 
        1.10449         73.4188         17.0467 
        1.11063         72.8767         16.8207 
        1.11677          72.555          16.599 
         1.1229         71.7023         16.3816 
        1.12903         71.3249          16.168 
        1.13518          70.786         15.9579 
        1.14131         70.5147         15.7517 
        1.14745         70.1939         15.5493 
        1.15359         69.4264         15.3504 
        1.15973         69.2132         15.1549 
        1.16584         68.7291         14.9637 
        1.17197         68.3581         14.7755 
        1.17811         67.8362         14.5899 
        1.18424         67.3199         14.4081 
        1.19038         67.0513         14.2288 
        1.19652         66.7128         14.0527 
        1.20267         66.1813         13.8796 
        1.20881         65.6695         13.7094 
        1.21495          65.396         13.5423 
        1.22108         65.0734          13.378 
         1.2272         64.7023         13.2169 
        1.23334         64.4069          13.058 
        1.23949         63.8492         12.9014 
        1.24562         63.3402         12.7478 
        1.25174         63.3223         12.5969 
        1.25789          62.782          12.448 
        1.26402         62.4281         12.3017 
        1.27014         61.9216         12.1582 
        1.27628          61.684         12.0165 
        1.28244         61.5686         11.8768 
        1.28858         61.0289         11.7395 
        1.29471         60.6065         11.6047 
        1.30084         60.1508         11.4721 
        1.30697         59.9781         11.3414 
        1.31312         59.7342         11.2125 
        1.31925         59.1496          11.086 
        1.32537         58.9001         10.9616 
        1.33151         58.7732         10.8387 
        1.33765         58.2843         10.7177 
        1.34378         57.9491         10.5988 
        1.34992         57.7277         10.4817 
        1.35606         57.3985          10.366 
         1.3622         57.1375         10.2523 
        1.36833         56.7346         10.1406 
        1.37445          56.425         10.0305 
        1.38059         56.1269          9.9218 
        1.38675         55.7333         9.81442 
        1.39288         55.4734         9.70905 
        1.39901          55.173         9.60527 
        1.40515         54.8206         9.50278 
         1.4113         54.5893         9.40181 
        1.41742         54.2963          9.3027 
        1.42355         54.1249         9.20482 
         1.4297         53.7582         9.10806 
        1.43585         53.6259         9.01273 
        1.44198         53.0952         8.91912 
        1.44809         52.7391         8.82702 
        1.45423         52.7663         8.73588 
        1.46036         52.4124         8.64618 
        1.46649         51.9864         8.55771 
        1.47263         51.6974         8.47041 
        1.47877         51.5312         8.38436 
        1.48491         51.1151         8.29937 
        1.49104         50.9552         8.21574 
        1.49718         50.6535         8.13319 
        1.50333         50.5046         8.05165 
        1.50947         50.2198         7.97138 
         1.5156         50.0548         7.89233 
        1.52172         49.6247         7.81435 
        1.52787         49.4363         7.73727 
          1.534         49.1377         7.66131 
        1.54013         49.0435         7.58645 
        1.54627         48.5794         7.51246 
        1.55241         48.5608         7.43944 
        1.55855         48.0825         7.36749 
        1.56467         47.7457         7.29668 
         1.5708          47.755          7.2266 
        1.57695         47.3958         7.15734 
        1.58308         47.2206         7.08913 
        1.58922         46.9868         7.02177 
        1.59535         46.9475          6.9553 
         1.6015         46.6016          6.8896 
        1.60764         46.3725         6.82478 
        1.61376         46.1611         6.76096 
        1.61989         45.7517         6.69791 
        1.62604         45.6776         6.63552 
        1.63218         45.3893         6.57396 
        1.63831         45.2373         6.51332 
        1.64444         45.0548         6.45342 
        1.65059         44.7481         6.39413 
        1.65673         44.5629         6.33565 
        1.66285         44.2715         6.27806 
        1.66898         44.0146         6.22116 
        1.67512         43.7891         6.16486 
        1.68127          43.768          6.1092 
         1.6874         43.5019         6.05436 
        1.69353         43.2428         6.00021 
        1.69967         43.0671          5.9466 
        1.70581         42.8584         5.89367 
        1.71193         42.5545         5.84158 
        1.71806         42.4717         5.79001 
        1.72421         42.2091         5.73895 
        1.73035         42.0445         5.68857 
        1.73649         41.8092          5.6388 
        1.74262         41.5784         5.58967 
        1.74876         41.5345         5.54108 
        1.75489         41.2702         5.49318 
        1.76101          41.134         5.44585 
        1.76715         40.8579         5.39902 
        1.77329         40.6617         5.35267 
        1.77943         40.5587         5.30685 
        1.78557         40.3299         5.26163 
        1.79171         40.0658         5.21693 
        1.79785         39.9522         5.17274 
        1.80399         39.7645         5.12907 
        1.81012         39.5091         5.08595 
        1.81625         39.3815         5.04335 
        1.82239         39.1337         5.00118 
        1.82853         39.0313          4.9595 
        1.83466         38.7893         4.91833 
        1.84078         38.5863         4.87768 
        1.84692         38.5561         4.83742 
        1.85306         38.3346         4.79756 
         1.8592         38.0539         4.75821 
        1.86533         37.9629         4.71932 
        1.87147         37.7115         4.68082 
        1.87761         37.5672         4.64273 
        1.88375         37.4196         4.60511 
        1.88988         37.1999         4.56795 
        1.89601         37.1403         4.53117 
        1.90215         36.8765         4.49477 
        1.90829         36.7609         4.45878 
        1.91442         36.5196         4.42319 
        1.92056         36.3988         4.38801 
         1.9267         36.2542         4.35318 
        1.93284         36.1138          4.3187 
        1.93897         35.8101         4.28467 
        1.94509         35.7577         4.25107 
        1.95123         35.5685         4.21774 
        1.95737         35.4903         4.18475 
        1.96349         35.3124         4.15219 
        1.96964         35.1294         4.11989 
        1.97578         34.9538         4.08791 
        1.98192         34.7288         4.05634 
        1.98805         34.5583         4.02509 
        1.99419         34.5005         3.99418 
        2.00033         34.3073         3.96357 
        2.00647         34.1396         3.93328 
         2.0126         34.0065         3.90337 
        2.01874          33.927         3.87372 
        2.02488         33.7071         3.84435 
        2.03101         33.6107         3.81534 
        2.03714          33.434         3.78665 
        2.04328         33.3356         3.75823 
        2.04941         33.0341         3.73012 
        2.05554         32.9686         3.70232 
        2.06167         32.8073         3.67476 
        2.06781         32.7281         3.64747 
        2.07396          32.501         3.62043 
        2.08009         32.4143          3.5937 
        2.08622         32.3025         3.56728 
        2.09237         32.1292         3.54106 
        2.09851         31.9037         3.51511 
        2.10464         31.8287         3.48945 
        2.11077         31.7041         3.46409 
        2.11691         31.5311         3.43891 
        2.12305         31.4031         3.41399 
        2.12918         31.2725         3.38937 
        2.13531         31.0305         3.36499 
        2.14145         30.9783         3.34079 
         2.1476         30.9254          3.3168 
        2.15372         30.7713         3.29317 
        2.15985         30.5606         3.26974 
        2.16599         30.4222         3.24648 
        2.17213         30.3716         3.22346 
        2.17827          30.221         3.20067 
         2.1844         30.0192         3.17812 
        2.19054         30.0126         3.15578 
        2.19666         29.8202         3.13369 
         2.2028         29.6402         3.11178 
        2.20893          29.542         3.09008 
        2.21508         29.4291         3.06855 
        2.22122         29.2639         3.04723 
        2.22736         29.1048         3.02615 
        2.23349         29.0424         3.00527 
        2.23962         28.9526         2.98458 
        2.24577         28.7955         2.96406 
         2.2519         28.6717         2.94377 
        2.25802         28.4809          2.9237 
        2.26417         28.3322         2.90375 
        2.27031         28.2596         2.88398 
        2.27644         28.1835         2.86444 
        2.28257         28.0703         2.84509 
        2.28872         27.9224         2.82588 
        2.29486         27.8234         2.80684 
        2.30099          27.712         2.78803 
        2.30712         27.5668         2.76937 
        2.31326         27.4746         2.75086 
         2.3194         27.3212         2.73252 
        2.32553         27.2487         2.71438 
        2.33166         27.0989         2.69641 
         2.3378         26.9917         2.67858 
        2.34394         26.8634         2.66091 
        2.35007         26.7677         2.64342 
        2.35619         26.6488          2.6261 
        2.36233         26.5464          2.6089 
        2.36848         26.4574         2.59182 
        2.37462         26.3288         2.57493 
        2.38075         26.2246          2.5582 
        2.38689         26.0696         2.54161 
        2.39303         25.9922         2.52517 
        2.39916          25.874         2.50888 
        2.40529         25.7836         2.49275 
        2.41143         25.7095         2.47674 
        2.41757         25.5696         2.46086 
         2.4237         25.4469         2.44516 
        2.42983         25.3182         2.42959 
        2.43598          25.243         2.41411 
        2.44211         25.0966          2.3988 
        2.44823         25.0244         2.38365 
        2.45437          24.928         2.36859 
        2.46052         24.8045         2.35364 
        2.46665         24.7241         2.33886 
        2.47279         24.5563          2.3242 
        2.47892         24.5324         2.30966 
        2.48507          24.402         2.29523 
         2.4912         24.2815         2.28095 
