# k  (h/Mpc)    Pcb(k)  (Mpc/h)^3    Pcb_linear(k)  (Mpc/h)^3
     0.00783031         8398.55         8440.16 
       0.013688         10734.8         10964.2 
       0.019231         11402.8         11542.2 
      0.0249154         11047.6         11048.2 
      0.0312784         9790.41         9883.07 
      0.0375637          8483.2         8619.29 
      0.0433917         7561.95         7608.89 
      0.0492413         6740.21         6835.87 
      0.0555754         6203.39         6248.11 
      0.0619321         5632.86         5829.94 
       0.067871         5382.08         5500.15 
      0.0738098         5070.82          5158.1 
      0.0800417         4679.53         4749.91 
      0.0862327         4218.96         4301.29 
      0.0921407         3809.55         3867.52 
      0.0982031         3453.06         3458.79 
       0.104506         3071.57         3106.78 
       0.110769         2829.36         2843.71 
       0.116806         2699.14         2664.28 
       0.122832         2538.96         2536.73 
       0.129052         2431.82         2431.24 
       0.135211         2361.22         2327.07 
       0.141259         2210.96         2208.85 
       0.147318          2051.1         2070.68 
       0.153489         1927.28         1916.77 
       0.159709          1824.5         1762.08 
       0.165845         1656.55         1623.79 
       0.171974         1602.75         1509.11 
       0.178125         1533.71         1420.28 
       0.184229          1424.6         1354.83 
        0.19034         1400.13         1304.67 
       0.196428         1360.78         1261.22 
       0.202534          1280.8         1216.47 
       0.208729          1258.2         1164.99 
       0.214876         1207.05         1106.99 
       0.220989          1132.2         1044.98 
       0.227147         1102.14         982.662 
        0.23329         1056.47         925.174 
       0.239377         1037.28         875.929 
       0.245482          984.44          835.32 
       0.251667         947.515          802.28 
       0.257832         937.303         775.094 
       0.263955         891.063         750.851 
       0.270079         864.726         726.758 
        0.27624         829.656         700.949 
       0.282372          814.37         673.261 
        0.28843         806.852         644.596 
       0.294538         765.875         615.678 
       0.300721         743.895         587.916 
        0.30691         730.795          562.77 
       0.313033         699.824         541.058 
       0.319153         689.349         522.311 
       0.325316         677.903         505.792 
        0.33145           663.8         490.732 
       0.337538         640.952         476.296 
       0.343633         623.282          461.69 
       0.349808          608.63         446.496 
       0.355968         597.487         431.021 
       0.362074         579.181         415.749 
       0.368217         575.622         400.921 
       0.374374          564.92         386.976 
       0.380519         543.207         374.244 
       0.386598         537.476         362.795 
       0.392688         526.197         352.328 
        0.39888         512.422         342.434 
       0.405048         504.145         333.002 
       0.411186         501.772         323.808 
       0.417313          495.73         314.678 
       0.423458         481.201         305.536 
       0.429607         469.203         296.509 
       0.435692         462.035         287.817 
       0.441815         454.636         279.428 
       0.447964         445.277         271.479 
       0.454126         439.841         264.017 
       0.460267          433.16         257.033 
       0.466387          426.29          250.46 
        0.47254         420.287         244.147 
       0.478662         410.746         238.055 
       0.484765         406.653         232.107 
       0.490885         402.292         226.257 
       0.497035         395.216         220.494 
       0.503198         394.086         214.857 
       0.509342         384.179         209.418 
       0.515458         378.864         204.222 
       0.521598         372.496          199.24 
       0.527764         367.313         194.458 
       0.533884         366.234         189.914 
           0.54          360.37         185.553 
       0.546137         352.821         181.326 
       0.552299         352.068           177.2 
       0.558452         346.441         173.176 
       0.564573          343.22         169.269 
       0.570708         338.336         165.456 
       0.576825          332.62         161.765 
       0.582926         329.902         158.197 
       0.589034         325.507         154.742 
       0.595184         323.485         151.382 
       0.601379         317.968         148.118 
       0.607522         312.445         144.994 
       0.613639         310.829         141.981 
       0.619772         309.192         139.046 
       0.625918         304.997          136.18 
       0.632068         300.278         133.385 
       0.638161         297.929         130.687 
         0.6443         295.733         128.042 
       0.650464         291.083         125.462 
       0.656582         288.686         122.974 
       0.662703         286.758         120.556 
       0.668861         281.919         118.192 
       0.675024         280.846         115.894 
       0.681124         277.615         113.683 
       0.687237          275.01         111.527 
       0.693381         272.199          109.42 
       0.699536         269.405         107.363 
       0.705665         266.847         105.369 
       0.711789         264.766         103.425 
       0.717957          261.67         101.516 
        0.72409         259.208         99.6656 
       0.730186          260.28         97.8721 
       0.736317         255.675         96.1136 
       0.742472         252.613         94.3931 
       0.748622         249.467          92.718 
        0.75476         250.107          91.089 
       0.760888         246.998          89.503 
       0.767043         244.025         87.9495 
       0.773185         242.557         86.4369 
       0.779291         239.032         84.9688 
       0.785407         238.251         83.5327 
       0.791564         235.879         82.1207 
       0.797719         232.517         80.7421 
       0.803834         233.839         79.4039 
       0.809972         231.452         78.0915 
       0.816124         228.252         76.8063 
       0.822261         226.168         75.5538 
       0.828378         226.294         74.3335 
       0.834502         222.666         73.1397 
       0.840667         222.498         71.9649 
       0.846816         219.365         70.8197 
       0.852925         218.242          69.707 
       0.859047         216.084         68.6163 
       0.865192         215.803         67.5456 
       0.871341         212.918         66.4974 
       0.877463         211.178         65.4765 
       0.883569         210.993         64.4798 
       0.889708         209.121          63.499 
       0.895864          207.33         62.5363 
       0.902008         205.443         61.5958 
       0.908149         203.541         60.6755 
       0.914301         202.993         59.7726 
       0.920448         202.037         58.8892 
       0.926574         199.669          58.027 
       0.932687         198.937         57.1841 
       0.938823         197.495          56.355 
       0.944975         195.971         55.5408 
       0.951105         194.283         54.7457 
       0.957225         193.464         53.9677 
       0.963368         192.067         53.2025 
       0.969511         189.765         52.4522 
       0.975621         188.661         51.7206 
       0.981748         187.417         51.0012 
       0.987916         186.617         50.2912 
        0.99406         185.294         49.5975 
        1.00019         184.118         48.9184 
        1.00632         183.234         48.2528 
        1.01246         181.903         47.5987 
        1.01859         180.415          46.958 
        1.02471         179.096           46.33 
        1.03085         178.074         45.7114 
        1.03698         176.751         45.1056 
        1.04314         176.321         44.5083 
        1.04929         175.404         43.9233 
        1.05541         174.116         43.3514 
        1.06154         172.844         42.7883 
        1.06769           171.5         42.2344 
        1.07382         170.869         41.6923 
        1.07993         169.547          41.161 
        1.08607         168.301         40.6369 
        1.09222          167.49         40.1215 
        1.09836         166.393         39.6157 
        1.10449         164.984         39.1193 
        1.11063         164.194          38.631 
        1.11677         163.437         38.1512 
         1.1229         162.091         37.6806 
        1.12903         161.491         37.2175 
        1.13518         160.398         36.7619 
        1.14131         159.478         36.3143 
        1.14745         158.366         35.8744 
        1.15359         156.803         35.4418 
        1.15973         156.481         35.0163 
        1.16584         155.657         34.5997 
        1.17197         154.774         34.1894 
        1.17811         153.368         33.7845 
        1.18424         152.782         33.3874 
        1.19038         151.964         32.9957 
        1.19652         150.816         32.6104 
        1.20267         149.996         32.2314 
        1.20881         148.997         31.8585 
        1.21495         148.604         31.4921 
        1.22108         147.481         31.1317 
         1.2272         146.426         30.7778 
        1.23334         146.052         30.4286 
        1.23949          145.43         30.0841 
        1.24562         144.247         29.7459 
        1.25174         143.163         29.4134 
        1.25789          142.58         29.0851 
        1.26402          142.09         28.7625 
        1.27014         141.204         28.4455 
        1.27628           139.6         28.1325 
        1.28244         139.487         27.8236 
        1.28858         138.389         27.5198 
        1.29471         137.578         27.2212 
        1.30084         136.828         26.9274 
        1.30697         136.301         26.6375 
        1.31312         135.394         26.3515 
        1.31925         134.332         26.0706 
        1.32537         133.995         25.7942 
        1.33151         133.413         25.5208 
        1.33765         132.087         25.2515 
        1.34378         132.073         24.9867 
        1.34992         131.469         24.7255 
        1.35606         130.429         24.4676 
         1.3622         130.141         24.2138 
        1.36833         128.651         23.9642 
        1.37445         128.446         23.7184 
        1.38059         127.772         23.4752 
        1.38675         126.876         23.2349 
        1.39288         126.177          22.999 
        1.39901         125.262         22.7665 
        1.40515         124.948         22.5367 
         1.4113         124.291         22.3102 
        1.41742         123.348         22.0876 
        1.42355         123.059         21.8678 
         1.4297         122.108         21.6503 
        1.43585         121.391         21.4358 
        1.44198         120.603         21.2251 
        1.44809         119.829         21.0177 
        1.45423         119.561         20.8123 
        1.46036         118.626           20.61 
        1.46649         117.938         20.4104 
        1.47263         117.679         20.2133 
        1.47877         116.746         20.0189 
        1.48491         116.195         19.8267 
        1.49104         115.031         19.6375 
        1.49718          115.05         19.4507 
        1.50333         114.421          19.266 
        1.50947         113.894         19.0841 
         1.5156         113.302         18.9048 
        1.52172         112.517         18.7279 
        1.52787         111.929         18.5529 
          1.534         111.455         18.3803 
        1.54013         110.916         18.2102 
        1.54627         110.029         18.0419 
        1.55241         109.638         17.8757 
        1.55855             109         17.7118 
        1.56467         108.115         17.5505 
         1.5708         107.748         17.3908 
        1.57695         107.365         17.2328 
        1.58308         106.745         17.0772 
        1.58922         106.539         16.9233 
        1.59535         106.029         16.7715 
         1.6015         105.182         16.6213 
        1.60764         104.541         16.4731 
        1.61376         103.966          16.327 
        1.61989         103.474         16.1827 
        1.62604         102.934         16.0397 
        1.63218         102.613         15.8987 
        1.63831         101.865         15.7596 
        1.64444         101.356         15.6221 
        1.65059         100.752          15.486 
        1.65673         100.285         15.3517 
        1.66285         99.6699         15.2193 
        1.66898         99.0943         15.0885 
        1.67512         98.7502          14.959 
        1.68127         98.2647         14.8309 
         1.6874         97.6358         14.7046 
        1.69353         97.0388         14.5798 
        1.69967         96.8046         14.4562 
        1.70581         96.3452         14.3341 
        1.71193         95.7722         14.2139 
        1.71806         95.1003         14.0948 
        1.72421         94.7057         13.9768 
        1.73035         94.4752         13.8604 
        1.73649         93.7745         13.7453 
        1.74262         93.1705         13.6316 
        1.74876          92.744         13.5191 
        1.75489         92.2201         13.4082 
        1.76101          91.675         13.2985 
        1.76715         91.2993         13.1899 
        1.77329         90.8286         13.0824 
        1.77943         90.4286         12.9761 
        1.78557         90.0717         12.8711 
        1.79171         89.5619         12.7673 
        1.79785         88.9473         12.6645 
        1.80399         88.6399          12.563 
        1.81012         88.0536         12.4627 
        1.81625         87.7601         12.3636 
        1.82239          87.431         12.2654 
        1.82853         86.7038         12.1683 
        1.83466         86.2718         12.0723 
        1.84078         85.9683         11.9776 
        1.84692         85.7255         11.8836 
        1.85306         85.1818         11.7906 
         1.8592         84.7781         11.6987 
        1.86533         84.3334         11.6079 
        1.87147         83.7954         11.5179 
        1.87761         83.2917         11.4289 
        1.88375         82.8589         11.3409 
        1.88988         82.3747         11.2539 
        1.89601         82.0948         11.1678 
        1.90215          81.552         11.0826 
        1.90829         81.2189         10.9983 
        1.91442         80.9022         10.9148 
        1.92056         80.5252         10.8323 
         1.9267         80.0499         10.7506 
        1.93284         79.7665         10.6696 
        1.93897          79.392         10.5897 
        1.94509         78.8758         10.5108 
        1.95123         78.5666         10.4324 
        1.95737         78.0422         10.3549 
        1.96349         77.7582         10.2783 
        1.96964         77.3815         10.2022 
        1.97578          76.842          10.127 
        1.98192         76.4911         10.0526 
        1.98805         76.0067         9.97896 
        1.99419         75.6812         9.90607 
        2.00033         75.2254         9.83387 
        2.00647         75.0178         9.76242 
         2.0126         74.5804         9.69181 
        2.01874           74.39         9.62179 
        2.02488          73.999          9.5524 
        2.03101         73.5536         9.48383 
        2.03714         73.3494           9.416 
        2.04328         72.8499         9.34876 
        2.04941          72.288         9.28224 
        2.05554         72.2083         9.21641 
        2.06167         71.8779         9.15114 
        2.06781         71.3141          9.0865 
        2.07396         71.0478         9.02239 
        2.08009         70.7315         8.95902 
        2.08622          70.322         8.89633 
        2.09237         69.9748         8.83412 
        2.09851         69.5169          8.7725 
        2.10464         69.3238         8.71157 
        2.11077         69.0278          8.6513 
        2.11691         68.6663         8.59147 
        2.12305         68.1912          8.5322 
        2.12918          67.881         8.47364 
        2.13531         67.6471         8.41563 
        2.14145           67.15         8.35804 
         2.1476         66.9786         8.30091 
        2.15372          66.652         8.24461 
        2.15985         66.2287         8.18878 
        2.16599         65.8711         8.13331 
        2.17213          65.589         8.07842 
        2.17827         65.2339         8.02404 
         2.1844          64.981         7.97022 
        2.19054         64.6659         7.91688 
        2.19666         64.2969         7.86411 
         2.2028         64.0032         7.81177 
        2.20893         63.6503         7.75988 
        2.21508          63.264         7.70841 
        2.22122         62.9759          7.6574 
        2.22736         62.6716         7.60695 
        2.23349          62.475         7.55698 
        2.23962         62.2059         7.50743 
        2.24577         61.7801         7.45828 
         2.2519         61.5248         7.40964 
        2.25802         61.2219         7.36152 
        2.26417         60.8855         7.31369 
        2.27031         60.5914         7.26625 
        2.27644         60.3962         7.21937 
        2.28257          60.029         7.17291 
        2.28872         59.8677         7.12677 
        2.29486         59.5638         7.08105 
        2.30099         59.0914         7.03582 
        2.30712         58.9595         6.99098 
        2.31326         58.6904         6.94645 
         2.3194         58.2973         6.90233 
        2.32553          58.165         6.85868 
        2.33166         57.7008         6.81542 
         2.3378         57.4589         6.77248 
        2.34394         57.1604         6.72989 
        2.35007         56.9086         6.68774 
        2.35619         56.6751           6.646 
        2.36233          56.322         6.60452 
        2.36848         56.0808         6.56331 
        2.37462         55.7697         6.52253 
        2.38075         55.5848         6.48215 
        2.38689         55.3159         6.44208 
        2.39303         55.0828         6.40235 
        2.39916         54.8544         6.36301 
        2.40529         54.5309           6.324 
        2.41143         54.2567         6.28528 
        2.41757         54.0028         6.24688 
         2.4237         53.8718         6.20887 
        2.42983           53.45         6.17119 
        2.43598          53.212         6.13371 
        2.44211         52.9753         6.09662 
        2.44823         52.7202         6.05991 
        2.45437         52.4658         6.02341 
        2.46052         52.1647         5.98718 
        2.46665         51.9031         5.95131 
        2.47279         51.7154         5.91575 
        2.47892          51.454         5.88046 
        2.48507         51.2711         5.84543 
         2.4912         50.9369         5.81075 
