# k  (h/Mpc)    P(k)  (Mpc/h)^3    P_linear(k)  (Mpc/h)^3
     0.00783031         1920.05         1937.62 
       0.013688         2402.49         2434.44 
       0.019231         2491.36         2506.99 
      0.0249154          2358.3         2358.04 
      0.0312784         2069.92         2074.78 
      0.0375637         1774.72         1782.47 
      0.0433917         1554.57         1552.53 
      0.0492413         1373.83         1377.32 
      0.0555754         1248.43          1244.4 
      0.0619321         1138.91         1151.47 
       0.067871         1078.38          1081.4 
      0.0738098          1010.4         1012.14 
      0.0800417         932.248         931.477 
      0.0862327         840.678          842.86 
      0.0921407         754.918          756.08 
      0.0982031         675.868         672.749 
       0.104506         597.781         599.321 
       0.110769         543.255         543.117 
       0.116806         509.364         504.126 
       0.122832         478.041         476.661 
       0.129052         458.414         455.263 
       0.135211         441.018         435.908 
       0.141259          417.14         414.977 
       0.147318         389.692         390.492 
       0.153489         364.028         362.465 
       0.159709         337.727         333.207 
       0.165845          306.65         305.942 
       0.171974         289.319         282.376 
       0.178125         270.676         263.433 
       0.184229         254.002         249.195 
        0.19034         245.765         238.512 
       0.196428         236.862         229.968 
       0.202534         225.213             222 
       0.208729         219.285         213.345 
       0.214876         210.769         203.615 
       0.220989         196.992         192.897 
       0.227147         189.417         181.629 
        0.23329         179.417         170.701 
       0.239377         170.973         160.877 
       0.245482         161.677         152.447 
       0.251667         153.783         145.438 
       0.257832         150.439         139.762 
       0.263955          143.38         135.004 
       0.270079         138.721          130.64 
        0.27624         133.316         126.248 
       0.282372         129.048          121.63 
        0.28843         126.524          116.78 
       0.294538         120.733         111.724 
       0.300721         114.883         106.649 
        0.30691         111.817         101.849 
       0.313033           106.9         97.5393 
       0.319153         104.502         93.7495 
       0.325316         99.9165          90.418 
        0.33145         96.6902         87.4903 
       0.337538         93.9997         84.8202 
       0.343633         91.5377         82.2526 
       0.349808         88.5811         79.6545 
       0.355968         85.9354         77.0221 
       0.362074         84.1437         74.3815 
       0.368217         81.5342          71.742 
       0.374374          79.525         69.1827 
       0.380519         76.0507           66.77 
       0.386598         73.8533         64.5636 
       0.392688          71.665         62.5381 
        0.39888         70.2725         60.6476 
       0.405048         68.6479         58.8991 
       0.411186         66.9183         57.2447 
       0.417313         65.0965         55.6413 
       0.423458         63.2868         54.0595 
       0.429607         62.1878         52.4897 
       0.435692          61.065         50.9597 
       0.441815         58.7668         49.4582 
       0.447964         57.0072         48.0046 
       0.454126          55.966         46.6182 
       0.460267         55.3864         45.3159 
       0.466387         53.8255         44.0918 
        0.47254         53.0436         42.9278 
       0.478662         51.3574         41.8253 
       0.484765         50.3383         40.7674 
       0.490885         48.9245         39.7358 
       0.497035         48.2237         38.7236 
       0.503198         47.1142         37.7335 
       0.509342         45.8727         36.7702 
       0.515458         45.2948         35.8389 
       0.521598         44.2245         34.9368 
       0.527764         43.6022         34.0678 
       0.533884         42.6712         33.2413 
           0.54          41.814         32.4493 
       0.546137         40.5969         31.6862 
       0.552299         39.9112         30.9483 
       0.558452         39.0968         30.2358 
       0.564573         38.7632         29.5467 
       0.570708         37.7287         28.8737 
       0.576825         37.2379         28.2208 
       0.582926          36.608          27.588 
       0.589034         35.8966         26.9731 
       0.595184         35.4412         26.3731 
       0.601379         34.4996         25.7883 
       0.607522         33.9734         25.2279 
       0.613639         33.4435         24.6889 
       0.619772         32.8819         24.1661 
       0.625918         32.2454         23.6583 
       0.632068         31.9741         23.1647 
       0.638161         31.3379         22.6887 
         0.6443         30.8586         22.2218 
       0.650464          30.107         21.7659 
       0.656582         29.9295         21.3257 
       0.662703         29.5789         20.8976 
       0.668861         28.8005          20.479 
       0.675024         28.4629         20.0719 
       0.681124         28.2972         19.6802 
       0.687237         27.7217         19.2987 
       0.693381         27.1525         18.9259 
       0.699536         27.0428         18.5627 
       0.705665         26.5402         18.2108 
       0.711789         26.0853         17.8685 
       0.717957         25.5711         17.5326 
        0.72409         25.3576         17.2071 
       0.730186         25.2369         16.8916 
       0.736317         24.7189         16.5822 
       0.742472         24.4083         16.2795 
       0.748622         24.0416         15.9847 
        0.75476         23.4643         15.6979 
       0.760888         23.3881         15.4189 
       0.767043         22.9969         15.1457 
       0.773185         22.7593         14.8799 
       0.779291         22.5322         14.6222 
       0.785407         22.1587         14.3702 
       0.791564         22.0157         14.1226 
       0.797719         21.5519          13.881 
       0.803834         21.4531         13.6466 
       0.809972         21.0533         13.4168 
       0.816124         20.8389         13.1918 
       0.822261         20.6127         12.9726 
       0.828378         20.3912         12.7591 
       0.834502         20.1856         12.5502 
       0.840667         19.9761         12.3448 
       0.846816         19.5449         12.1446 
       0.852925         19.4891         11.9501 
       0.859047         19.2611         11.7596 
       0.865192         18.9995         11.5726 
       0.871341         18.7547         11.3896 
       0.877463         18.5584         11.2115 
       0.883569         18.4533         11.0376 
       0.889708          18.159         10.8666 
       0.895864         17.9335         10.6988 
       0.902008         17.7361         10.5349 
       0.908149         17.5127         10.3745 
       0.914301         17.4272         10.2172 
       0.920448         17.1715         10.0634 
       0.926574         17.0631         9.91333 
       0.932687         16.8258         9.76664 
       0.938823          16.616         9.62241 
       0.944975         16.4997         9.48079 
       0.951105         16.3172         9.34255 
       0.957225         16.2199         9.20732 
       0.963368         15.9773         9.07433 
       0.969511         15.8163         8.94399 
       0.975621         15.6727         8.81693 
       0.981748         15.4752         8.69204 
       0.987916         15.3764          8.5688 
        0.99406         15.2098         8.44843 
        1.00019         15.0992         8.33063 
        1.00632         14.9689         8.21521 
        1.01246         14.8172         8.10182 
        1.01859         14.6498         7.99078 
        1.02471         14.4878         7.88197 
        1.03085         14.4345         7.77483 
        1.03698         14.3021         7.66993 
        1.04314         14.1303         7.56653 
        1.04929         13.9579          7.4653 
        1.05541          13.901         7.36635 
        1.06154         13.7761         7.26896 
        1.06769         13.6791          7.1732 
        1.07382         13.4704         7.07949 
        1.07993         13.3618         6.98768 
        1.08607         13.3033         6.89713 
        1.09222         13.1382         6.80811 
        1.09836         13.0824         6.72077 
        1.10449         12.9076         6.63508 
        1.11063         12.8572          6.5508 
        1.11677         12.7754         6.46802 
         1.1229         12.6513         6.38683 
        1.12903         12.5551         6.30697 
        1.13518         12.3871         6.22841 
        1.14131         12.3255         6.15125 
        1.14745         12.1573         6.07544 
        1.15359         12.0679          6.0009 
        1.15973         11.9718         5.92759 
        1.16584         11.8812         5.85584 
        1.17197         11.7803         5.78518 
        1.17811         11.6883         5.71547 
        1.18424         11.6106         5.64713 
        1.19038         11.5481         5.57971 
        1.19652         11.4457         5.51342 
        1.20267         11.3647         5.44822 
        1.20881         11.2402         5.38409 
        1.21495         11.1579         5.32111 
        1.22108         11.1056         5.25914 
         1.2272         11.0088         5.19832 
        1.23334         10.9654         5.13832 
        1.23949         10.8479         5.07914 
        1.24562         10.7652         5.02105 
        1.25174         10.7057         4.96397 
        1.25789         10.5745         4.90761 
        1.26402         10.5485         4.85223 
        1.27014         10.4902         4.79784 
        1.27628         10.3547         4.74414 
        1.28244         10.3466         4.69115 
        1.28858         10.2551         4.63905 
        1.29471         10.1234         4.58787 
        1.30084         10.0588         4.53751 
        1.30697         10.0517         4.48783 
        1.31312          9.9418         4.43883 
        1.31925         9.88576         4.39073 
        1.32537         9.82199         4.34338 
        1.33151         9.74699         4.29657 
        1.33765         9.67365         4.25048 
        1.34378         9.66107         4.20516 
        1.34992         9.55973         4.16047 
        1.35606         9.48235         4.11634 
         1.3622         9.41348         4.07294 
        1.36833         9.37162         4.03026 
        1.37445         9.30685         3.98823 
        1.38059         9.24642         3.94666 
        1.38675         9.18596         3.90559 
        1.39288         9.10671         3.86528 
        1.39901         9.04998         3.82555 
        1.40515         8.99862         3.78629 
         1.4113          8.9276         3.74761 
        1.41742         8.89436         3.70961 
        1.42355         8.81317         3.67207 
         1.4297         8.77407         3.63494 
        1.43585         8.72935         3.59833 
        1.44198         8.67199         3.56238 
        1.44809         8.61927         3.52698 
        1.45423         8.54933         3.49194 
        1.46036         8.50953         3.45744 
        1.46649         8.45237         3.42339 
        1.47263         8.41318         3.38978 
        1.47877         8.35658         3.35664 
        1.48491         8.32032         3.32389 
        1.49104         8.24677         3.29165 
        1.49718         8.22063         3.25981 
        1.50333         8.16416         3.22835 
        1.50947         8.09849         3.19737 
         1.5156         8.07749         3.16684 
        1.52172         8.02786         3.13672 
        1.52787         7.98444         3.10692 
          1.534         7.93399         3.07756 
        1.54013         7.89931          3.0486 
        1.54627         7.84278         3.01997 
        1.55241         7.77892          2.9917 
        1.55855         7.77047         2.96384 
        1.56467         7.71824          2.9364 
         1.5708         7.67487         2.90924 
        1.57695         7.61325         2.88239 
        1.58308         7.56805         2.85594 
        1.58922          7.5421          2.8298 
        1.59535         7.50112           2.804 
         1.6015         7.43858         2.77849 
        1.60764         7.41258         2.75331 
        1.61376          7.3842         2.72851 
        1.61989         7.31593           2.704 
        1.62604         7.29391         2.67973 
        1.63218         7.26011         2.65578 
        1.63831         7.22279         2.63218 
        1.64444         7.16049         2.60886 
        1.65059         7.13397         2.58576 
        1.65673         7.10817         2.56297 
        1.66285         7.07222         2.54052 
        1.66898         7.03334         2.51833 
        1.67512           6.987         2.49637 
        1.68127         6.93991         2.47465 
         1.6874         6.91945         2.45323 
        1.69353         6.87054         2.43208 
        1.69967         6.84931         2.41114 
        1.70581         6.79892         2.39045 
        1.71193         6.77803         2.37008 
        1.71806         6.74452          2.3499 
        1.72421         6.70064         2.32993 
        1.73035         6.67248          2.3102 
        1.73649          6.6409         2.29072 
        1.74262         6.59248         2.27147 
        1.74876         6.58828         2.25243 
        1.75489         6.54453         2.23365 
        1.76101         6.49398         2.21509 
        1.76715         6.48691         2.19672 
        1.77329         6.45423         2.17853 
        1.77943          6.4013         2.16055 
        1.78557         6.39775         2.14279 
        1.79171         6.36441         2.12523 
        1.79785         6.33434         2.10786 
        1.80399         6.27603          2.0907 
        1.81012          6.2663         2.07375 
        1.81625         6.22716         2.05699 
        1.82239         6.20549          2.0404 
        1.82853         6.16535         2.02399 
        1.83466         6.12487         2.00779 
        1.84078         6.10725         1.99178 
        1.84692         6.08327         1.97591 
        1.85306         6.05382         1.96021 
         1.8592         6.03613          1.9447 
        1.86533         6.00981         1.92936 
        1.87147         5.97611         1.91417 
        1.87761         5.95925         1.89915 
        1.88375         5.91874          1.8843 
        1.88988         5.89049         1.86962 
        1.89601         5.87168          1.8551 
        1.90215         5.82793         1.84071 
        1.90829         5.82081         1.82649 
        1.91442         5.78182         1.81242 
        1.92056         5.77533          1.7985 
         1.9267          5.7296         1.78472 
        1.93284          5.7284         1.77108 
        1.93897         5.68512         1.75761 
        1.94509         5.64612          1.7443 
        1.95123         5.63876          1.7311 
        1.95737         5.61632         1.71803 
        1.96349         5.57524         1.70512 
        1.96964         5.55738         1.69231 
        1.97578         5.53731         1.67963 
        1.98192         5.50669         1.66711 
        1.98805          5.4895         1.65471 
        1.99419         5.47226         1.64244 
        2.00033         5.42963         1.63028 
        2.00647         5.42323         1.61825 
         2.0126          5.3996         1.60637 
        2.01874         5.37815         1.59458 
        2.02488          5.3564         1.58291 
        2.03101         5.31786         1.57137 
        2.03714         5.29972         1.55996 
        2.04328         5.28523         1.54865 
        2.04941         5.25501         1.53746 
        2.05554         5.24538         1.52639 
        2.06167         5.21913         1.51542 
        2.06781         5.19637         1.50455 
        2.07396         5.17104         1.49377 
        2.08009         5.15599         1.48312 
        2.08622         5.13953         1.47259 
        2.09237         5.12703         1.46213 
        2.09851         5.08688         1.45178 
        2.10464          5.0719         1.44154 
        2.11077         5.05914         1.43142 
        2.11691         5.04118         1.42137 
        2.12305         5.00963         1.41142 
        2.12918         4.99723         1.40158 
        2.13531         4.97161         1.39184 
        2.14145         4.95591         1.38217 
         2.1476         4.93369         1.37258 
        2.15372         4.91318         1.36313 
        2.15985          4.9022         1.35376 
        2.16599         4.88273         1.34445 
        2.17213         4.87184         1.33524 
        2.17827         4.83385         1.32612 
         2.1844         4.81715         1.31709 
        2.19054         4.80536         1.30814 
        2.19666         4.78752         1.29929 
         2.2028         4.75403         1.29051 
        2.20893         4.75428         1.28181 
        2.21508         4.73537         1.27318 
        2.22122         4.69732         1.26463 
        2.22736         4.69026         1.25617 
        2.23349         4.67239         1.24779 
        2.23962         4.66324         1.23949 
        2.24577         4.62935         1.23125 
         2.2519         4.62844          1.2231 
        2.25802         4.59225         1.21504 
        2.26417         4.58441         1.20703 
        2.27031         4.56582         1.19908 
        2.27644         4.54802         1.19123 
        2.28257         4.53407         1.18345 
        2.28872         4.51894         1.17572 
        2.29486         4.49775         1.16806 
        2.30099         4.48194         1.16049 
        2.30712         4.46708         1.15298 
        2.31326         4.45103         1.14553 
         2.3194         4.43188         1.13815 
        2.32553         4.41563         1.13084 
        2.33166         4.40602          1.1236 
         2.3378         4.38857         1.11642 
        2.34394         4.36721         1.10929 
        2.35007         4.34924         1.10224 
        2.35619         4.34435         1.09526 
        2.36233         4.31726         1.08832 
        2.36848         4.31153         1.08143 
        2.37462         4.29458         1.07461 
        2.38075         4.28554         1.06786 
        2.38689         4.26732         1.06116 
        2.39303         4.24805         1.05452 
        2.39916         4.23723         1.04794 
        2.40529         4.21567         1.04142 
        2.41143         4.20852         1.03495 
        2.41757         4.19726         1.02854 
         2.4237         4.17564         1.02219 
        2.42983         4.16965         1.01589 
        2.43598         4.15585         1.00963 
        2.44211         4.13358         1.00343 
        2.44823         4.11665        0.997302 
        2.45437          4.1022        0.991206 
        2.46052         4.09233        0.985156 
        2.46665         4.08261        0.979167 
        2.47279         4.05621        0.973231 
        2.47892         4.05023        0.967339 
        2.48507         4.04048        0.961491 
         2.4912         4.02362        0.955703 
