# k  (h/Mpc)    Pcb(k)  (Mpc/h)^3    Pcb_linear(k)  (Mpc/h)^3
     0.00783031         351.046         353.795 
       0.013688          441.67         445.228 
       0.019231         457.395         458.808 
      0.0249154         431.399          431.71 
      0.0312784         379.725         379.944 
      0.0375637         326.226         326.464 
      0.0433917         284.983         284.378 
      0.0492413         252.346         252.302 
      0.0555754         228.735         227.966 
      0.0619321         210.167          210.95 
       0.067871         198.152         198.119 
      0.0738098         185.439         185.435 
      0.0800417         170.902          170.66 
      0.0862327         154.373         154.427 
      0.0921407         138.548         138.529 
      0.0982031         123.614         123.262 
       0.104506         109.722          109.81 
       0.110769         99.5241         99.5127 
       0.116806         92.7692         92.3692 
       0.122832         87.4056         87.3373 
       0.129052         83.6853          83.417 
       0.135211         80.2285         79.8711 
       0.141259         76.1587         76.0362 
       0.147318         71.4451           71.55 
       0.153489         66.5207         66.4149 
       0.159709         61.3078         61.0541 
       0.165845         55.9883         56.0585 
       0.171974         52.1307         51.7404 
       0.178125         48.6298         48.2697 
       0.184229         45.8754         45.6608 
        0.19034         44.1272         43.7035 
       0.196428         42.4744         42.1379 
       0.202534         40.7541         40.6781 
       0.208729         39.3693         39.0922 
       0.214876         37.6985         37.3093 
       0.220989         35.4971         35.3454 
       0.227147         33.7217         33.2809 
        0.23329          31.764         31.2785 
       0.239377         30.0064         29.4784 
       0.245482         28.4494         27.9337 
       0.251667         27.0402         26.6494 
       0.257832         26.1579         25.6095 
       0.263955         25.1512         24.7376 
       0.270079          24.346         23.9379 
        0.27624          23.446         23.1331 
       0.282372         22.6159         22.2869 
        0.28843         21.8821         21.3984 
       0.294538         20.9235          20.472 
       0.300721         19.9057          19.542 
        0.30691          19.169         18.6624 
       0.313033         18.3419         17.8728 
       0.319153         17.7817         17.1783 
       0.325316         16.9908          16.568 
        0.33145         16.4366         16.0314 
       0.337538         15.9838         15.5422 
       0.343633         15.5587         15.0717 
       0.349808         15.0339         14.5956 
       0.355968         14.5442         14.1133 
       0.362074         14.1249         13.6295 
       0.368217         13.6202         13.1458 
       0.374374         13.2308         12.6768 
       0.380519         12.7064         12.2348 
       0.386598          12.271         11.8304 
       0.392688         11.8879         11.4593 
        0.39888         11.5781         11.1129 
       0.405048         11.2704         10.7925 
       0.411186         10.9525         10.4894 
       0.417313         10.6596         10.1956 
       0.423458         10.3214         9.90571 
       0.429607         10.0976         9.61809 
       0.435692         9.83744         9.33773 
       0.441815         9.51149          9.0626 
       0.447964         9.21373         8.79625 
       0.454126         9.00495         8.54224 
       0.460267         8.81587         8.30357 
       0.466387         8.56056         8.07929 
        0.47254         8.36746         7.86598 
       0.478662         8.14333         7.66398 
       0.484765         7.95319         7.47013 
       0.490885         7.73587          7.2811 
       0.497035         7.52703         7.09563 
       0.503198         7.37436          6.9142 
       0.509342         7.16793         6.73769 
       0.515458           7.025         6.56704 
       0.521598         6.86259         6.40176 
       0.527764         6.72766          6.2425 
       0.533884         6.52463         6.09106 
           0.54         6.39866         5.94594 
       0.546137         6.22776         5.80611 
       0.552299         6.10342         5.67091 
       0.558452         5.96968         5.54035 
       0.564573          5.8553         5.41407 
       0.570708         5.72845         5.29076 
       0.576825         5.60626         5.17112 
       0.582926         5.47699         5.05517 
       0.589034         5.37986          4.9425 
       0.595184         5.28463         4.83255 
       0.601379         5.15278         4.72541 
       0.607522         5.04374         4.62272 
       0.613639         4.92642         4.52394 
       0.619772         4.85178         4.42815 
       0.625918         4.75327          4.3351 
       0.632068         4.66717         4.24465 
       0.638161         4.57498         4.15744 
         0.6443         4.48206         4.07189 
       0.650464         4.38966         3.98833 
       0.656582         4.33191         3.90768 
       0.662703         4.24958         3.82924 
       0.668861         4.14324         3.75254 
       0.675024         4.07275         3.67793 
       0.681124         4.04491         3.60617 
       0.687237         3.94761         3.53625 
       0.693381          3.8514         3.46795 
       0.699536         3.81361          3.4014 
       0.705665         3.74312         3.33692 
       0.711789         3.66073         3.27419 
       0.717957         3.59721         3.21264 
        0.72409         3.54111         3.15299 
       0.730186         3.50006         3.09519 
       0.736317          3.4229          3.0385 
       0.742472          3.3776         2.98302 
       0.748622          3.3255           2.929 
        0.75476         3.24983         2.87646 
       0.760888         3.21403         2.82533 
       0.767043         3.13073         2.77528 
       0.773185         3.09539         2.72658 
       0.779291         3.06657         2.67934 
       0.785407         3.00767         2.63317 
       0.791564         2.96006         2.58781 
       0.797719         2.91004         2.54354 
       0.803834         2.86618         2.50059 
       0.809972         2.82145         2.45847 
       0.816124         2.78043         2.41724 
       0.822261         2.73951         2.37707 
       0.828378         2.69376         2.33795 
       0.834502         2.65491         2.29968 
       0.840667         2.62305         2.26203 
       0.846816         2.57841         2.22535 
       0.852925         2.53603         2.18972 
       0.859047         2.50066         2.15481 
       0.865192         2.46666         2.12055 
       0.871341         2.43379         2.08702 
       0.877463         2.39134         2.05437 
       0.883569         2.36038         2.02252 
       0.889708         2.33299         1.99118 
       0.895864         2.30017         1.96042 
       0.902008         2.26102         1.93039 
       0.908149          2.2332         1.90101 
       0.914301         2.20807         1.87219 
       0.920448         2.17923         1.84401 
       0.926574         2.15731          1.8165 
       0.932687          2.1236         1.78962 
       0.938823         2.08556          1.7632 
       0.944975         2.06634         1.73724 
       0.951105         2.02762         1.71191 
       0.957225         2.00657         1.68713 
       0.963368         1.98556         1.66277 
       0.969511         1.96249         1.63888 
       0.975621          1.9319          1.6156 
       0.981748         1.89759         1.59272 
       0.987916         1.87867         1.57013 
        0.99406          1.8617         1.54808 
        1.00019         1.83601         1.52649 
        1.00632         1.81905         1.50534 
        1.01246         1.79282         1.48457 
        1.01859         1.77201         1.46422 
        1.02471         1.74245         1.44428 
        1.03085         1.72262         1.42465 
        1.03698         1.70698         1.40543 
        1.04314         1.68682         1.38648 
        1.04929         1.66964         1.36793 
        1.05541         1.64174          1.3498 
        1.06154         1.62866         1.33195 
        1.06769         1.61201         1.31441 
        1.07382         1.58994         1.29723 
        1.07993         1.57039         1.28041 
        1.08607          1.5551         1.26382 
        1.09222         1.53278         1.24751 
        1.09836         1.52146          1.2315 
        1.10449         1.49671          1.2158 
        1.11063         1.48065         1.20036 
        1.11677         1.46845         1.18519 
         1.1229         1.44553         1.17031 
        1.12903         1.43581         1.15568 
        1.13518          1.4159         1.14129 
        1.14131         1.40336         1.12715 
        1.14745          1.3895         1.11325 
        1.15359         1.37229          1.0996 
        1.15973         1.35814         1.08616 
        1.16584         1.34138         1.07302 
        1.17197         1.32601         1.06007 
        1.17811         1.31212          1.0473 
        1.18424          1.2982         1.03477 
        1.19038         1.28311         1.02242 
        1.19652          1.2745         1.01027 
        1.20267         1.26292        0.998324 
        1.20881         1.24439        0.986574 
        1.21495         1.23365        0.975032 
        1.22108         1.22225        0.963678 
         1.2272         1.20507        0.952532 
        1.23334         1.19568        0.941539 
        1.23949          1.1855        0.930693 
        1.24562          1.1729         0.92005 
        1.25174         1.16143        0.909591 
        1.25789         1.14625        0.899263 
        1.26402          1.1354        0.889115 
        1.27014         1.12205         0.87915 
        1.27628         1.11496        0.869309 
        1.28244         1.10434          0.8596 
        1.28858         1.09048        0.850054 
        1.29471         1.07984        0.840675 
        1.30084         1.07114        0.831447 
        1.30697         1.06356        0.822344 
        1.31312         1.05212        0.813366 
        1.31925         1.04177         0.80455 
        1.32537         1.03293        0.795875 
        1.33151         1.02141        0.787297 
        1.33765         1.01242        0.778852 
        1.34378         1.00114        0.770548 
        1.34992        0.995704         0.76236 
        1.35606        0.983685        0.754273 
         1.3622        0.976085        0.746319 
        1.36833        0.967399          0.7385 
        1.37445         0.95841        0.730797 
        1.38059        0.949527        0.723181 
        1.38675        0.940428        0.715656 
        1.39288        0.931473        0.708268 
        1.39901        0.924061        0.700989 
        1.40515        0.914775        0.693795 
         1.4113        0.910495        0.686706 
        1.41742        0.899297        0.679744 
        1.42355        0.889005        0.672865 
         1.4297        0.885066        0.666061 
        1.43585        0.875135        0.659354 
        1.44198        0.868761        0.652765 
        1.44809        0.860272         0.64628 
        1.45423        0.854303        0.639859 
        1.46036        0.846586        0.633537 
        1.46649        0.837788        0.627298 
        1.47263        0.830979        0.621139 
        1.47877        0.827954        0.615066 
        1.48491        0.815727        0.609065 
        1.49104        0.812702        0.603157 
        1.49718        0.803241        0.597324 
        1.50333         0.79814        0.591559 
        1.50947        0.792604        0.585882 
         1.5156        0.785003        0.580288 
        1.52172        0.779177        0.574768 
        1.52787        0.770712        0.569309 
          1.534        0.767096        0.563927 
        1.54013         0.76013        0.558622 
        1.54627        0.753984        0.553375 
        1.55241        0.746494        0.548195 
        1.55855        0.741537        0.543089 
        1.56467        0.735631        0.538063 
         1.5708        0.729123        0.533086 
        1.57695        0.722778        0.528165 
        1.58308         0.71551        0.523318 
        1.58922         0.71273        0.518529 
        1.59535        0.705349        0.513801 
         1.6015        0.699799        0.509127 
        1.60764        0.694851        0.504513 
        1.61376        0.689171        0.499969 
        1.61989        0.684193        0.495477 
        1.62604        0.677383        0.491031 
        1.63218        0.674665        0.486642 
        1.63831        0.667814        0.482318 
        1.64444         0.66339        0.478044 
        1.65059        0.657907        0.473812 
        1.65673          0.6528        0.469636 
        1.66285        0.648756        0.465522 
        1.66898        0.643957        0.461456 
        1.67512        0.637447        0.457431 
        1.68127        0.632452        0.453451 
         1.6874        0.629537        0.449527 
        1.69353        0.624028        0.445652 
        1.69967        0.619664        0.441814 
        1.70581        0.615968        0.438022 
        1.71193        0.611343         0.43429 
        1.71806        0.606886        0.430593 
        1.72421        0.601985        0.426933 
        1.73035        0.595963        0.423319 
        1.73649        0.595029        0.419748 
        1.74262        0.587947        0.416221 
        1.74876        0.584778        0.412733 
        1.75489        0.581242        0.409292 
        1.76101        0.575674        0.405891 
        1.76715        0.572355        0.402524 
        1.77329        0.568388        0.399192 
        1.77943         0.56397        0.395896 
        1.78557        0.561923        0.392642 
        1.79171        0.557439        0.389425 
        1.79785          0.5528        0.386243 
        1.80399        0.547629        0.383097 
        1.81012        0.545346        0.379991 
        1.81625        0.542061         0.37692 
        1.82239        0.538549         0.37388 
        1.82853        0.533951        0.370874 
        1.83466        0.529979        0.367904 
        1.84078        0.525882        0.364971 
        1.84692        0.523256        0.362064 
        1.85306        0.520228        0.359186 
         1.8592        0.516031        0.356344 
        1.86533        0.513343        0.353534 
        1.87147         0.50823        0.350751 
        1.87761        0.505569        0.347997 
        1.88375        0.502448        0.345276 
        1.88988        0.498224        0.342587 
        1.89601        0.494397        0.339925 
        1.90215        0.492409         0.33729 
        1.90829        0.488278        0.334684 
        1.91442         0.48591        0.332105 
        1.92056        0.483796        0.329556 
         1.9267        0.479233        0.327031 
        1.93284        0.475731        0.324531 
        1.93897         0.47353        0.322062 
        1.94509        0.471022        0.319624 
        1.95123        0.466531        0.317205 
        1.95737        0.463873        0.314809 
        1.96349        0.460907        0.312445 
        1.96964        0.458044        0.310098 
        1.97578        0.454623        0.307774 
        1.98192        0.452673        0.305479 
        1.98805        0.450014        0.303207 
        1.99419        0.447542        0.300958 
        2.00033        0.444346        0.298731 
        2.00647        0.441458        0.296527 
         2.0126        0.438823        0.294349 
        2.01874        0.436471         0.29219 
        2.02488        0.433192        0.290051 
        2.03101        0.430294        0.287937 
        2.03714        0.428943        0.285846 
        2.04328        0.424866        0.283773 
        2.04941        0.423293        0.281723 
        2.05554        0.420649        0.279695 
        2.06167        0.417947        0.277684 
        2.06781        0.413901        0.275692 
        2.07396        0.413084        0.273718 
        2.08009        0.410013        0.271766 
        2.08622         0.40796        0.269835 
        2.09237        0.405462         0.26792 
        2.09851        0.402235        0.266022 
        2.10464        0.400483        0.264147 
        2.11077         0.39715        0.262291 
        2.11691        0.395549         0.26045 
        2.12305        0.393344        0.258626 
        2.12918        0.390725        0.256824 
        2.13531        0.388875        0.255039 
        2.14145        0.386224        0.253268 
         2.1476        0.384372         0.25151 
        2.15372        0.382197        0.249779 
        2.15985        0.379237        0.248062 
        2.16599        0.377652        0.246356 
        2.17213        0.375561        0.244668 
        2.17827        0.372751        0.242997 
         2.1844        0.371612        0.241342 
        2.19054        0.369441        0.239703 
        2.19666        0.367281        0.238081 
         2.2028        0.364224        0.236472 
        2.20893         0.36303        0.234878 
        2.21508        0.360901        0.233297 
        2.22122         0.35931        0.231729 
        2.22736         0.35603         0.23018 
        2.23349        0.353806        0.228645 
        2.23962         0.35247        0.227123 
        2.24577        0.350674        0.225614 
         2.2519        0.348991         0.22412 
        2.25802        0.346841        0.222643 
        2.26417        0.344921        0.221175 
        2.27031        0.342986        0.219718 
        2.27644        0.342209        0.218279 
        2.28257        0.339346        0.216854 
        2.28872        0.337783        0.215438 
        2.29486        0.335764        0.214035 
        2.30099        0.333935        0.212647 
        2.30712        0.332114        0.211272 
        2.31326        0.330203        0.209906 
         2.3194        0.328965        0.208553 
        2.32553        0.326916        0.207214 
        2.33166        0.325444        0.205888 
         2.3378        0.323399        0.204571 
        2.34394        0.321758        0.203266 
        2.35007        0.319932        0.201974 
        2.35619        0.317815        0.200694 
        2.36233        0.316355        0.199423 
        2.36848        0.315062         0.19816 
        2.37462        0.313903        0.196911 
        2.38075         0.31194        0.195674 
        2.38689        0.310552        0.194446 
        2.39303          0.3086        0.193229 
        2.39916        0.306922        0.192024 
        2.40529         0.30578        0.190829 
        2.41143        0.303526        0.189644 
        2.41757        0.302215        0.188468 
         2.4237        0.300779        0.187304 
        2.42983        0.299677        0.186151 
        2.43598        0.297891        0.185004 
        2.44211        0.295412        0.183868 
        2.44823        0.295154        0.182745 
        2.45437        0.293608        0.181628 
        2.46052        0.291955        0.180519 
        2.46665        0.290268        0.179422 
        2.47279        0.288795        0.178334 
        2.47892        0.287815        0.177254 
        2.48507         0.28611        0.176183 
         2.4912        0.284864        0.175122 
