# k  (h/Mpc)    Pcb(k)  (Mpc/h)^3    Pcb_linear(k)  (Mpc/h)^3
     0.00783031          5506.3         5539.57 
       0.013688         6846.48         6965.52 
       0.019231         7110.88         7175.62 
      0.0249154          6758.8          6750.6 
      0.0312784         5909.93         5940.44 
      0.0375637         5055.02         5103.92 
      0.0433917         4440.21         4445.75 
      0.0492413         3915.92         3944.18 
      0.0555754         3564.92         3563.65 
      0.0619321         3226.59         3297.58 
       0.067871         3066.46         3096.97 
      0.0738098         2878.97         2898.66 
      0.0800417         2657.04         2667.68 
      0.0862327         2393.32         2413.91 
      0.0921407         2153.56         2165.39 
      0.0982031         1936.92         1926.74 
       0.104506         1709.64         1716.46 
       0.110769         1558.57          1555.5 
       0.116806         1470.44         1443.83 
       0.122832         1376.19         1365.17 
       0.129052         1318.12         1303.89 
       0.135211         1274.98         1248.46 
       0.141259         1200.14         1188.52 
       0.147318         1117.23         1118.39 
       0.153489         1047.75         1038.13 
       0.159709         982.986         954.329 
       0.165845         889.517         876.242 
       0.171974         851.283         808.747 
       0.178125         802.893         754.495 
       0.184229         746.931         713.716 
        0.19034         727.794         683.121 
       0.196428         704.081         658.649 
       0.202534         663.738         635.831 
       0.208729         651.588         611.041 
       0.214876         626.594         583.174 
       0.220989         585.017         552.475 
       0.227147         567.916         520.205 
        0.23329          541.73         488.906 
       0.239377         524.312          460.77 
       0.245482         495.082         436.624 
       0.251667         473.503          416.55 
       0.257832         467.095         400.294 
       0.263955         442.504         386.666 
       0.270079         427.894         374.166 
        0.27624         411.006         361.587 
       0.282372         400.732         348.361 
        0.28843         397.127         334.472 
       0.294538         377.222         319.991 
       0.300721         362.377         305.456 
        0.30691         355.537         291.707 
       0.313033         339.492         279.364 
       0.319153         333.021         268.509 
       0.325316         323.704         258.969 
        0.33145         315.112         250.582 
       0.337538         304.755         242.935 
       0.343633           295.7         235.581 
       0.349808         287.467          228.14 
       0.355968          281.09           220.6 
       0.362074         274.103         213.038 
       0.368217         269.555         205.478 
       0.374374         262.982         198.148 
       0.380519         251.985         191.238 
       0.386598         247.626         184.918 
       0.392688         241.283         179.117 
        0.39888         236.016         173.702 
       0.405048         231.403         168.694 
       0.411186         228.509         163.956 
       0.417313         223.592         159.363 
       0.423458         217.835         154.833 
       0.429607         213.087         150.337 
       0.435692         209.355         145.955 
       0.441815         204.502         141.654 
       0.447964         198.823         137.491 
       0.454126          195.47         133.521 
       0.460267         193.508          129.79 
       0.466387         189.394         126.285 
        0.47254         187.207          122.95 
       0.478662         181.234         119.793 
       0.484765         178.938         116.763 
       0.490885         175.732         113.808 
       0.497035         174.133         110.909 
       0.503198         171.044         108.073 
       0.509342         166.572         105.314 
       0.515458         164.691         102.647 
       0.521598         160.812         100.064 
       0.527764         159.093         97.5742 
       0.533884         158.415         95.2072 
           0.54         154.303         92.9389 
       0.546137         150.897         90.7533 
       0.552299         149.167           88.64 
       0.558452         146.519         86.5991 
       0.564573         145.887         84.6254 
       0.570708         142.029          82.698 
       0.576825         140.426         80.8279 
       0.582926         138.917         79.0155 
       0.589034           136.8         77.2543 
       0.595184         135.435         75.5359 
       0.601379         132.302         73.8611 
       0.607522         130.198          72.256 
       0.613639         129.181         70.7121 
       0.619772         127.313         69.2148 
       0.625918          126.31         67.7603 
       0.632068         123.755         66.3465 
       0.638161         122.116         64.9834 
         0.6443         121.495         63.6461 
       0.650464         119.138         62.3402 
       0.656582         118.657         61.0795 
       0.662703          117.21         59.8534 
       0.668861         114.744         58.6545 
       0.675024          114.75         57.4884 
       0.681124         112.889         56.3667 
       0.687237         110.914         55.2739 
       0.693381         110.294         54.2062 
       0.699536         108.927         53.1659 
       0.705665         107.472         52.1582 
       0.711789         106.154         51.1777 
       0.717957         104.916         50.2156 
        0.72409         104.182         49.2832 
       0.730186         103.583         48.3797 
       0.736317          101.73         47.4936 
       0.742472          100.53         46.6265 
       0.748622         99.0793         45.7821 
        0.75476         98.7726         44.9609 
       0.760888           98.14         44.1617 
       0.767043         96.3289         43.3793 
       0.773185         95.2387         42.6181 
       0.779291         94.2015         41.8798 
       0.785407         93.1571         41.1581 
       0.791564         92.9952         40.4491 
       0.797719         91.8125         39.7571 
       0.803834         91.0896         39.0857 
       0.809972         90.4276         38.4275 
       0.816124         89.3695          37.783 
       0.822261         88.2485         37.1551 
       0.828378         88.0578         36.5436 
       0.834502          86.748         35.9454 
       0.840667         86.2743          35.357 
       0.846816         85.4648         34.7836 
       0.852925         84.5259         34.2267 
       0.859047         84.2813          33.681 
       0.865192         83.0663         33.1455 
       0.871341         82.1675         32.6214 
       0.877463          81.663         32.1111 
       0.883569         81.4529         31.6132 
       0.889708         80.7142         31.1233 
       0.895864         79.9852         30.6426 
       0.902008         79.2751         30.1732 
       0.908149         78.3322         29.7139 
       0.914301         78.0731         29.2635 
       0.920448         77.7506         28.8229 
       0.926574          76.278         28.3931 
       0.932687         76.0293         27.9729 
       0.938823         75.4141         27.5598 
       0.944975         74.5577         27.1542 
       0.951105         74.0077         26.7583 
       0.957225         73.8518          26.371 
       0.963368         73.1148         25.9901 
       0.969511         72.5002         25.6167 
       0.975621         71.9929         25.2528 
       0.981748         71.2885         24.8951 
       0.987916         70.8075         24.5421 
        0.99406         70.4304         24.1974 
        1.00019         69.6636           23.86 
        1.00632         69.2142         23.5294 
        1.01246         68.7599         23.2047 
        1.01859         68.4857         22.8866 
        1.02471         67.7138          22.575 
        1.03085         67.2889         22.2681 
        1.03698         66.9155         21.9677 
        1.04314         66.4302         21.6715 
        1.04929         65.9108         21.3816 
        1.05541         65.5504         21.0982 
        1.06154          65.183         20.8192 
        1.06769          64.411          20.545 
        1.07382         64.0327         20.2766 
        1.07993         63.7778         20.0136 
        1.08607         63.2687         19.7543 
        1.09222         63.0379         19.4993 
        1.09836         62.4836         19.2492 
        1.10449         62.1515         19.0037 
        1.11063          61.638         18.7623 
        1.11677          61.481         18.5252 
         1.1229         60.8387         18.2927 
        1.12903          60.664          18.064 
        1.13518         60.4985          17.839 
        1.14131         59.8401          17.618 
        1.14745         59.3507         17.4008 
        1.15359         58.7999         17.1874 
        1.15973         58.7577         16.9774 
        1.16584         58.3337         16.7719 
        1.17197         57.7071         16.5695 
        1.17811         57.5275         16.3699 
        1.18424          56.809         16.1741 
        1.19038         56.7648          15.981 
        1.19652          56.513         15.7912 
        1.20267         56.1259         15.6044 
        1.20881         55.7523         15.4207 
        1.21495         55.5291         15.2403 
        1.22108         55.3397         15.0629 
         1.2272         54.8049         14.8887 
        1.23334         54.5412         14.7168 
        1.23949         54.2145         14.5473 
        1.24562           53.81         14.3809 
        1.25174          53.507         14.2175 
        1.25789         53.4873          14.056 
        1.26402         53.0387         13.8974 
        1.27014         52.8005         13.7416 
        1.27628          52.291         13.5878 
        1.28244         52.2208         13.4361 
        1.28858         51.8411         13.2869 
        1.29471         51.5751         13.1403 
        1.30084          51.151          12.996 
        1.30697         51.1243         12.8537 
        1.31312         50.6501         12.7134 
        1.31925         50.2825         12.5756 
        1.32537         50.0833           12.44 
        1.33151         49.7907         12.3059 
        1.33765         49.6094         12.1739 
        1.34378         49.3865         12.0441 
        1.34992         49.0283         11.9161 
        1.35606          48.736         11.7897 
         1.3622         48.4849         11.6654 
        1.36833         48.2564         11.5432 
        1.37445         47.8314         11.4228 
        1.38059           47.77         11.3037 
        1.38675         47.2746         11.1861 
        1.39288         47.2757         11.0707 
        1.39901         46.9081         10.9569 
        1.40515         46.7212         10.8444 
         1.4113         46.6876         10.7336 
        1.41742         46.3572         10.6248 
        1.42355         45.9675         10.5173 
         1.4297         45.7735         10.4109 
        1.43585         45.4851         10.3061 
        1.44198         45.2372         10.2031 
        1.44809         45.0003         10.1017 
        1.45423         44.8665         10.0014 
        1.46036          44.667         9.90255 
        1.46649         44.4447         9.80504 
        1.47263         44.1423         9.70878 
        1.47877         44.0059         9.61385 
        1.48491         43.8254         9.52005 
        1.49104         43.4781         9.42771 
        1.49718         43.3429         9.33652 
        1.50333         43.1891         9.24641 
        1.50947         42.8815         9.15768 
         1.5156          42.717         9.07024 
        1.52172         42.3988         8.98396 
        1.52787         42.2578         8.89863 
          1.534         42.0237         8.81452 
        1.54013         41.9699         8.73158 
        1.54627         41.5693         8.64958 
        1.55241         41.3984         8.56861 
        1.55855         41.3286          8.4888 
        1.56467         41.0721         8.41024 
         1.5708         40.9356         8.33245 
        1.57695         40.7069         8.25553 
        1.58308         40.3838         8.17977 
        1.58922         40.2344         8.10491 
        1.59535         40.0988         8.03102 
         1.6015         40.0263         7.95795 
        1.60764         39.7715         7.88583 
        1.61376         39.5216          7.8148 
        1.61989         39.2865          7.7446 
        1.62604         39.1452          7.6751 
        1.63218         38.9507          7.6065 
        1.63831         38.8515          7.5389 
        1.64444         38.6336          7.4721 
        1.65059         38.4489         7.40596 
        1.65673         38.2602         7.34068 
        1.66285         38.1955         7.27638 
        1.66898         37.8518         7.21283 
        1.67512         37.8108         7.14992 
        1.68127         37.6004          7.0877 
         1.6874         37.4041         7.02637 
        1.69353         37.3366          6.9658 
        1.69967         37.1627          6.9058 
        1.70581         36.8513         6.84654 
        1.71193         36.6887         6.78821 
        1.71806          36.602         6.73043 
        1.72421         36.4535         6.67321 
        1.73035         36.2492         6.61672 
        1.73649         36.0123          6.5609 
        1.74262         35.8097         6.50578 
        1.74876         35.7566         6.45125 
        1.75489         35.5651         6.39746 
        1.76101         35.4513         6.34431 
        1.76715         35.3208         6.29169 
        1.77329         35.0424          6.2396 
        1.77943          35.009         6.18808 
        1.78557         34.8442         6.13722 
        1.79171         34.7054         6.08693 
        1.79785          34.523         6.03719 
        1.80399         34.3919         5.98803 
        1.81012         34.2813         5.93947 
        1.81625         33.9821         5.89148 
        1.82239         33.8949         5.84395 
        1.82853         33.7611         5.79697 
        1.83466         33.5997         5.75056 
        1.84078         33.4373          5.7047 
        1.84692         33.3337         5.65927 
        1.85306         33.1168         5.61428 
         1.8592          33.076         5.56986 
        1.86533         32.8815         5.52594 
        1.87147         32.7385         5.48244 
        1.87761          32.557         5.43939 
        1.88375         32.5225         5.39686 
        1.88988         32.3206         5.35483 
        1.89601         32.1216         5.31323 
        1.90215         32.0542         5.27203 
        1.90829         31.9392          5.2313 
        1.91442           31.74         5.19099 
        1.92056         31.6423         5.15114 
         1.9267         31.5415         5.11168 
        1.93284         31.3857          5.0726 
        1.93897         31.2839         5.03401 
        1.94509           31.14          4.9959 
        1.95123           31.02         4.95809 
        1.95737         30.8445         4.92065 
        1.96349         30.7501         4.88369 
        1.96964         30.7124         4.84701 
        1.97578         30.4231         4.81068 
        1.98192         30.3451         4.77481 
        1.98805         30.1435          4.7393 
        1.99419         30.1132         4.70414 
        2.00033         29.9331         4.66933 
        2.00647         29.8773         4.63488 
         2.0126         29.6907         4.60084 
        2.01874         29.5672         4.56709 
        2.02488         29.4251         4.53365 
        2.03101         29.2756         4.50061 
        2.03714         29.2102         4.46793 
        2.04328         29.0933         4.43554 
        2.04941         28.9512         4.40349 
        2.05554         28.8871         4.37179 
        2.06167         28.7089         4.34035 
        2.06781         28.6442         4.30923 
        2.07396         28.5449         4.27836 
        2.08009         28.3767         4.24785 
        2.08622         28.2643         4.21767 
        2.09237         28.2092         4.18773 
        2.09851         27.9899         4.15808 
        2.10464         27.8657         4.12876 
        2.11077         27.8667         4.09976 
        2.11691         27.6921         4.07098 
        2.12305         27.5824         4.04247 
        2.12918          27.476         4.01431 
        2.13531         27.3857         3.98641 
        2.14145         27.2501         3.95871 
         2.1476         27.0959         3.93125 
        2.15372         27.0368         3.90418 
        2.15985         26.9208         3.87734 
        2.16599         26.7688         3.85068 
        2.17213         26.7302          3.8243 
        2.17827         26.5542         3.79817 
         2.1844         26.4975         3.77231 
        2.19054         26.4267         3.74668 
        2.19666         26.2525         3.72133 
         2.2028         26.2152         3.69619 
        2.20893         26.0506         3.67127 
        2.21508         25.9667         3.64655 
        2.22122          25.843         3.62206 
        2.22736         25.7888         3.59784 
        2.23349         25.6103         3.57384 
        2.23962         25.5694         3.55006 
        2.24577         25.4413         3.52647 
         2.2519         25.3725         3.50312 
        2.25802         25.1953         3.48003 
        2.26417         25.1134         3.45708 
        2.27031         25.0515         3.43432 
        2.27644         25.0064         3.41183 
        2.28257         24.8644         3.38954 
        2.28872         24.8055         3.36741 
        2.29486           24.67         3.34548 
        2.30099          24.534          3.3238 
        2.30712         24.4795         3.30229 
        2.31326         24.3399         3.28094 
         2.3194         24.2723          3.2598 
        2.32553          24.203         3.23887 
        2.33166         24.0587         3.21814 
         2.3378         24.0251         3.19756 
        2.34394         23.8938         3.17715 
        2.35007          23.831         3.15696 
        2.35619         23.7422         3.13696 
        2.36233         23.5924         3.11709 
        2.36848         23.4963         3.09735 
        2.37462         23.4571         3.07782 
        2.38075         23.3411         3.05848 
        2.38689         23.2237          3.0393 
        2.39303         23.1839         3.02028 
        2.39916         23.0463         3.00144 
        2.40529         22.9653         2.98276 
        2.41143         22.8805         2.96423 
        2.41757         22.7449         2.94586 
         2.4237         22.6937         2.92767 
        2.42983         22.6174         2.90963 
        2.43598         22.5056          2.8917 
        2.44211         22.4455         2.87396 
        2.44823         22.3463          2.8564 
        2.45437         22.3145         2.83894 
        2.46052         22.1711         2.82161 
        2.46665         22.1391         2.80446 
        2.47279         21.9907         2.78745 
        2.47892         21.9209         2.77058 
        2.48507         21.8565         2.75383 
         2.4912         21.7672         2.73725 
