# k  (h/Mpc)    Pcb(k)  (Mpc/h)^3    Pcb_linear(k)  (Mpc/h)^3
     0.00783031         11429.1         11477.8 
       0.013688         14287.5         14633.9 
       0.019231           15151         15372.3 
      0.0249154           14807         14820.4 
      0.0312784         13289.7         13465.5 
      0.0375637           11715         11968.6 
      0.0433917         10619.3           10739 
      0.0492413         9556.71         9755.87 
      0.0555754         8820.26         8950.88 
      0.0619321         7951.53         8318.39 
       0.067871         7546.89         7788.01 
      0.0738098         7073.31         7248.47 
      0.0800417         6496.86         6646.01 
      0.0862327         5868.97         6027.83 
      0.0921407         5342.28         5459.32 
      0.0982031         4900.67         4939.08 
       0.104506         4408.04         4493.94 
       0.110769         4096.48          4152.5 
       0.116806         3921.53         3902.32 
       0.122832         3680.77         3702.39 
       0.129052         3495.41         3517.39 
       0.135211         3378.58         3331.26 
       0.141259         3140.83         3134.38 
       0.147318         2908.52            2925 
       0.153489         2744.73         2710.57 
       0.159709         2627.39         2508.19 
       0.165845         2401.01         2333.86 
       0.171974         2339.41         2190.16 
       0.178125         2259.47         2074.79 
       0.184229         2090.83         1981.93 
        0.19034         2057.98         1901.13 
       0.196428         1998.53         1823.88 
       0.202534         1878.93         1743.61 
       0.208729         1841.08         1657.27 
       0.214876         1763.25          1568.5 
       0.220989         1668.58         1481.25 
       0.227147         1626.16         1399.03 
        0.23329         1563.93         1326.04 
       0.239377         1549.64         1263.87 
       0.245482         1476.62         1210.85 
       0.251667          1422.7         1164.31 
       0.257832         1403.93         1122.02 
       0.263955         1339.37         1081.33 
       0.270079         1304.01         1040.19 
        0.27624         1250.24         997.835 
       0.282372         1233.28         955.356 
        0.28843         1216.27         914.286 
       0.294538         1158.98         875.149 
       0.300721         1134.12          838.86 
        0.30691         1110.78         806.258 
       0.313033         1067.83         777.409 
       0.319153         1055.13         751.204 
       0.325316         1041.63         726.539 
        0.33145         1020.78         702.852 
       0.337538         986.726         679.633 
       0.343633         962.799         656.509 
       0.349808         943.697          633.35 
       0.355968         926.296         610.883 
       0.362074         898.196         589.617 
       0.368217         895.109         569.556 
       0.374374          881.64         550.877 
       0.380519         850.251         533.597 
       0.386598         844.625         517.625 
       0.392688         826.104         502.444 
        0.39888         806.292         487.594 
       0.405048         792.857         473.188 
       0.411186         790.183         459.142 
       0.417313         786.345         445.453 
       0.423458         761.524         432.123 
       0.429607         741.073         419.295 
       0.435692         734.243         407.202 
       0.441815         721.227         395.653 
       0.447964          711.29          384.66 
       0.454126         702.393         374.199 
       0.460267         692.474         364.227 
       0.466387         682.351         354.646 
        0.47254           670.5         345.311 
       0.478662           660.7         336.287 
       0.484765         654.573         327.535 
       0.490885         647.272         319.018 
       0.497035         635.542         310.753 
       0.503198         635.042         302.787 
       0.509342          622.38         295.159 
       0.515458         610.853         287.869 
       0.521598         606.213         280.844 
       0.527764          594.18         274.053 
       0.533884         590.341         267.538 
           0.54         584.232         261.228 
       0.546137         574.978         255.081 
       0.552299         572.879         249.093 
       0.558452         565.569         243.292 
       0.564573         559.675         237.695 
       0.570708         554.993         232.263 
       0.576825         544.033         227.027 
       0.582926         541.879         221.983 
       0.589034         534.318         217.099 
       0.595184         529.738         212.339 
       0.601379         521.624         207.691 
       0.607522          513.58         203.218 
       0.613639         512.291         198.892 
       0.619772         509.787         194.679 
       0.625918         500.891         190.578 
       0.632068         497.384          186.59 
       0.638161         492.266         182.751 
         0.6443           487.4         178.993 
       0.650464         482.566          175.33 
       0.656582          478.66           171.8 
       0.662703         474.049         168.371 
       0.668861         468.296         165.018 
       0.675024         465.092         161.756 
       0.681124         458.833         158.614 
       0.687237         457.032         155.549 
       0.693381         450.832         152.549 
       0.699536         448.609         149.622 
       0.705665         443.869         146.785 
       0.711789         442.684         144.024 
       0.717957         436.017         141.317 
        0.72409          432.05         138.696 
       0.730186         433.579         136.159 
       0.736317         426.153         133.672 
       0.742472         421.746         131.239 
       0.748622         418.691         128.869 
        0.75476         416.047         126.563 
       0.760888         412.805         124.316 
       0.767043         409.888         122.116 
       0.773185         407.526         119.973 
       0.779291         401.788         117.894 
       0.785407         399.921         115.862 
       0.791564         396.597         113.865 
       0.797719         390.881         111.917 
       0.803834         393.413         110.027 
       0.809972         387.318         108.174 
       0.816124         383.597         106.361 
       0.822261         380.605         104.594 
       0.828378         379.288         102.873 
       0.834502         373.642         101.189 
       0.840667         373.746         99.5329 
       0.846816         367.794         97.9183 
       0.852925         368.157         96.3498 
       0.859047          364.69         94.8125 
       0.865192         363.291         93.3039 
       0.871341         358.208         91.8273 
       0.877463         355.795         90.3896 
       0.883569         353.514         88.9864 
       0.889708         350.458          87.606 
       0.895864         347.739         86.2515 
       0.902008         346.043         84.9286 
       0.908149         343.172         83.6345 
       0.914301         341.501         82.3654 
       0.920448         338.969         81.1239 
       0.926574         336.846         79.9125 
       0.932687         334.814         78.7286 
       0.938823         331.291         77.5645 
       0.944975         330.241         76.4215 
       0.951105         327.382         75.3056 
       0.957225         323.516         74.2141 
       0.963368         324.015         73.1406 
       0.969511         318.049         72.0884 
       0.975621         318.008         71.0627 
       0.981748         316.009         70.0544 
       0.987916         314.304         69.0594 
        0.99406          311.47         68.0876 
        1.00019         308.659         67.1365 
        1.00632         308.521         66.2045 
        1.01246         305.949         65.2889 
        1.01859         302.273         64.3921 
        1.02471          300.44         63.5133 
        1.03085         299.772          62.648 
        1.03698           297.7         61.8007 
        1.04314         296.963         60.9655 
        1.04929         294.626         60.1478 
        1.05541         291.361         59.3484 
        1.06154         290.008         58.5617 
        1.06769         287.213          57.788 
        1.07382         286.789          57.031 
        1.07993         283.922         56.2892 
        1.08607         282.037         55.5577 
        1.09222         280.458         54.8384 
        1.09836         279.476         54.1327 
        1.10449         277.268         53.4404 
        1.11063         274.917         52.7594 
        1.11677         272.903         52.0906 
         1.1229         271.932         51.4345 
        1.12903         270.277         50.7893 
        1.13518         268.152         50.1546 
        1.14131         267.491         49.5311 
        1.14745         264.097         48.9187 
        1.15359         262.264         48.3165 
        1.15973         261.521         47.7242 
        1.16584         260.298         47.1446 
        1.17197          258.28         46.5738 
        1.17811         256.139         46.0107 
        1.18424         254.721         45.4586 
        1.19038         253.421          44.914 
        1.19652         250.669         44.3785 
        1.20267         250.267         43.8519 
        1.20881         248.292         43.3339 
        1.21495         247.686         42.8251 
        1.22108         245.814         42.3245 
         1.2272         243.066         41.8332 
        1.23334         242.364         41.3486 
        1.23949         241.429         40.8705 
        1.24562         239.625         40.4013 
        1.25174         238.027         39.9401 
        1.25789         236.031         39.4848 
        1.26402          235.89         39.0375 
        1.27014         234.679         38.5981 
        1.27628         231.943         38.1642 
        1.28244         231.173         37.7362 
        1.28858         229.606         37.3153 
        1.29471         228.562         36.9018 
        1.30084         227.175         36.4949 
        1.30697         225.007         36.0936 
        1.31312         223.784         35.6978 
        1.31925         222.597         35.3091 
        1.32537         221.881         34.9266 
        1.33151         220.224         34.5485 
        1.33765         218.572         34.1761 
        1.34378         217.418           33.81 
        1.34992          215.97          33.449 
        1.35606         214.958         33.0926 
         1.3622          213.67         32.7419 
        1.36833         211.813         32.3972 
        1.37445         211.619         32.0576 
        1.38059         209.618         31.7219 
        1.38675           208.2         31.3902 
        1.39288         207.193         31.0645 
        1.39901         205.859         30.7436 
        1.40515         205.031         30.4266 
         1.4113         203.349         30.1141 
        1.41742         201.659         29.8073 
        1.42355         202.151         29.5041 
         1.4297         200.096         29.2043 
        1.43585         198.978         28.9087 
        1.44198         197.152         28.6184 
        1.44809         196.445         28.3326 
        1.45423         195.514         28.0496 
        1.46036         194.203         27.7711 
        1.46649          193.11         27.4962 
        1.47263         192.394         27.2249 
        1.47877         190.895         26.9573 
        1.48491         189.275         26.6929 
        1.49104         187.725         26.4326 
        1.49718         187.168         26.1756 
        1.50333         185.909         25.9216 
        1.50947         185.081         25.6715 
         1.5156         183.977         25.4251 
        1.52172         182.972         25.1819 
        1.52787          181.89         24.9414 
          1.534         180.909         24.7044 
        1.54013          179.87         24.4706 
        1.54627         178.831         24.2395 
        1.55241         177.963         24.0113 
        1.55855         177.145         23.7864 
        1.56467         175.671          23.565 
         1.5708         174.315         23.3457 
        1.57695          173.77         23.1289 
        1.58308         172.504         22.9154 
        1.58922         171.802         22.7045 
        1.59535         170.323         22.4962 
         1.6015         169.546         22.2903 
        1.60764         168.598         22.0871 
        1.61376         167.374         21.8869 
        1.61989         166.539         21.6891 
        1.62604         165.326         21.4933 
        1.63218         164.691            21.3 
        1.63831          163.81         21.1096 
        1.64444         162.571         20.9214 
        1.65059         161.831         20.7351 
        1.65673         160.741         20.5512 
        1.66285         160.182         20.3701 
        1.66898         158.971         20.1911 
        1.67512         158.165         20.0139 
        1.68127         157.267         19.8387 
         1.6874         156.272         19.6659 
        1.69353         155.751         19.4954 
        1.69967         154.414         19.3264 
        1.70581         153.975         19.1595 
        1.71193         152.679         18.9952 
        1.71806         151.605         18.8325 
        1.72421         151.134         18.6714 
        1.73035          150.14         18.5124 
        1.73649         149.029         18.3552 
        1.74262          148.57            18.2 
        1.74876         147.676         18.0465 
        1.75489         146.846         17.8951 
        1.76101         145.759         17.7454 
        1.76715         144.848         17.5973 
        1.77329         144.229         17.4507 
        1.77943          143.08         17.3056 
        1.78557         142.726         17.1625 
        1.79171         141.886         17.0209 
        1.79785         140.726         16.8809 
        1.80399         140.051         16.7425 
        1.81012          138.98         16.6058 
        1.81625         138.667         16.4707 
        1.82239         137.603          16.337 
        1.82853         137.085         16.2047 
        1.83466         135.991         16.0741 
        1.84078         135.499          15.945 
        1.84692         135.022         15.8172 
        1.85306         133.848         15.6906 
         1.8592         133.325         15.5656 
        1.86533         132.145          15.442 
        1.87147         131.836         15.3196 
        1.87761         130.716         15.1985 
        1.88375         129.872         15.0788 
        1.88988          129.28         14.9605 
        1.89601         128.968         14.8435 
        1.90215         128.331         14.7276 
        1.90829         127.067          14.613 
        1.91442         126.217         14.4996 
        1.92056         125.635         14.3875 
         1.9267         124.889         14.2765 
        1.93284         124.307         14.1666 
        1.93897         123.548         14.0581 
        1.94509         122.876         13.9509 
        1.95123         122.251         13.8446 
        1.95737         121.698         13.7393 
        1.96349         120.923         13.6353 
        1.96964          120.17         13.5322 
        1.97578         119.578           13.43 
        1.98192         119.021         13.3292 
        1.98805         118.302         13.2293 
        1.99419         117.369         13.1305 
        2.00033         116.951         13.0326 
        2.00647         116.376         12.9358 
         2.0126         115.665         12.8401 
        2.01874         115.284         12.7452 
        2.02488           114.2         12.6512 
        2.03101         113.838         12.5583 
        2.03714         113.035         12.4664 
        2.04328         112.631         12.3754 
        2.04941         112.096         12.2853 
        2.05554         111.488         12.1962 
        2.06167         110.516         12.1079 
        2.06781         109.902         12.0204 
        2.07396         109.529         11.9336 
        2.08009         108.646         11.8479 
        2.08622         108.255         11.7631 
        2.09237         107.541          11.679 
        2.09851         107.045         11.5956 
        2.10464         106.545         11.5133 
        2.11077          105.89         11.4318 
        2.11691         105.457         11.3509 
        2.12305         104.777         11.2708 
        2.12918          104.19         11.1917 
        2.13531         103.697         11.1133 
        2.14145         102.955         11.0355 
         2.1476         102.434         10.9583 
        2.15372         101.873         10.8823 
        2.15985         101.322         10.8069 
        2.16599         100.611          10.732 
        2.17213         100.249         10.6579 
        2.17827         99.5016         10.5846 
         2.1844         99.3268         10.5119 
        2.19054         98.5624           10.44 
        2.19666         97.9887         10.3688 
         2.2028          97.613         10.2982 
        2.20893          97.091         10.2282 
        2.21508         96.4018         10.1588 
        2.22122          96.025           10.09 
        2.22736         95.5837          10.022 
        2.23349         94.9293         9.95465 
        2.23962          94.408         9.88787 
        2.24577         93.9925         9.82164 
         2.2519         93.3441         9.75611 
        2.25802         92.9191         9.69129 
        2.26417         92.3958         9.62687 
        2.27031          91.756         9.56298 
        2.27644         91.4516         9.49985 
        2.28257          90.912          9.4373 
        2.28872         90.5242         9.37519 
        2.29486         90.2756         9.31365 
        2.30099           89.36         9.25279 
        2.30712         89.1479         9.19244 
        2.31326         88.6501         9.13253 
         2.3194         88.0247         9.07319 
        2.32553         87.5387         9.01448 
        2.33166         87.0581         8.95631 
         2.3378         86.9136         8.89857 
        2.34394         86.2817         8.84132 
        2.35007         85.5585         8.78466 
        2.35619         85.3012         8.72856 
        2.36233          84.932         8.67282 
        2.36848         84.3636         8.61745 
        2.37462         83.9342         8.56268 
        2.38075         83.5053         8.50843 
        2.38689         83.1692         8.45461 
        2.39303         82.7293         8.40127 
        2.39916         82.2804         8.34844 
        2.40529         81.8885         8.29606 
        2.41143          81.476          8.2441 
        2.41757         80.9673         8.19256 
         2.4237         80.4516         8.14155 
        2.42983         80.0791         8.09099 
        2.43598         79.8446         8.04071 
        2.44211         79.2508         7.99095 
        2.44823         78.9139         7.94172 
        2.45437         78.5361         7.89277 
        2.46052         78.0661         7.84419 
        2.46665         77.5564          7.7961 
        2.47279         77.2667         7.74844 
        2.47892         76.7921         7.70113 
        2.48507         76.4967         7.65418 
         2.4912         75.9729         7.60771 
