# k  (h/Mpc)    Pcb(k)  (Mpc/h)^3    Pcb_linear(k)  (Mpc/h)^3
     0.00783031          624.53         628.713 
       0.013688         794.993         802.166 
       0.019231         839.757           842.9 
      0.0249154         812.463         812.775 
      0.0312784         737.601         738.556 
      0.0375637         655.034           656.5 
      0.0433917         589.848          589.08 
      0.0492413         534.559         535.166 
      0.0555754         492.042          491.02 
      0.0619321         453.478         456.332 
       0.067871         426.609         427.242 
      0.0738098         397.321         397.649 
      0.0800417             365         364.601 
      0.0862327          330.39          330.69 
      0.0921407         299.214         299.503 
      0.0982031         271.566         270.964 
       0.104506         245.859         246.544 
       0.110769         227.383         227.813 
       0.116806         214.857         214.089 
       0.122832         202.853          203.12 
       0.129052         193.302         192.972 
       0.135211         183.558          182.76 
       0.141259         172.139         171.959 
       0.147318         159.983         160.473 
       0.153489         148.873         148.709 
       0.159709           138.3         137.606 
       0.165845         127.682         128.042 
       0.171974         121.166         120.158 
       0.178125         114.793         113.829 
       0.184229         109.125         108.734 
        0.19034         105.348         104.302 
       0.196428         100.971         100.063 
       0.202534         95.7542         95.6598 
       0.208729         91.7345         90.9229 
       0.214876         87.3381         86.0524 
       0.220989         81.6886          81.266 
       0.227147         78.1937         76.7552 
        0.23329         74.3337         72.7505 
       0.239377          71.074         69.3396 
       0.245482         67.9762          66.431 
       0.251667         65.0808          63.878 
       0.257832         63.3003         61.5575 
       0.263955         60.6087         59.3253 
       0.270079         58.3672         57.0684 
        0.27624         55.7654         54.7445 
       0.282372         53.5577         52.4139 
        0.28843         51.8903         50.1607 
       0.294538         49.6183         48.0135 
       0.300721         47.3497         46.0226 
        0.30691         45.9842          44.234 
       0.313033         44.2488         42.6512 
       0.319153         43.2413         41.2135 
       0.325316         41.3153         39.8603 
        0.33145         39.9832         38.5608 
       0.337538         38.8147          37.287 
       0.343633         37.6711         36.0183 
       0.349808          36.315         34.7477 
       0.355968         35.0536         33.5151 
       0.362074         34.1277         32.3484 
       0.368217          32.984         31.2478 
       0.374374         32.2096          30.223 
       0.380519         30.9412          29.275 
       0.386598         29.9866         28.3987 
       0.392688         29.1097         27.5658 
        0.39888         28.4387         26.7511 
       0.405048         27.6917         25.9607 
       0.411186         26.8857         25.1901 
       0.417313         26.1302         24.4391 
       0.423458         25.2832         23.7077 
       0.429607         24.7767          23.004 
       0.435692         24.2141         22.3405 
       0.441815         23.3644         21.7069 
       0.447964         22.6607         21.1038 
       0.454126         22.2318         20.5298 
       0.460267         21.8803         19.9828 
       0.466387         21.2331         19.4571 
        0.47254         20.8161          18.945 
       0.478662         20.2278         18.4499 
       0.484765         19.7575         17.9697 
       0.490885          19.198         17.5025 
       0.497035         18.7259          17.049 
       0.503198         18.3434          16.612 
       0.509342         17.8371         16.1934 
       0.515458          17.545         15.7935 
       0.521598         17.1444         15.4081 
       0.527764         16.8636         15.0355 
       0.533884         16.3587         14.6781 
           0.54          16.056         14.3319 
       0.546137         15.5982         13.9946 
       0.552299         15.3144         13.6661 
       0.558452         14.9892         13.3478 
       0.564573         14.7429         13.0408 
       0.570708         14.4101         12.7428 
       0.576825         14.1304         12.4555 
       0.582926         13.8295         12.1788 
       0.589034         13.5805         11.9108 
       0.595184         13.3772         11.6497 
       0.601379          13.027         11.3947 
       0.607522         12.7874         11.1493 
       0.613639         12.4983         10.9119 
       0.619772         12.3167         10.6808 
       0.625918         12.0604         10.4558 
       0.632068         11.8928          10.237 
       0.638161         11.6542         10.0263 
         0.6443         11.4287         9.82018 
       0.650464         11.1665         9.61923 
       0.656582         11.0665         9.42556 
       0.662703         10.8891          9.2374 
       0.668861         10.5986         9.05348 
       0.675024         10.4343         8.87449 
       0.681124         10.3918         8.70215 
       0.687237           10.15         8.53398 
       0.693381         9.89253         8.36938 
       0.699536         9.82625          8.2088 
       0.705665          9.6449         8.05313 
       0.711789         9.43973         7.90167 
       0.717957         9.26016         7.75315 
        0.72409         9.15423         7.60935 
       0.730186         9.06789         7.47014 
       0.736317         8.87122         7.33371 
       0.742472         8.75654         7.20023 
       0.748622         8.62352         7.07021 
        0.75476          8.4151         6.94368 
       0.760888         8.34404         6.82043 
       0.767043         8.15337         6.69969 
       0.773185         8.05757         6.58214 
       0.779291         8.00701         6.46808 
       0.785407         7.84537         6.35658 
       0.791564         7.74419         6.24704 
       0.797719         7.60266         6.14015 
       0.803834         7.51667         6.03647 
       0.809972         7.38678         5.93483 
       0.816124         7.29249         5.83533 
       0.822261         7.19494          5.7384 
       0.828378          7.0812         5.64398 
       0.834502         6.99561         5.55161 
       0.840667         6.92128         5.46073 
       0.846816         6.79025         5.37214 
       0.852925         6.70439         5.28609 
       0.859047         6.61744         5.20175 
       0.865192         6.52656         5.11899 
       0.871341         6.43375         5.03797 
       0.877463         6.34596         4.95909 
       0.883569         6.27416         4.88211 
       0.889708         6.19123         4.80638 
       0.895864         6.11064         4.73206 
       0.902008         6.01717         4.65949 
       0.908149         5.94288         4.58849 
       0.914301         5.88499         4.51886 
       0.920448         5.80699         4.45075 
       0.926574          5.7671         4.38429 
       0.932687         5.67022         4.31933 
       0.938823         5.57848         4.25547 
       0.944975         5.53366         4.19275 
       0.951105         5.43684         4.13154 
       0.957225         5.39574         4.07165 
       0.963368         5.34052         4.01276 
       0.969511         5.27799         3.95503 
       0.975621         5.20467         3.89876 
       0.981748         5.11205         3.84344 
       0.987916         5.06849         3.78885 
        0.99406         5.03569         3.73553 
        1.00019         4.97447         3.68335 
        1.00632         4.92471         3.63222 
        1.01246         4.85239         3.58198 
        1.01859         4.79978         3.53278 
        1.02471         4.72534         3.48457 
        1.03085         4.69495         3.43709 
        1.03698         4.64499         3.39061 
        1.04314         4.59906         3.34479 
        1.04929         4.53863         3.29992 
        1.05541         4.48292         3.25607 
        1.06154         4.44892          3.2129 
        1.06769         4.42015         3.17046 
        1.07382         4.34705         3.12893 
        1.07993         4.29334         3.08823 
        1.08607         4.26593         3.04809 
        1.09222         4.20586         3.00863 
        1.09836         4.19337         2.96992 
        1.10449         4.10754         2.93193 
        1.11063         4.08155         2.89457 
        1.11677         4.04699         2.85788 
         1.1229          3.9956         2.82188 
        1.12903          3.9712         2.78648 
        1.13518          3.9121         2.75166 
        1.14131         3.87744         2.71746 
        1.14745         3.83333         2.68386 
        1.15359         3.80054         2.65082 
        1.15973         3.76011         2.61832 
        1.16584          3.7244         2.58652 
        1.17197         3.68384         2.55521 
        1.17811         3.64836         2.52431 
        1.18424         3.61284         2.49402 
        1.19038         3.57852         2.46414 
        1.19652         3.55391         2.43477 
        1.20267         3.52354         2.40587 
        1.20881         3.48322         2.37745 
        1.21495         3.45269         2.34954 
        1.22108         3.42424         2.32208 
         1.2272         3.37619         2.29512 
        1.23334         3.36549         2.26853 
        1.23949         3.32838          2.2423 
        1.24562         3.29964         2.21656 
        1.25174         3.27308         2.19126 
        1.25789         3.23147         2.16628 
        1.26402         3.20015         2.14174 
        1.27014         3.17309         2.11763 
        1.27628         3.14627         2.09383 
        1.28244         3.12422         2.07034 
        1.28858         3.09577         2.04725 
        1.29471         3.05733         2.02457 
        1.30084         3.03577         2.00224 
        1.30697         3.01679         1.98023 
        1.31312          2.9898         1.95851 
        1.31925         2.96342         1.93719 
        1.32537         2.94192          1.9162 
        1.33151         2.91029         1.89546 
        1.33765         2.88934         1.87503 
        1.34378         2.86591         1.85494 
        1.34992         2.84457         1.83514 
        1.35606         2.81928         1.81558 
         1.3622         2.79916         1.79634 
        1.36833         2.76845         1.77743 
        1.37445          2.7453          1.7588 
        1.38059         2.72482         1.74038 
        1.38675         2.70352         1.72218 
        1.39288         2.68689         1.70431 
        1.39901         2.65863         1.68671 
        1.40515         2.63765         1.66931 
         1.4113         2.62357         1.65217 
        1.41742         2.59383         1.63534 
        1.42355         2.57156          1.6187 
         1.4297         2.56082         1.60225 
        1.43585         2.53687         1.58604 
        1.44198         2.51784         1.57011 
        1.44809          2.5014         1.55443 
        1.45423         2.48326         1.53891 
        1.46036         2.46396         1.52362 
        1.46649         2.43321         1.50854 
        1.47263         2.42701         1.49366 
        1.47877         2.41292         1.47898 
        1.48491         2.38378         1.46447 
        1.49104          2.3712         1.45019 
        1.49718         2.35178         1.43609 
        1.50333          2.3343         1.42216 
        1.50947         2.31906         1.40843 
         1.5156          2.3014         1.39491 
        1.52172         2.28642         1.38157 
        1.52787         2.26864         1.36838 
          1.534         2.25553         1.35537 
        1.54013         2.23506         1.34255 
        1.54627         2.21956         1.32987 
        1.55241          2.1997         1.31735 
        1.55855         2.18835         1.30501 
        1.56467         2.17306         1.29286 
         1.5708         2.15739         1.28083 
        1.57695         2.13781         1.26894 
        1.58308         2.12095         1.25722 
        1.58922         2.11599         1.24565 
        1.59535         2.09275         1.23423 
         1.6015         2.07704         1.22293 
        1.60764          2.0672         1.21178 
        1.61376         2.04953          1.2008 
        1.61989         2.03811         1.18995 
        1.62604         2.01904          1.1792 
        1.63218         2.01413          1.1686 
        1.63831         1.99821         1.15815 
        1.64444          1.9831         1.14783 
        1.65059          1.9738          1.1376 
        1.65673         1.95517         1.12751 
        1.66285         1.94329         1.11758 
        1.66898         1.93371         1.10776 
        1.67512         1.91422         1.09804 
        1.68127         1.90139         1.08842 
         1.6874         1.89819         1.07895 
        1.69353         1.87785         1.06959 
        1.69967         1.86801         1.06032 
        1.70581         1.86093         1.05116 
        1.71193          1.8397         1.04215 
        1.71806         1.83075         1.03322 
        1.72421         1.82232         1.02438 
        1.73035         1.80391         1.01566 
        1.73649          1.8027         1.00704 
        1.74262         1.78634        0.998521 
        1.74876         1.77402        0.990098 
        1.75489         1.76491        0.981791 
        1.76101         1.74962         0.97358 
        1.76715         1.74172        0.965453 
        1.77329         1.73084        0.957408 
        1.77943         1.72074        0.949452 
        1.78557         1.71272        0.941597 
        1.79171          1.7025         0.93383 
        1.79785         1.69029        0.926149 
        1.80399         1.67911        0.918555 
        1.81012         1.66831        0.911058 
        1.81625         1.65598        0.903646 
        1.82239         1.64821        0.896307 
        1.82853          1.6386        0.889052 
        1.83466         1.62611        0.881885 
        1.84078         1.61686        0.874804 
        1.84692         1.60906         0.86779 
        1.85306         1.60295        0.860844 
         1.8592         1.58927        0.853984 
        1.86533         1.58161        0.847204 
        1.87147         1.56881        0.840489 
        1.87761         1.56321        0.833844 
        1.88375         1.55359        0.827278 
        1.88988         1.54375        0.820791 
        1.89601         1.53474        0.814369 
        1.90215          1.5264        0.808011 
        1.90829         1.51901        0.801724 
        1.91442         1.50838        0.795503 
        1.92056         1.50327        0.789354 
         1.9267          1.4943        0.783263 
        1.93284         1.48298        0.777233 
        1.93897         1.47415        0.771278 
        1.94509         1.46992        0.765398 
        1.95123         1.45734        0.759565 
        1.95737         1.45157        0.753788 
        1.96349         1.44311        0.748086 
        1.96964         1.43717        0.742426 
        1.97578         1.42482        0.736822 
        1.98192         1.41728        0.731288 
        1.98805         1.41142         0.72581 
        1.99419         1.40352        0.720388 
        2.00033          1.3963        0.715018 
        2.00647         1.38963        0.709705 
         2.0126         1.38405        0.704454 
        2.01874         1.37448        0.699249 
        2.02488         1.36478        0.694092 
        2.03101         1.35941        0.688996 
        2.03714         1.35361        0.683956 
        2.04328         1.34406         0.67896 
        2.04941         1.33657        0.674019 
        2.05554         1.33067         0.66913 
        2.06167         1.32348        0.664284 
        2.06781         1.31433        0.659484 
        2.07396         1.31075        0.654725 
        2.08009         1.30301        0.650021 
        2.08622         1.29594        0.645368 
        2.09237         1.29017        0.640752 
        2.09851         1.28149        0.636181 
        2.10464         1.27865        0.631661 
        2.11077         1.26898         0.62719 
        2.11691         1.26271        0.622754 
        2.12305         1.25856        0.618359 
        2.12918         1.24904        0.614018 
        2.13531         1.24356        0.609718 
        2.14145         1.23724        0.605449 
         2.1476          1.2324        0.601216 
        2.15372         1.22414        0.597045 
        2.15985         1.21864        0.592909 
        2.16599         1.21456          0.5888 
        2.17213         1.20757        0.584735 
        2.17827         1.19955        0.580709 
         2.1844          1.1953        0.576725 
        2.19054          1.1894        0.572776 
        2.19666         1.18444         0.56887 
         2.2028         1.17727        0.564997 
        2.20893         1.17151        0.561158 
        2.21508         1.16634         0.55735 
        2.22122         1.16284        0.553576 
        2.22736         1.15219        0.549845 
        2.23349         1.14865         0.54615 
        2.23962         1.14428        0.542486 
        2.24577         1.13809        0.538853 
         2.2519         1.13206        0.535257 
        2.25802         1.12972        0.531701 
        2.26417         1.12139        0.528167 
        2.27031         1.11715        0.524661 
        2.27644         1.11308        0.521198 
        2.28257         1.10457        0.517766 
        2.28872         1.10317        0.514358 
        2.29486         1.09592        0.510982 
        2.30099         1.09114        0.507643 
        2.30712         1.08724        0.504332 
        2.31326         1.08211        0.501045 
         2.3194         1.07707         0.49779 
        2.32553         1.07103        0.494569 
        2.33166         1.06796        0.491377 
         2.3378         1.06209        0.488209 
        2.34394         1.05715        0.485069 
        2.35007         1.04977         0.48196 
        2.35619         1.04622        0.478882 
        2.36233         1.04117        0.475824 
        2.36848         1.03891        0.472786 
        2.37462          1.0345        0.469781 
        2.38075         1.02761        0.466805 
        2.38689         1.02455        0.463852 
        2.39303         1.01973        0.460926 
        2.39916         1.01457        0.458027 
        2.40529         1.01279        0.455154 
        2.41143         1.00438        0.452303 
        2.41757         1.00243        0.449475 
         2.4237        0.997449        0.446677 
        2.42983        0.991956        0.443903 
        2.43598        0.989175        0.441144 
        2.44211         0.98367        0.438414 
        2.44823         0.98048        0.435713 
        2.45437        0.976653        0.433028 
        2.46052        0.972919        0.430362 
        2.46665        0.968343        0.427724 
        2.47279        0.963534        0.425109 
        2.47892        0.959323        0.422514 
        2.48507        0.956784        0.419938 
         2.4912        0.951066        0.417389 
