# k  (h/Mpc)    P(k)  (Mpc/h)^3    P_linear(k)  (Mpc/h)^3
     0.00783031         7352.82         7391.39 
       0.013688         9638.45         9841.13 
       0.019231         10479.3         10607.7 
      0.0249154         10395.4         10410.3 
      0.0312784          9466.9          9570.2 
      0.0375637         8394.53         8543.42 
      0.0433917         7597.32         7661.52 
      0.0492413         6828.56          6945.4 
      0.0555754         6302.83         6370.46 
      0.0619321         5729.28         5948.79 
       0.067871         5483.11          5624.1 
      0.0738098            5192         5305.18 
      0.0800417         4837.86         4937.65 
      0.0862327          4417.5         4533.14 
      0.0921407         4033.68         4131.08 
      0.0982031         3688.52          3735.4 
       0.104506         3299.64         3374.94 
       0.110769         3035.24         3087.42 
       0.116806         2884.85         2878.51 
       0.122832         2700.58         2724.66 
       0.129052         2582.23         2602.27 
       0.135211         2509.23         2494.51 
       0.141259          2362.9         2383.65 
       0.147318         2207.66         2258.19 
       0.153489         2093.57          2115.7 
       0.159709         1994.71         1965.24 
       0.165845         1817.39         1821.66 
       0.171974         1758.41         1693.53 
       0.178125         1679.84         1586.57 
       0.184229         1554.96         1502.88 
        0.19034         1524.34         1437.99 
       0.196428            1480         1385.76 
       0.202534         1396.41         1338.59 
       0.208729         1374.69         1289.71 
       0.214876         1325.75         1236.47 
       0.220989         1248.51         1178.26 
       0.227147         1220.16         1116.49 
        0.23329         1172.35         1055.37 
       0.239377         1150.35         998.926 
       0.245482         1091.81          949.03 
       0.251667         1049.78         906.405 
       0.257832         1037.86         871.227 
       0.263955         987.105         841.683 
       0.270079         959.783         815.159 
        0.27624         921.613         789.238 
       0.282372         906.545         762.619 
        0.28843         899.764         734.907 
       0.294538         855.674         705.815 
       0.300721         831.758         676.213 
        0.30691         817.791         647.615 
       0.313033         784.321         621.434 
       0.319153         772.314         597.938 
       0.325316         759.671         577.102 
        0.33145         744.803         558.734 
       0.337538         719.656         542.193 
       0.343633         700.241         526.523 
       0.349808         684.446         510.929 
       0.355968         672.444         495.227 
       0.362074         653.122         479.458 
       0.368217         649.184          463.56 
       0.374374         637.681         447.921 
       0.380519         613.978         432.997 
       0.386598         607.641         419.155 
       0.392688         596.045          406.36 
        0.39888         580.324         394.406 
       0.405048         571.795         383.375 
       0.411186         568.841         373.046 
       0.417313         562.748         363.122 
       0.423458          546.18         353.362 
       0.429607         533.106         343.716 
       0.435692         525.102         334.256 
       0.441815         517.226         324.894 
       0.447964         507.075          315.77 
       0.454126          500.86         306.995 
       0.460267         493.552          298.68 
       0.466387         486.518         290.867 
        0.47254         479.486         283.447 
       0.478662         468.971         276.427 
       0.484765         464.772         269.722 
       0.490885          460.04         263.221 
       0.497035         452.239         256.846 
       0.503198          451.07         250.584 
       0.509342         439.895         244.481 
       0.515458         434.037          238.56 
       0.521598         427.067         232.789 
       0.527764         420.955         227.194 
       0.533884         420.063         221.864 
           0.54         413.581         216.764 
       0.546137         405.222         211.849 
       0.552299         404.724         207.096 
       0.558452         398.611         202.512 
       0.564573         394.402         198.089 
       0.570708         389.779         193.775 
       0.576825         383.127         189.578 
       0.582926         379.979         185.493 
       0.589034           375.3         181.511 
       0.595184         373.028          177.62 
       0.601379         366.578         173.824 
       0.607522         360.946         170.182 
       0.613639         358.979          166.67 
       0.619772         357.211          163.26 
       0.625918         352.441          159.95 
       0.632068          347.16         156.737 
       0.638161         344.173         153.642 
         0.6443         342.095         150.606 
       0.650464         337.073         147.632 
       0.656582         334.204         144.754 
       0.662703         332.026         141.949 
       0.668861         326.943         139.203 
       0.675024         325.323          136.53 
       0.681124          321.88          133.96 
       0.687237         318.886         131.456 
       0.693381         316.129         129.007 
       0.699536         312.451         126.618 
       0.705665         309.557         124.301 
       0.711789         307.696         122.044 
       0.717957         303.852         119.828 
        0.72409         301.498          117.68 
       0.730186         302.459         115.598 
       0.736317         297.105         113.555 
       0.742472         293.528         111.554 
       0.748622         290.231         109.604 
        0.75476         290.769         107.706 
       0.760888         287.352         105.856 
       0.767043         284.389         104.043 
       0.773185         282.737         102.277 
       0.779291         278.522         100.563 
       0.785407         277.676         98.8869 
       0.791564         274.803         97.2393 
       0.797719         271.149         95.6308 
       0.803834         272.755         94.0696 
       0.809972         270.031         92.5381 
       0.816124         266.689         91.0379 
       0.822261         263.804         89.5753 
       0.828378         264.227         88.1497 
       0.834502         259.829         86.7542 
       0.840667         259.589         85.3803 
       0.846816          256.27         84.0405 
       0.852925         254.963         82.7382 
       0.859047          252.36         81.4612 
       0.865192         252.202         80.2073 
       0.871341         248.771         78.9794 
       0.877463         246.707         77.7831 
       0.883569         246.429          76.615 
       0.889708         244.454         75.4653 
       0.895864         242.416         74.3365 
       0.902008         240.394         73.2335 
       0.908149         238.234         72.1539 
       0.914301          237.59         71.0946 
       0.920448         236.105         70.0578 
       0.926574         233.934         69.0456 
       0.932687          232.72         68.0559 
       0.938823         231.014         67.0822 
       0.944975         229.215         66.1257 
       0.951105         227.443         65.1915 
       0.957225         226.407         64.2771 
       0.963368         224.947         63.3775 
       0.969511         222.052         62.4953 
       0.975621         221.096         61.6348 
       0.981748         219.521         60.7886 
       0.987916          218.57         59.9531 
        0.99406         216.965         59.1368 
        1.00019         215.695         58.3374 
        1.00632         214.893         57.5537 
        1.01246          213.26         56.7835 
        1.01859         211.293         56.0288 
        1.02471         209.765         55.2889 
        1.03085         208.902           54.56 
        1.03698         207.234          53.846 
        1.04314         206.779         53.1419 
        1.04929         205.568         52.4522 
        1.05541          204.03         51.7776 
        1.06154         202.824         51.1135 
        1.06769         200.825         50.4601 
        1.07382         200.372         49.8204 
        1.07993         198.834         49.1934 
        1.08607         197.146         48.5747 
        1.09222         196.439         47.9662 
        1.09836         195.107          47.369 
        1.10449         193.361         46.7827 
        1.11063         192.463         46.2058 
        1.11677         191.699         45.6389 
         1.1229         190.096         45.0827 
        1.12903         189.579         44.5353 
        1.13518         188.255         43.9967 
        1.14131         187.144         43.4674 
        1.14745         185.584         42.9472 
        1.15359         183.882         42.4355 
        1.15973         183.514          41.932 
        1.16584         182.695          41.439 
        1.17197         181.632         40.9534 
        1.17811         179.923         40.4741 
        1.18424         179.093          40.004 
        1.19038          178.17         39.5401 
        1.19652         176.732         39.0838 
        1.20267         175.933         38.6348 
        1.20881         174.737          38.193 
        1.21495         174.412         37.7589 
        1.22108         172.921         37.3317 
         1.2272         171.741         36.9122 
        1.23334         171.249         36.4983 
        1.23949         170.669         36.0897 
        1.24562         169.156         35.6887 
        1.25174         167.756         35.2944 
        1.25789          167.31          34.905 
        1.26402         166.618         34.5221 
        1.27014         165.573         34.1461 
        1.27628         163.681         33.7745 
        1.28244         163.446         33.4078 
        1.28858         162.321         33.0472 
        1.29471         161.348         32.6927 
        1.30084         160.485         32.3438 
        1.30697         159.895         31.9995 
        1.31312         158.821         31.6598 
        1.31925         157.446         31.3261 
        1.32537          157.14         30.9977 
        1.33151         156.268         30.6728 
        1.33765         154.739         30.3528 
        1.34378         154.867         30.0381 
        1.34992          154.06         29.7276 
        1.35606         152.851         29.4209 
         1.3622         152.404         29.1192 
        1.36833         150.732         28.8224 
        1.37445         150.506         28.5299 
        1.38059         149.541         28.2406 
        1.38675         148.664         27.9547 
        1.39288         147.833          27.674 
        1.39901         146.671         27.3972 
        1.40515         146.352         27.1236 
         1.4113         145.634          26.854 
        1.41742         144.461          26.589 
        1.42355         144.073         26.3272 
         1.4297         143.009         26.0681 
        1.43585          142.06         25.8127 
        1.44198         141.118         25.5617 
        1.44809         140.211         25.3145 
        1.45423         139.941         25.0698 
        1.46036         138.918         24.8287 
        1.46649         138.038         24.5908 
        1.47263         137.769         24.3558 
        1.47877         136.576          24.124 
        1.48491         135.812         23.8949 
        1.49104         134.546         23.6693 
        1.49718         134.731         23.4465 
        1.50333         133.815         23.2262 
        1.50947         133.189         23.0092 
         1.5156         132.357         22.7954 
        1.52172         131.575         22.5843 
        1.52787         130.822         22.3754 
          1.534         130.436         22.1695 
        1.54013         129.641         21.9664 
        1.54627         128.649         21.7655 
        1.55241         128.038         21.5672 
        1.55855         127.448         21.3715 
        1.56467         126.402         21.1789 
         1.5708         126.049         20.9882 
        1.57695         125.467         20.7995 
        1.58308         124.762         20.6135 
        1.58922         124.416         20.4298 
        1.59535         123.835         20.2484 
         1.6015         122.799         20.0689 
        1.60764         122.038         19.8917 
        1.61376         121.405         19.7172 
        1.61989         120.826         19.5446 
        1.62604         120.157         19.3737 
        1.63218         119.776          19.205 
        1.63831         118.789         19.0388 
        1.64444         118.198         18.8744 
        1.65059         117.485         18.7116 
        1.65673         116.928         18.5509 
        1.66285         116.407         18.3926 
        1.66898         115.536         18.2361 
        1.67512         115.268         18.0811 
        1.68127         114.513         17.9278 
         1.6874         113.863         17.7767 
        1.69353          113.12         17.6273 
        1.69967         112.943         17.4794 
        1.70581         112.338         17.3332 
        1.71193         111.655         17.1893 
        1.71806         110.817         17.0467 
        1.72421         110.369         16.9055 
        1.73035         110.076          16.766 
        1.73649         109.279         16.6282 
        1.74262         108.601          16.492 
        1.74876         108.075         16.3573 
        1.75489         107.452         16.2244 
        1.76101         106.866          16.093 
        1.76715         106.285         15.9629 
        1.77329         105.764          15.834 
        1.77943         105.198         15.7066 
        1.78557         104.817         15.5808 
        1.79171         104.206         15.4563 
        1.79785         103.523         15.3332 
        1.80399         103.086         15.2114 
        1.81012         102.426         15.0912 
        1.81625         102.137         14.9723 
        1.82239         101.761         14.8545 
        1.82853         100.966         14.7381 
        1.83466         100.294          14.623 
        1.84078         99.9295         14.5093 
        1.84692         99.6446         14.3966 
        1.85306         99.0403          14.285 
         1.8592         98.6097         14.1748 
        1.86533          97.978         14.0658 
        1.87147         97.3759         13.9578 
        1.87761         96.8622         13.8509 
        1.88375         96.2392         13.7453 
        1.88988         95.7544         13.6409 
        1.89601          95.377         13.5375 
        1.90215         94.7797         13.4351 
        1.90829         94.2633         13.3339 
        1.91442          94.003         13.2337 
        1.92056         93.3771         13.1346 
         1.9267         92.9896         13.0364 
        1.93284         92.6048         12.9392 
        1.93897          92.168         12.8432 
        1.94509         91.5051         12.7484 
        1.95123         91.1718         12.6543 
        1.95737         90.4463          12.561 
        1.96349         90.1472          12.469 
        1.96964         89.7665         12.3776 
        1.97578         89.1279         12.2872 
        1.98192         88.7275         12.1978 
        1.98805          88.204         12.1093 
        1.99419         87.7024         12.0216 
        2.00033         87.1625         11.9348 
        2.00647         87.0304         11.8489 
         2.0126          86.507          11.764 
        2.01874         86.1053         11.6798 
        2.02488         85.7231         11.5964 
        2.03101         85.2681         11.5139 
        2.03714         84.9565         11.4323 
        2.04328         84.3856         11.3514 
        2.04941         83.7222         11.2714 
        2.05554         83.6225         11.1922 
        2.06167         83.1641         11.1137 
        2.06781         82.5346         11.0359 
        2.07396         82.2557         10.9588 
        2.08009         81.9142         10.8825 
        2.08622         81.4061         10.8071 
        2.09237         80.9589         10.7322 
        2.09851         80.4716          10.658 
        2.10464         80.2403         10.5847 
        2.11077         79.7954         10.5121 
        2.11691         79.4865         10.4401 
        2.12305         78.9532         10.3687 
        2.12918         78.5218         10.2982 
        2.13531         78.2177         10.2283 
        2.14145         77.6196          10.159 
         2.1476         77.3682         10.0902 
        2.15372         77.0504         10.0223 
        2.15985          76.575         9.95509 
        2.16599         76.1565         9.88826 
        2.17213          75.869         9.82212 
        2.17827          75.344         9.75661 
         2.1844         75.0739         9.69176 
        2.19054         74.7117         9.62748 
        2.19666         74.1962         9.56387 
         2.2028         74.0315         9.50079 
        2.20893         73.4964         9.43826 
        2.21508         73.1105         9.37621 
        2.22122         72.6706         9.31472 
        2.22736         72.3522          9.2539 
        2.23349         72.1332         9.19364 
        2.23962         71.7841          9.1339 
        2.24577         71.3394         9.07464 
         2.2519         71.0002         9.01598 
        2.25802         70.6611         8.95795 
        2.26417         70.2405         8.90027 
        2.27031         69.8787         8.84304 
        2.27644         69.6048         8.78649 
        2.28257         69.3279         8.73044 
        2.28872         68.9872         8.67477 
        2.29486         68.7415         8.61961 
        2.30099          68.137         8.56504 
        2.30712         67.9881         8.51093 
        2.31326         67.6198         8.45719 
         2.3194         67.2318         8.40395 
        2.32553         67.0132         8.35127 
        2.33166         66.4452         8.29906 
         2.3378         66.2175         8.24722 
        2.34394         65.9231         8.19582 
        2.35007         65.5672         8.14493 
        2.35619         65.2981         8.09454 
        2.36233         64.8711         8.04446 
        2.36848         64.5717         7.99471 
        2.37462         64.2485         7.94548 
        2.38075         63.9987         7.89672 
        2.38689         63.6767         7.84833 
        2.39303         63.4625         7.80035 
        2.39916         63.1607         7.75283 
        2.40529         62.7319         7.70571 
        2.41143         62.4666         7.65895 
        2.41757         62.0915         7.61256 
         2.4237         61.9657         7.56665 
        2.42983         61.4377         7.52111 
        2.43598         61.1966         7.47584 
        2.44211         60.9378         7.43101 
        2.44823         60.6252         7.38666 
        2.45437         60.3547         7.34255 
        2.46052          60.018         7.29876 
        2.46665         59.6861         7.25541 
        2.47279         59.4978         7.21243 
        2.47892          59.186         7.16977 
        2.48507         58.8574         7.12742 
         2.4912         58.5936         7.08549 
