# k  (h/Mpc)    Pcb(k)  (Mpc/h)^3    Pcb_linear(k)  (Mpc/h)^3
     0.00783031         561.477         565.145 
       0.013688         747.125         753.826 
       0.019231          810.16          813.23 
      0.0249154         797.743         798.503 
      0.0312784         733.043         734.318 
      0.0375637         654.083          655.68 
      0.0433917         588.781         588.082 
      0.0492413         532.489         533.171 
      0.0555754         490.143         489.078 
      0.0619321          453.87         456.735 
       0.067871          431.15         431.827 
      0.0738098         406.849         407.357 
      0.0800417         379.297         379.149 
      0.0862327         347.469         348.097 
      0.0921407         316.634          317.23 
      0.0982031         287.198         286.851 
       0.104506         258.301         259.175 
       0.110769         236.528         237.098 
       0.116806         221.817         221.057 
       0.122832         208.959         209.245 
       0.129052         200.151         199.848 
       0.135211         192.305         191.573 
       0.141259         183.051         183.061 
       0.147318         172.609         173.427 
       0.153489         162.333         162.485 
       0.159709         151.342          150.93 
       0.165845         139.224         139.904 
       0.171974         130.956         130.065 
       0.178125         122.796          121.85 
       0.184229         115.799         115.423 
        0.19034         111.555         110.439 
       0.196428         107.365         106.429 
       0.202534         102.836         102.806 
       0.208729         99.7648         99.0525 
       0.214876         96.1218         94.9632 
       0.220989         90.6538         90.4933 
       0.227147         87.0584         85.7494 
        0.23329         82.5749          81.055 
       0.239377         78.4664         76.7204 
       0.245482         74.4928         72.8885 
       0.251667         70.9039         69.6148 
       0.257832         68.8062          66.913 
       0.263955         66.0455          64.644 
       0.270079         63.9979         62.6069 
        0.27624          61.637         60.6162 
       0.282372         59.6831         58.5719 
        0.28843         58.1843         56.4433 
       0.294538         55.8026         54.2092 
       0.300721         53.2415         51.9358 
        0.30691         51.5601         49.7393 
       0.313033         49.4231         47.7285 
       0.319153         48.1395         45.9241 
       0.325316          45.923         44.3237 
        0.33145         44.4824         42.9131 
       0.337538         43.3256         41.6426 
       0.343633         42.2294         40.4392 
       0.349808         40.9135         39.2415 
       0.355968         39.6614         38.0355 
       0.362074         38.7055         36.8244 
       0.368217         37.4501         35.6035 
       0.374374          36.558         34.4022 
       0.380519         35.0637         33.2561 
       0.386598         33.9412          32.193 
       0.392688         32.9368         31.2102 
        0.39888         32.1809         30.2922 
       0.405048          31.383         29.4449 
       0.411186         30.5434         28.6517 
       0.417313          29.768         27.8894 
       0.423458         28.8783         27.1399 
       0.429607         28.3567          26.399 
       0.435692          27.745         25.6724 
       0.441815         26.7863         24.9534 
       0.447964         25.9865         24.2526 
       0.454126          25.488         23.5786 
       0.460267         25.0956         22.9401 
       0.466387         24.3573           22.34 
        0.47254         23.9007         21.7701 
       0.478662         23.2575         21.2309 
       0.484765         22.7531         20.7159 
       0.490885         22.1431         20.2167 
       0.497035         21.6348         19.7269 
       0.503198         21.2022         19.2461 
       0.509342         20.6466         18.7773 
       0.515458         20.3222         18.3226 
       0.521598         19.8677         17.8793 
       0.527764         19.5537         17.4497 
       0.533884         18.9806         17.0403 
           0.54         18.6371         16.6485 
       0.546137         18.1246         16.2711 
       0.552299         17.8087          15.906 
       0.558452         17.4533         15.5539 
       0.564573         17.1881         15.2142 
       0.570708         16.8133         14.8829 
       0.576825         16.5018         14.5605 
       0.582926         16.1647         14.2468 
       0.589034         15.8839          13.941 
       0.595184         15.6556         13.6421 
       0.601379         15.2549         13.3506 
       0.607522         14.9898         13.0708 
       0.613639         14.6579         12.8011 
       0.619772         14.4588         12.5392 
       0.625918         14.1671          12.285 
       0.632068         13.9853         12.0382 
       0.638161         13.7156         11.8005 
         0.6443         13.4637         11.5673 
       0.650464         13.1576         11.3389 
       0.656582         13.0533         11.1179 
       0.662703         12.8558         10.9024 
       0.668861         12.5204         10.6915 
       0.675024         12.3367         10.4862 
       0.681124         12.2916         10.2888 
       0.687237         12.0174         10.0965 
       0.693381          11.718         9.90837 
       0.699536         11.6522          9.7249 
       0.705665         11.4428         9.54694 
       0.711789           11.21         9.37362 
       0.717957         11.0026         9.20342 
        0.72409         10.8861         9.03842 
       0.730186         10.7877         8.87849 
       0.736317         10.5642         8.72159 
       0.742472         10.4328         8.56794 
       0.748622         10.2819         8.41817 
        0.75476         10.0398         8.27235 
       0.760888         9.96112         8.13026 
       0.767043         9.74041         7.99101 
       0.773185         9.63357         7.85539 
       0.779291         9.57852         7.72376 
       0.785407          9.3918         7.59503 
       0.791564         9.27864         7.46849 
       0.797719         9.11306         7.34495 
       0.803834         9.01608         7.22504 
       0.809972         8.86683         7.10742 
       0.816124         8.75929         6.99219 
       0.822261         8.64643         6.87986 
       0.828378         8.51368         6.77036 
       0.834502         8.41942         6.66318 
       0.840667         8.33488         6.55766 
       0.846816         8.18253         6.45475 
       0.852925         8.08302         6.35473 
       0.859047         7.98516         6.25665 
       0.865192         7.87954         6.16035 
       0.871341         7.76969         6.06604 
       0.877463         7.67253         5.97416 
       0.883569         7.58852         5.88444 
       0.889708         7.49269         5.79613 
       0.895864         7.39897         5.70944 
       0.902008         7.29122         5.62472 
       0.908149         7.20463          5.5418 
       0.914301         7.13999         5.46044 
       0.920448         7.04634         5.38081 
       0.926574         7.00406         5.30307 
       0.932687         6.88994         5.22705 
       0.938823         6.78432         5.15227 
       0.944975         6.72996         5.07881 
       0.951105         6.62029         5.00705 
       0.957225         6.57182         4.93683 
       0.963368         6.50977         4.86773 
       0.969511         6.43568         4.79997 
       0.975621         6.35158         4.73389 
       0.981748          6.2417         4.66889 
       0.987916         6.19201         4.60472 
        0.99406          6.1564         4.54202 
        1.00019         6.08428         4.48062 
        1.00632         6.02524         4.42044 
        1.01246         5.93992         4.36128 
        1.01859         5.87886         4.30331 
        1.02471         5.79124         4.24649 
        1.03085         5.75895         4.19051 
        1.03698         5.70018         4.13566 
        1.04314         5.64796         4.08158 
        1.04929         5.57425         4.02861 
        1.05541         5.51131          3.9768 
        1.06154         5.47054         3.92579 
        1.06769         5.43996         3.87561 
        1.07382         5.35129         3.82648 
        1.07993         5.28842         3.77832 
        1.08607         5.25741          3.7308 
        1.09222         5.18559         3.68407 
        1.09836         5.17358         3.63819 
        1.10449         5.06929         3.59316 
        1.11063         5.04141         3.54886 
        1.11677          5.0013         3.50532 
         1.1229         4.94032         3.46259 
        1.12903         4.91237         3.42055 
        1.13518         4.84137         3.37918 
        1.14131         4.80129         3.33853 
        1.14745         4.74793         3.29857 
        1.15359         4.71051         3.25927 
        1.15973         4.66342          3.2206 
        1.16584         4.62013         3.18274 
        1.17197         4.57315         3.14544 
        1.17811          4.5314         3.10863 
        1.18424         4.48902         3.07253 
        1.19038          4.4489          3.0369 
        1.19652         4.42107         3.00185 
        1.20267         4.38391         2.96736 
        1.20881         4.33744         2.93343 
        1.21495         4.30078         2.90009 
        1.22108         4.26784         2.86728 
         1.2272         4.21029         2.83506 
        1.23334         4.19975         2.80326 
        1.23949         4.15539         2.77189 
        1.24562         4.12071         2.74109 
        1.25174         4.08863          2.7108 
        1.25789         4.03898         2.68089 
        1.26402          4.0014         2.65149 
        1.27014         3.97116          2.6226 
        1.27628         3.93767         2.59407 
        1.28244         3.91382         2.56591 
        1.28858         3.87993          2.5382 
        1.29471         3.83306         2.51098 
        1.30084         3.80742         2.48418 
        1.30697         3.78459         2.45774 
        1.31312         3.75325         2.43165 
        1.31925         3.72207         2.40602 
        1.32537         3.69696         2.38079 
        1.33151         3.65859         2.35584 
        1.33765          3.6342         2.33126 
        1.34378         3.60601         2.30709 
        1.34992         3.58115         2.28325 
        1.35606         3.55029         2.25969 
         1.3622         3.52702         2.23651 
        1.36833          3.4897         2.21372 
        1.37445         3.46194         2.19125 
        1.38059          3.4386         2.16904 
        1.38675         3.41288         2.14708 
        1.39288          3.3928         2.12551 
        1.39901          3.3591         2.10426 
        1.40515         3.33419         2.08325 
         1.4113         3.31697         2.06253 
        1.41742         3.28195         2.04218 
        1.42355         3.25504         2.02207 
         1.4297         3.24284         2.00218 
        1.43585         3.21393         1.98256 
        1.44198         3.19143         1.96328 
        1.44809         3.17205          1.9443 
        1.45423         3.15072          1.9255 
        1.46036         3.12712         1.90698 
        1.46649         3.08912         1.88871 
        1.47263         3.08314         1.87066 
        1.47877         3.06554         1.85286 
        1.48491         3.03131         1.83526 
        1.49104         3.01543         1.81793 
        1.49718         2.99307         1.80082 
        1.50333         2.97203          1.7839 
        1.50947         2.95304         1.76724 
         1.5156         2.93239         1.75081 
        1.52172         2.91388          1.7346 
        1.52787         2.89272         1.71856 
          1.534         2.87696         1.70274 
        1.54013         2.85205         1.68714 
        1.54627         2.83353         1.67171 
        1.55241         2.80976         1.65648 
        1.55855         2.79657         1.64145 
        1.56467         2.77772         1.62666 
         1.5708          2.7591         1.61201 
        1.57695         2.73485         1.59751 
        1.58308         2.71453         1.58323 
        1.58922         2.71046         1.56912 
        1.59535         2.68152         1.55519 
         1.6015          2.6616          1.5414 
        1.60764            2.65         1.52779 
        1.61376          2.6289         1.51439 
        1.61989         2.61491         1.50114 
        1.62604         2.59256         1.48801 
        1.63218           2.587         1.47505 
        1.63831         2.56764         1.46228 
        1.64444         2.54893         1.44966 
        1.65059         2.53831         1.43716 
        1.65673         2.51528         1.42482 
        1.66285         2.50103         1.41266 
        1.66898         2.48953         1.40063 
        1.67512         2.46533         1.38873 
        1.68127         2.44968         1.37696 
         1.6874         2.44717         1.36535 
        1.69353         2.42105         1.35388 
        1.69967         2.40947         1.34251 
        1.70581         2.40118         1.33129 
        1.71193         2.37512         1.32023 
        1.71806         2.36349         1.30928 
        1.72421           2.354         1.29844 
        1.73035         2.33187         1.28772 
        1.73649         2.33108         1.27714 
        1.74262         2.31116         1.26668 
        1.74876         2.29504         1.25633 
        1.75489          2.2852         1.24612 
        1.76101         2.26612         1.23603 
        1.76715         2.25658         1.22604 
        1.77329         2.24299         1.21614 
        1.77943         2.23095         1.20635 
        1.78557           2.221         1.19669 
        1.79171         2.20894         1.18713 
        1.79785          2.1937         1.17767 
        1.80399          2.1806         1.16832 
        1.81012         2.16707         1.15909 
        1.81625          2.1517         1.14996 
        1.82239         2.14216         1.14091 
        1.82853         2.13084         1.13197 
        1.83466         2.11516         1.12313 
        1.84078         2.10381          1.1144 
        1.84692          2.0944         1.10574 
        1.85306         2.08724         1.09717 
         1.8592          2.0707          1.0887 
        1.86533          2.0609         1.08033 
        1.87147         2.04549         1.07204 
        1.87761         2.03868         1.06383 
        1.88375         2.02691         1.05571 
        1.88988         2.01516          1.0477 
        1.89601         2.00398         1.03976 
        1.90215         1.99332         1.03189 
        1.90829         1.98496         1.02412 
        1.91442         1.97194         1.01642 
        1.92056         1.96568         1.00881 
         1.9267         1.95479         1.00127 
        1.93284         1.94106        0.993806 
        1.93897         1.92922        0.986431 
        1.94509         1.92501        0.979147 
        1.95123         1.90915        0.971919 
        1.95737         1.90204        0.964759 
        1.96349         1.89201        0.957691 
        1.96964         1.88402        0.950673 
        1.97578          1.8693        0.943723 
        1.98192         1.86004        0.936857 
        1.98805         1.85326        0.930059 
        1.99419         1.84291        0.923329 
        2.00033         1.83413        0.916663 
        2.00647         1.82631        0.910065 
         2.0126         1.81929        0.903543 
        2.01874         1.80726        0.897076 
        2.02488          1.7956        0.890667 
        2.03101         1.78947        0.884333 
        2.03714         1.78195        0.878067 
        2.04328         1.76995        0.871855 
        2.04941         1.76066        0.865709 
        2.05554         1.75406        0.859627 
        2.06167         1.74513        0.853596 
        2.06781         1.73321        0.847622 
        2.07396         1.72874        0.841697 
        2.08009         1.71943         0.83584 
        2.08622         1.71117        0.830045 
        2.09237         1.70377        0.824294 
        2.09851         1.69275        0.818597 
        2.10464         1.69041        0.812964 
        2.11077         1.67801        0.807391 
        2.11691         1.66987        0.801858 
        2.12305         1.66449        0.796377 
        2.12918         1.65304        0.790961 
        2.13531         1.64582        0.785595 
        2.14145         1.63833        0.780267 
         2.1476          1.6324        0.774982 
        2.15372         1.62123        0.769773 
        2.15985         1.61527        0.764608 
        2.16599         1.61052        0.759475 
        2.17213         1.60164        0.754395 
        2.17827         1.59153        0.749363 
         2.1844         1.58673        0.744382 
        2.19054          1.5793        0.739445 
        2.19666         1.57274         0.73456 
         2.2028         1.56364        0.729715 
        2.20893          1.5563        0.724912 
        2.21508         1.55084        0.720147 
        2.22122         1.54685        0.715423 
        2.22736         1.53245        0.710753 
        2.23349         1.52903        0.706125 
        2.23962         1.52265        0.701536 
        2.24577         1.51525        0.696984 
         2.2519         1.50768        0.692479 
        2.25802         1.50507        0.688022 
        2.26417         1.49497        0.683592 
        2.27031          1.4892        0.679196 
        2.27644          1.4843        0.674853 
        2.28257          1.4736        0.670548 
        2.28872         1.47181        0.666273 
        2.29486         1.46301        0.662036 
        2.30099         1.45675        0.657845 
        2.30712         1.45229        0.653688 
        2.31326         1.44585        0.649561 
         2.3194         1.43961        0.645472 
        2.32553         1.43246        0.641425 
        2.33166         1.42825        0.637415 
         2.3378         1.42102        0.633434 
        2.34394         1.41452        0.629487 
        2.35007         1.40537        0.625578 
        2.35619          1.4014        0.621708 
        2.36233         1.39446        0.617861 
        2.36848          1.3918         0.61404 
        2.37462         1.38687        0.610259 
        2.38075         1.37756        0.606514 
        2.38689         1.37414        0.602797 
        2.39303         1.36827        0.599112 
        2.39916         1.36125        0.595462 
        2.40529          1.3593        0.591843 
        2.41143          1.3491        0.588252 
        2.41757         1.34658        0.584689 
         2.4237         1.34074        0.581162 
        2.42983         1.33327        0.577665 
        2.43598         1.33046        0.574188 
        2.44211           1.323        0.570745 
        2.44823         1.31924        0.567338 
        2.45437         1.31411         0.56395 
        2.46052         1.30939        0.560587 
        2.46665         1.30412        0.557258 
        2.47279         1.29756        0.553956 
        2.47892         1.29261         0.55068 
        2.48507         1.28896        0.547427 
         2.4912         1.28225        0.544207 
