# k  (h/Mpc)    Pcb(k)  (Mpc/h)^3    Pcb_linear(k)  (Mpc/h)^3
     0.00783031         721.661         728.451 
       0.013688         893.077         894.774 
       0.019231         908.629         908.761 
      0.0249154         843.863         847.827 
      0.0312784         743.674         744.219 
      0.0375637         643.141          641.77 
      0.0433917         562.225         562.779 
      0.0492413         503.291         502.637 
      0.0555754         454.176         455.646 
      0.0619321         421.956         420.234 
       0.067871         390.202         391.181 
      0.0738098         360.597         361.693 
      0.0800417         326.927         328.651 
      0.0862327         294.233         294.771 
      0.0921407         263.897         263.848 
      0.0982031         235.545         235.943 
       0.104506         213.722         212.563 
       0.110769         196.081         195.133 
       0.116806         182.757         182.781 
       0.122832         173.795         173.193 
       0.129052         164.167          164.41 
       0.135211         155.161         155.461 
       0.141259         146.134         145.815 
       0.147318          136.25         135.422 
       0.153489         125.208         124.727 
       0.159709         115.336         114.661 
       0.165845         107.543         106.068 
       0.171974         99.8283         99.0892 
       0.178125         94.5242         93.5956 
       0.184229         90.3734         89.2679 
        0.19034         85.9084         85.5624 
       0.196428         82.8692         82.0326 
       0.202534         79.6965         78.3417 
       0.208729         75.3472         74.3348 
       0.214876         70.9095         70.1859 
       0.220989         67.4313         66.0943 
       0.227147          63.057         62.2368 
        0.23329         59.7096         58.8205 
       0.239377          57.016         55.9248 
       0.245482         54.2088         53.4714 
       0.251667         52.5315         51.3349 
       0.257832         50.5001         49.4091 
       0.263955         48.6821         47.5673 
       0.270079         46.8324         45.7121 
        0.27624         45.2383          43.805 
       0.282372          43.314          41.892 
        0.28843         41.2824         40.0418 
       0.294538         39.5276         38.2754 
       0.300721         38.1584         36.6355 
        0.30691          36.425         35.1592 
       0.313033         35.1629         33.8526 
       0.319153         33.6198         32.6669 
       0.325316          32.967         31.5555 
        0.33145         31.7967         30.4938 
       0.337538          30.794         29.4605 
       0.343633         29.6683          28.436 
       0.349808         28.7467         27.4144 
       0.355968         27.7709         26.4239 
       0.362074         26.7926         25.4859 
       0.368217         25.9376         24.5987 
       0.374374         25.0113         23.7698 
       0.380519          24.338         23.0013 
       0.386598         23.6616         22.2897 
       0.392688         23.0623         21.6149 
        0.39888         22.3459         20.9572 
       0.405048         21.7528         20.3221 
       0.411186         21.1658         19.7068 
       0.417313         20.4545          19.109 
       0.423458         19.9126          18.528 
       0.429607         19.3034         17.9694 
       0.435692         18.7387         17.4416 
       0.441815         18.2828         16.9362 
       0.447964         17.9103         16.4545 
       0.454126          17.285         15.9952 
       0.460267         16.8925         15.5574 
       0.466387         16.3796         15.1378 
        0.47254         16.0582         14.7305 
       0.478662         15.7123         14.3378 
       0.484765         15.2475         13.9581 
       0.490885         14.8714         13.5897 
       0.497035         14.6456         13.2323 
       0.503198         14.2364         12.8875 
       0.509342         13.8898          12.557 
       0.515458         13.5472         12.2411 
       0.521598         13.2672         11.9363 
       0.527764         12.9332         11.6414 
       0.533884         12.7035         11.3588 
           0.54         12.4063         11.0858 
       0.546137         12.1595         10.8204 
       0.552299          11.915         10.5622 
       0.558452         11.5631         10.3124 
       0.564573         11.3855         10.0716 
       0.570708         11.1491          9.8381 
       0.576825          10.862         9.61303 
       0.582926         10.6724           9.396 
       0.589034         10.3717         9.18573 
       0.595184          10.203         8.98076 
       0.601379         9.98017         8.78083 
       0.607522          9.8296         8.58867 
       0.613639         9.68697         8.40305 
       0.619772         9.42244         8.22239 
       0.625918         9.31196         8.04658 
       0.632068         9.15775         7.87574 
       0.638161         8.93565         7.71138 
         0.6443         8.75168         7.55061 
       0.650464          8.5678         7.39397 
       0.656582         8.47748         7.24302 
       0.662703         8.31711         7.09634 
       0.668861         8.17308         6.95294 
       0.675024          8.0006         6.81343 
       0.681124         7.85232         6.67915 
       0.687237         7.73664         6.54823 
       0.693381         7.61568         6.42022 
       0.699536         7.41028         6.29543 
       0.705665           7.316         6.17451 
       0.711789         7.19714         6.05692 
       0.717957         7.06796         5.94161 
        0.72409          6.9474         5.82998 
       0.730186         6.84154         5.72192 
       0.736317         6.76993         5.61603 
       0.742472         6.65688         5.51246 
       0.748622          6.5338         5.41162 
        0.75476         6.39835         5.31355 
       0.760888         6.31354         5.21807 
       0.767043         6.23786         5.12458 
       0.773185         6.10722          5.0336 
       0.779291         6.04463         4.94537 
       0.785407         5.94286         4.85914 
       0.791564         5.85304         4.77444 
       0.797719         5.76095         4.69182 
       0.803834         5.70001          4.6117 
       0.809972         5.62535         4.53318 
       0.816124         5.51315         4.45633 
       0.822261         5.41982         4.38148 
       0.828378         5.35416         4.30859 
       0.834502         5.30346         4.23731 
       0.840667         5.19371         4.16719 
       0.846816         5.11268         4.09886 
       0.852925         5.06774         4.03251 
       0.859047         4.99599          3.9675 
       0.865192          4.9373         3.90372 
       0.871341         4.87665          3.8413 
       0.877463         4.80732         3.78054 
       0.883569         4.72229         3.72126 
       0.889708         4.64955         3.66295 
       0.895864          4.6004         3.60575 
       0.902008         4.53405          3.5499 
       0.908149         4.48492         3.49527 
       0.914301         4.40494         3.44171 
       0.920448         4.34991         3.38932 
       0.926574         4.28937         3.33822 
       0.932687         4.24528         3.28828 
       0.938823         4.19571         3.23919 
       0.944975         4.13829         3.19099 
       0.951105         4.09352         3.14396 
       0.957225         4.06701         3.09795 
       0.963368         4.00574         3.05272 
       0.969511         3.94946          3.0084 
       0.975621         3.89173         2.96519 
       0.981748         3.85551         2.92273 
       0.987916         3.80827         2.88085 
        0.99406         3.74531         2.83994 
        1.00019          3.7061         2.79991 
        1.00632         3.66973          2.7607 
        1.01246         3.62778         2.72219 
        1.01859         3.58412         2.68447 
        1.02471         3.53958         2.64753 
        1.03085         3.50138         2.61115 
        1.03698         3.45424         2.57554 
        1.04314         3.42383         2.54045 
        1.04929         3.37855         2.50609 
        1.05541         3.34135         2.47252 
        1.06154         3.30694         2.43948 
        1.06769         3.27944           2.407 
        1.07382         3.23175         2.37521 
        1.07993          3.1884         2.34408 
        1.08607         3.17204         2.31338 
        1.09222         3.13057          2.2832 
        1.09836         3.10576          2.2536 
        1.10449         3.06935         2.22456 
        1.11063         3.03092           2.196 
        1.11677         3.00123         2.16796 
         1.1229          2.9694         2.14045 
        1.12903         2.93375          2.1134 
        1.13518         2.90999         2.08679 
        1.14131         2.86874         2.06066 
        1.14745           2.827         2.03499 
        1.15359         2.81378         2.00976 
        1.15973         2.77388         1.98495 
        1.16584         2.75896         1.96066 
        1.17197         2.72803         1.93675 
        1.17811         2.70337         1.91317 
        1.18424         2.68244         1.89005 
        1.19038         2.65222         1.86725 
        1.19652         2.62469         1.84483 
        1.20267         2.60224         1.82278 
        1.20881         2.57088          1.8011 
        1.21495         2.55134          1.7798 
        1.22108         2.52653         1.75886 
         1.2272         2.51031          1.7383 
        1.23334         2.47679         1.71803 
        1.23949          2.4504         1.69803 
        1.24562         2.43616         1.67841 
        1.25174         2.40624         1.65913 
        1.25789         2.38748         1.64009 
        1.26402         2.35856         1.62139 
        1.27014         2.33697         1.60302 
        1.27628         2.32683         1.58489 
        1.28244         2.29434         1.56701 
        1.28858         2.27895         1.54942 
        1.29471         2.25507         1.53215 
        1.30084         2.23246         1.51515 
        1.30697         2.22127         1.49839 
        1.31312         2.18535         1.48186 
        1.31925         2.17645         1.46563 
        1.32537         2.15665         1.44966 
        1.33151         2.14082         1.43388 
        1.33765         2.11464         1.41833 
        1.34378          2.0956         1.40306 
        1.34992         2.08796         1.38799 
        1.35606         2.05796         1.37312 
         1.3622         2.04835         1.35849 
        1.36833         2.02895          1.3441 
        1.37445         2.00846         1.32994 
        1.38059         1.99516         1.31593 
        1.38675         1.98672          1.3021 
        1.39288         1.96078         1.28852 
        1.39901         1.94293         1.27513 
        1.40515          1.9288         1.26191 
         1.4113         1.91344         1.24888 
        1.41742         1.89822         1.23609 
        1.42355         1.88962         1.22345 
         1.4297         1.86482         1.21095 
        1.43585         1.85481         1.19863 
        1.44198         1.84412         1.18653 
        1.44809            1.82         1.17462 
        1.45423         1.80711         1.16282 
        1.46036         1.79291         1.15122 
        1.46649         1.77812         1.13976 
        1.47263         1.76313         1.12846 
        1.47877         1.74634         1.11731 
        1.48491         1.73379          1.1063 
        1.49104         1.72308         1.09546 
        1.49718          1.7122         1.08475 
        1.50333         1.69562         1.07417 
        1.50947         1.68599         1.06376 
         1.5156         1.67105          1.0535 
        1.52172         1.65799         1.04338 
        1.52787         1.64404         1.03336 
          1.534         1.63481          1.0235 
        1.54013         1.61889         1.01377 
        1.54627          1.6048         1.00415 
        1.55241         1.59267        0.994653 
        1.55855         1.58365        0.985294 
        1.56467         1.57329        0.976082 
         1.5708         1.55574        0.966962 
        1.57695         1.54949        0.957944 
        1.58308          1.5379        0.949063 
        1.58922         1.52679        0.940288 
        1.59535         1.51566        0.931628 
         1.6015         1.50475        0.923065 
        1.60764         1.49586        0.914613 
        1.61376         1.48384        0.906291 
        1.61989         1.47273        0.898066 
        1.62604         1.46054        0.889924 
        1.63218         1.45589        0.881888 
        1.63831         1.43954        0.873971 
        1.64444         1.42955        0.866147 
        1.65059         1.42308        0.858401 
        1.65673         1.41085        0.850758 
        1.66285         1.40029         0.84323 
        1.66898         1.39418         0.83579 
        1.67512         1.38006        0.828426 
        1.68127         1.37132        0.821145 
         1.6874         1.36569        0.813967 
        1.69353         1.35089        0.806879 
        1.69967         1.34214        0.799859 
        1.70581         1.33833        0.792926 
        1.71193         1.32595        0.786101 
        1.71806         1.32026        0.779342 
        1.72421         1.30955        0.772649 
        1.73035         1.29952        0.766043 
        1.73649         1.29263        0.759515 
        1.74262         1.28401        0.753069 
        1.74876         1.27568        0.746694 
        1.75489         1.26382        0.740405 
        1.76101         1.25688        0.734191 
        1.76715         1.24963         0.72804 
        1.77329         1.24227        0.721952 
        1.77943         1.23183        0.715931 
        1.78557         1.22375        0.709987 
        1.79171         1.21974         0.70411 
        1.79785         1.20945        0.698299 
        1.80399          1.2025        0.692555 
        1.81012         1.19675        0.686883 
        1.81625         1.18645        0.681277 
        1.82239         1.17968        0.675725 
        1.82853         1.16772        0.670238 
        1.83466         1.16412        0.664817 
        1.84078         1.15558        0.659462 
        1.84692         1.15122        0.654158 
        1.85306         1.14237        0.648905 
         1.8592         1.13681        0.643718 
        1.86533          1.1282        0.638591 
        1.87147         1.12254        0.633514 
        1.87761          1.1153        0.628489 
        1.88375         1.10532        0.623525 
        1.88988         1.10252         0.61862 
        1.89601         1.09385        0.613766 
        1.90215         1.08689        0.608959 
        1.90829         1.07945        0.604207 
        1.91442         1.07352        0.599504 
        1.92056          1.0683        0.594856 
         1.9267         1.06132        0.590253 
        1.93284          1.0575        0.585695 
        1.93897          1.0498        0.581195 
        1.94509         1.04286        0.576751 
        1.95123         1.03556        0.572343 
        1.95737         1.03055        0.567978 
        1.96349         1.02329        0.563669 
        1.96964         1.01875        0.559393 
        1.97578         1.01241        0.555159 
        1.98192         1.00848        0.550978 
        1.98805        0.999626        0.546839 
        1.99419        0.996401        0.542743 
        2.00033        0.992787        0.538686 
        2.00647        0.983327        0.534672 
         2.0126        0.979597        0.530706 
        2.01874        0.973366        0.526774 
        2.02488        0.968904        0.522879 
        2.03101        0.960668         0.51903 
        2.03714        0.954206        0.515223 
        2.04328        0.952717        0.511451 
        2.04941        0.945576        0.507719 
        2.05554        0.940585        0.504027 
        2.06167         0.93454        0.500367 
        2.06781        0.929762        0.496743 
        2.07396        0.923375         0.49315 
        2.08009        0.919607        0.489598 
        2.08622        0.913242        0.486086 
        2.09237        0.911745        0.482601 
        2.09851        0.906193         0.47915 
        2.10464        0.901806        0.475738 
        2.11077        0.895376        0.472363 
        2.11691        0.889627        0.469014 
        2.12305         0.88608        0.465697 
        2.12918        0.880776         0.46242 
        2.13531        0.876565        0.459174 
        2.14145         0.87119        0.455952 
         2.1476        0.865936        0.452758 
        2.15372        0.862851        0.449609 
        2.15985        0.856721        0.446488 
        2.16599        0.852072        0.443387 
        2.17213        0.848035        0.440319 
        2.17827        0.845467        0.437281 
         2.1844        0.840882        0.434274 
        2.19054        0.837544        0.431295 
        2.19666        0.831564        0.428347 
         2.2028        0.827172        0.425425 
        2.20893        0.822549        0.422528 
        2.21508        0.820215        0.419655 
        2.22122        0.812581        0.416808 
        2.22736        0.808998        0.413994 
        2.23349        0.808756        0.411205 
        2.23962        0.802094        0.408442 
        2.24577        0.797235        0.405701 
         2.2519        0.793248        0.402989 
        2.25802        0.790447        0.400306 
        2.26417        0.784416         0.39764 
        2.27031        0.781787        0.394996 
        2.27644        0.777973        0.392384 
        2.28257        0.774764        0.389796 
        2.28872        0.770039        0.387226 
        2.29486        0.766792        0.384679 
        2.30099        0.761997        0.382161 
        2.30712        0.758967        0.379664 
        2.31326        0.755886        0.377186 
         2.3194        0.753126        0.374731 
        2.32553        0.749249        0.372301 
        2.33166        0.744735        0.369895 
         2.3378          0.7406        0.367506 
        2.34394        0.735881        0.365138 
        2.35007         0.73304        0.362794 
        2.35619        0.730826        0.360473 
        2.36233        0.725258        0.358168 
        2.36848        0.723104        0.355877 
        2.37462        0.718796        0.353612 
        2.38075        0.717269        0.351368 
        2.38689        0.712851        0.349142 
        2.39303        0.710447        0.346936 
        2.39916        0.704858        0.344751 
        2.40529        0.703792        0.342585 
        2.41143        0.700028        0.340436 
        2.41757        0.696562        0.338305 
         2.4237        0.693844        0.336195 
        2.42983        0.690521        0.334104 
        2.43598        0.687254        0.332025 
        2.44211        0.684525        0.329968 
        2.44823        0.681059        0.327932 
        2.45437        0.677968        0.325908 
        2.46052        0.676378        0.323899 
        2.46665        0.672206        0.321911 
        2.47279        0.668841         0.31994 
        2.47892        0.664902        0.317985 
        2.48507        0.662608        0.316043 
         2.4912         0.65951        0.314122 
