# k  (h/Mpc)    Pcb(k)  (Mpc/h)^3    Pcb_linear(k)  (Mpc/h)^3
     0.00783031         65.8318         66.4076 
       0.013688         81.2773         81.6268 
       0.019231         82.8292         82.9223 
      0.0249154         77.1701         77.3714 
      0.0312784         67.9136         67.9212 
      0.0375637         58.6575         58.5737 
      0.0433917         51.4075         51.3655 
      0.0492413         45.9371          45.877 
      0.0555754         41.5929         41.5885 
      0.0619321         38.4158         38.3566 
       0.067871         35.6847          35.705 
      0.0738098         32.9796         33.0136 
      0.0800417         29.9511         29.9978 
      0.0862327         26.8919         26.9057 
      0.0921407         24.0894         24.0832 
      0.0982031         21.5334         21.5362 
       0.104506         19.4379         19.4022 
       0.110769         17.8366         17.8112 
       0.116806          16.676         16.6837 
       0.122832         15.8159         15.8086 
       0.129052         14.9903         15.0069 
       0.135211         14.1657         14.1901 
       0.141259         13.3014         13.3097 
       0.147318         12.3692          12.361 
       0.153489         11.3858         11.3848 
       0.159709         10.4689          10.466 
       0.165845           9.707         9.68169 
       0.171974         9.04559         9.04468 
       0.178125         8.54744         8.54323 
       0.184229         8.15772          8.1482 
        0.19034         7.79944         7.80996 
       0.196428         7.48598         7.48776 
       0.202534         7.16573         7.15087 
       0.208729         6.78827         6.78513 
       0.214876         6.39987         6.40643 
       0.220989          6.0472         6.03297 
       0.227147         5.67746         5.68087 
        0.23329         5.36691         5.36903 
       0.239377         5.10419         5.10472 
       0.245482         4.87702         4.88077 
       0.251667         4.69123         4.68576 
       0.257832         4.50946         4.50998 
       0.263955         4.34404         4.34186 
       0.270079         4.17583         4.17252 
        0.27624         4.00886         3.99845 
       0.282372         3.83376         3.82383 
        0.28843         3.65805         3.65494 
       0.294538         3.49799         3.49371 
       0.300721         3.35429         3.34403 
        0.30691         3.21383         3.20927 
       0.313033         3.09471         3.09001 
       0.319153         2.97608         2.98178 
       0.325316         2.88983         2.88033 
        0.33145          2.7905         2.78342 
       0.337538         2.69519          2.6891 
       0.343633         2.59892          2.5956 
       0.349808         2.50814         2.50234 
       0.355968         2.41963         2.41193 
       0.362074         2.33188         2.32632 
       0.368217         2.25127         2.24533 
       0.374374         2.17073         2.16967 
       0.380519         2.10534         2.09952 
       0.386598         2.04174         2.03457 
       0.392688          1.9825         1.97297 
        0.39888          1.9199         1.91294 
       0.405048         1.86249         1.85497 
       0.411186         1.80713         1.79881 
       0.417313         1.75013         1.74424 
       0.423458         1.69995         1.69121 
       0.429607         1.64609         1.64022 
       0.435692         1.59781         1.59205 
       0.441815         1.55195         1.54591 
       0.447964         1.51159         1.50194 
       0.454126         1.46597         1.46002 
       0.460267         1.42512         1.42005 
       0.466387         1.38616         1.38176 
        0.47254         1.34973         1.34458 
       0.478662         1.31515         1.30873 
       0.484765          1.2789         1.27408 
       0.490885         1.24627         1.24045 
       0.497035         1.21681         1.20783 
       0.503198         1.18311         1.17635 
       0.509342         1.15486         1.14618 
       0.515458         1.12369         1.11735 
       0.521598         1.09629         1.08952 
       0.527764         1.06748         1.06261 
       0.533884         1.04487         1.03682 
           0.54         1.01922         1.01189 
       0.546137        0.995835        0.987671 
       0.552299        0.971457        0.964104 
       0.558452        0.947124        0.941298 
       0.564573        0.926312        0.919321 
       0.570708        0.905107        0.898007 
       0.576825        0.883927        0.877463 
       0.582926        0.865621        0.857653 
       0.589034        0.843106         0.83846 
       0.595184        0.825032        0.819751 
       0.601379        0.807362        0.801501 
       0.607522        0.791058        0.783961 
       0.613639        0.775258        0.767018 
       0.619772        0.756493        0.750528 
       0.625918        0.740979         0.73448 
       0.632068         0.72637        0.718886 
       0.638161        0.710528        0.703883 
         0.6443        0.695843        0.689209 
       0.650464        0.680337        0.674911 
       0.656582        0.667447        0.661132 
       0.662703        0.654385        0.647743 
       0.668861        0.642399        0.634654 
       0.675024        0.628656        0.621919 
       0.681124        0.615024        0.609663 
       0.687237        0.604466        0.597713 
       0.693381         0.59311        0.586028 
       0.699536        0.579736        0.574637 
       0.705665        0.568964        0.563601 
       0.711789        0.559501        0.552867 
       0.717957        0.547892        0.542342 
        0.72409         0.53838        0.532152 
       0.730186        0.527821        0.522288 
       0.736317        0.519505        0.512623 
       0.742472        0.509637        0.503169 
       0.748622        0.500159        0.493965 
        0.75476        0.490277        0.485013 
       0.760888        0.481484        0.476298 
       0.767043        0.475023        0.467765 
       0.773185        0.465422         0.45946 
       0.779291        0.457198        0.451406 
       0.785407        0.449656        0.443535 
       0.791564        0.441971        0.435804 
       0.797719          0.4347        0.428263 
       0.803834        0.427523         0.42095 
       0.809972        0.419937        0.413782 
       0.816124        0.412746        0.406767 
       0.822261         0.40545        0.399935 
       0.828378        0.399381        0.393282 
       0.834502        0.393152        0.386775 
       0.840667        0.385941        0.380375 
       0.846816        0.379891        0.374138 
       0.852925         0.37468        0.368082 
       0.859047         0.36868        0.362148 
       0.865192         0.36211        0.356326 
       0.871341        0.356229        0.350629 
       0.877463        0.351683        0.345083 
       0.883569        0.345647        0.339671 
       0.889708        0.340407        0.334349 
       0.895864        0.334959        0.329128 
       0.902008        0.329835         0.32403 
       0.908149        0.324658        0.319043 
       0.914301        0.318994        0.314154 
       0.920448        0.314711        0.309373 
       0.926574        0.309825        0.304708 
       0.932687        0.305039        0.300149 
       0.938823        0.301521        0.295669 
       0.944975        0.296886        0.291269 
       0.951105        0.292634        0.286976 
       0.957225        0.288938        0.282777 
       0.963368         0.28439        0.278648 
       0.969511        0.279871        0.274602 
       0.975621        0.275905        0.270659 
       0.981748        0.272812        0.266783 
       0.987916        0.268707        0.262959 
        0.99406        0.264712        0.259226 
        1.00019        0.261423        0.255572 
        1.00632        0.257205        0.251993 
        1.01246        0.253487        0.248477 
        1.01859          0.2505        0.245035 
        1.02471        0.247087        0.241662 
        1.03085        0.244275        0.238342 
        1.03698        0.240488        0.235092 
        1.04314        0.237346        0.231889 
        1.04929        0.233997        0.228753 
        1.05541        0.231349        0.225688 
        1.06154        0.227931        0.222672 
        1.06769        0.224731        0.219707 
        1.07382        0.222027        0.216806 
        1.07993        0.218919        0.213964 
        1.08607        0.216791        0.211162 
        1.09222        0.213555        0.208407 
        1.09836        0.211331        0.205705 
        1.10449        0.208602        0.203055 
        1.11063        0.205475        0.200448 
        1.11677        0.202817        0.197888 
         1.1229        0.200551        0.195377 
        1.12903        0.197919        0.192908 
        1.13518        0.195713         0.19048 
        1.14131         0.19311        0.188094 
        1.14745        0.190236        0.185751 
        1.15359        0.188306        0.183448 
        1.15973        0.185683        0.181183 
        1.16584        0.183937        0.178967 
        1.17197        0.181663        0.176784 
        1.17811        0.179715        0.174631 
        1.18424        0.177838        0.172521 
        1.19038         0.17539         0.17044 
        1.19652        0.172908        0.168393 
        1.20267        0.171431        0.166381 
        1.20881        0.169402        0.164402 
        1.21495        0.167617        0.162458 
        1.22108        0.165381        0.160546 
         1.2272        0.163745         0.15867 
        1.23334        0.161705        0.156819 
        1.23949        0.159897        0.154994 
        1.24562         0.15811        0.153203 
        1.25174        0.156411        0.151443 
        1.25789        0.154929        0.149705 
        1.26402        0.152683        0.147998 
        1.27014        0.151232        0.146322 
        1.27628        0.149635        0.144667 
        1.28244         0.14766        0.143034 
        1.28858        0.146229        0.141429 
        1.29471         0.14497        0.139852 
        1.30084        0.143042        0.138301 
        1.30697        0.141551        0.136771 
        1.31312        0.139697        0.135262 
        1.31925        0.138353        0.133781 
        1.32537        0.137035        0.132323 
        1.33151        0.135646        0.130882 
        1.33765         0.13425        0.129464 
        1.34378        0.132697        0.128069 
        1.34992        0.131272        0.126694 
        1.35606        0.129941        0.125336 
         1.3622        0.128648        0.124001 
        1.36833         0.12727        0.122688 
        1.37445        0.125677        0.121395 
        1.38059        0.124553        0.120117 
        1.38675        0.123659        0.118854 
        1.39288        0.122259        0.117614 
        1.39901        0.120953        0.116392 
        1.40515        0.119953        0.115186 
         1.4113        0.118409        0.113996 
        1.41742        0.117286        0.112828 
        1.42355        0.116307        0.111675 
         1.4297        0.115016        0.110534 
        1.43585        0.113928        0.109409 
        1.44198         0.11291        0.108305 
        1.44809        0.111682        0.107217 
        1.45423        0.110678        0.106141 
        1.46036        0.109593        0.105081 
        1.46649        0.108751        0.104036 
        1.47263        0.107551        0.103004 
        1.47877        0.106285        0.101987 
        1.48491        0.105455        0.100981 
        1.49104        0.104279       0.0999917 
        1.49718        0.103232       0.0990147 
        1.50333        0.102552       0.0980492 
        1.50947        0.101392       0.0970986 
         1.5156        0.100473        0.096162 
        1.52172       0.0995507       0.0952378 
        1.52787       0.0986241        0.094324 
          1.534       0.0975873       0.0934233 
        1.54013       0.0967392       0.0925353 
        1.54627       0.0960614       0.0916573 
        1.55241       0.0949736       0.0907906 
        1.55855        0.094029       0.0899363 
        1.56467       0.0934963       0.0890954 
         1.5708       0.0925407       0.0882629 
        1.57695       0.0916318       0.0874399 
        1.58308       0.0907732       0.0866292 
        1.58922       0.0900438       0.0858282 
        1.59535       0.0892204       0.0850377 
         1.6015         0.08834       0.0842561 
        1.60764       0.0876656       0.0834846 
        1.61376       0.0867925        0.082725 
        1.61989       0.0861175       0.0819742 
        1.62604       0.0854318        0.081231 
        1.63218       0.0846517       0.0804976 
        1.63831       0.0838883       0.0797748 
        1.64444        0.083202       0.0790607 
        1.65059       0.0825042       0.0783537 
        1.65673       0.0818099       0.0776561 
        1.66285       0.0812242       0.0769689 
        1.66898       0.0804634       0.0762898 
        1.67512       0.0796684       0.0756176 
        1.68127        0.078956        0.074953 
         1.6874       0.0784082       0.0742978 
        1.69353       0.0775774       0.0736508 
        1.69967       0.0772193         0.07301 
        1.70581       0.0762747       0.0723772 
        1.71193       0.0757334       0.0717542 
        1.71806       0.0750369       0.0711373 
        1.72421       0.0746603       0.0705264 
        1.73035       0.0738659       0.0699234 
        1.73649       0.0734005       0.0693275 
        1.74262       0.0727338       0.0687391 
        1.74876       0.0721114       0.0681572 
        1.75489       0.0716536       0.0675832 
        1.76101       0.0709474        0.067016 
        1.76715       0.0703554       0.0664545 
        1.77329       0.0697269       0.0658988 
        1.77943        0.069269       0.0653492 
        1.78557        0.068765       0.0648067 
        1.79171       0.0682148       0.0642703 
        1.79785       0.0676737       0.0637398 
        1.80399       0.0671077       0.0632155 
        1.81012       0.0666192       0.0626977 
        1.81625       0.0660574        0.062186 
        1.82239       0.0655129       0.0616793 
        1.82853       0.0650185       0.0611784 
        1.83466       0.0645313       0.0606836 
        1.84078       0.0640364       0.0601948 
        1.84692       0.0634735       0.0597106 
        1.85306       0.0630834       0.0592312 
         1.8592       0.0624931       0.0587577 
        1.86533       0.0621203       0.0582897 
        1.87147       0.0615921       0.0578263 
        1.87761       0.0612582       0.0573677 
        1.88375       0.0607677       0.0569146 
        1.88988       0.0602169       0.0564669 
        1.89601       0.0597937       0.0560237 
        1.90215       0.0593275        0.055585 
        1.90829       0.0588378       0.0551512 
        1.91442       0.0585527       0.0547219 
        1.92056        0.058013       0.0542977 
         1.9267        0.057555       0.0538775 
        1.93284       0.0571593       0.0534615 
        1.93897       0.0567424       0.0530507 
        1.94509       0.0563931       0.0526451 
        1.95123       0.0559171       0.0522427 
        1.95737       0.0555435       0.0518442 
        1.96349       0.0550995        0.051451 
        1.96964       0.0547225       0.0510606 
        1.97578       0.0543129       0.0506742 
        1.98192        0.053986       0.0502925 
        1.98805       0.0535657       0.0499147 
        1.99419       0.0531256       0.0495408 
        2.00033       0.0527588       0.0491706 
        2.00647        0.052526       0.0488042 
         2.0126        0.052012       0.0484422 
        2.01874       0.0517663       0.0480833 
        2.02488       0.0513783       0.0477277 
        2.03101       0.0510232       0.0473764 
        2.03714       0.0505509       0.0470289 
        2.04328       0.0503636       0.0466846 
        2.04941       0.0498644       0.0463439 
        2.05554       0.0496463        0.046007 
        2.06167       0.0493233       0.0456729 
        2.06781        0.048905       0.0453421 
        2.07396       0.0486055       0.0450141 
        2.08009       0.0482656       0.0446899 
        2.08622       0.0479659       0.0443693 
        2.09237       0.0476271       0.0440512 
        2.09851       0.0472918       0.0437361 
        2.10464       0.0470439       0.0434247 
        2.11077       0.0466591       0.0431167 
        2.11691       0.0463266        0.042811 
        2.12305        0.046042       0.0425082 
        2.12918       0.0457876       0.0422091 
        2.13531       0.0454049       0.0419128 
        2.14145       0.0450866       0.0416187 
         2.1476       0.0448129       0.0413271 
        2.15372       0.0445982       0.0410398 
        2.15985       0.0442229       0.0407548 
        2.16599       0.0439312       0.0404718 
        2.17213       0.0436694       0.0401918 
        2.17827       0.0433644       0.0399144 
         2.1844       0.0431584         0.03964 
        2.19054       0.0428498        0.039368 
        2.19666       0.0425401        0.039099 
         2.2028       0.0422441       0.0388322 
        2.20893       0.0420511       0.0385678 
        2.21508       0.0417715       0.0383056 
        2.22122       0.0414568       0.0380457 
        2.22736       0.0412397       0.0377888 
        2.23349       0.0409671       0.0375343 
        2.23962       0.0407842        0.037282 
        2.24577       0.0404673       0.0370318 
         2.2519       0.0402234       0.0367843 
        2.25802       0.0399659       0.0365394 
        2.26417       0.0397168       0.0362961 
        2.27031       0.0394259       0.0360547 
        2.27644         0.03918       0.0358163 
        2.28257       0.0390003         0.03558 
        2.28872       0.0387631       0.0353455 
        2.29486       0.0385573        0.035113 
        2.30099       0.0382897       0.0348832 
        2.30712        0.037962       0.0346553 
        2.31326        0.037778        0.034429 
         2.3194       0.0376213       0.0342049 
        2.32553       0.0373538       0.0339832 
        2.33166        0.037192       0.0337635 
         2.3378       0.0369497       0.0335455 
        2.34394       0.0366859       0.0333293 
        2.35007       0.0364411       0.0331154 
        2.35619       0.0361722       0.0329035 
        2.36233       0.0360572       0.0326931 
        2.36848       0.0358956        0.032484 
        2.37462       0.0356136       0.0322772 
        2.38075       0.0354057       0.0320724 
        2.38689       0.0352062       0.0318692 
        2.39303       0.0350282       0.0316679 
        2.39916       0.0347985       0.0314684 
        2.40529       0.0346273       0.0312707 
        2.41143       0.0343781       0.0310746 
        2.41757       0.0341845         0.03088 
         2.4237       0.0340491       0.0306875 
        2.42983       0.0338657       0.0304966 
        2.43598       0.0336896       0.0303069 
        2.44211       0.0334276        0.030119 
        2.44823       0.0332592       0.0299332 
        2.45437       0.0330593       0.0297485 
        2.46052       0.0328844       0.0295651 
        2.46665       0.0326535       0.0293836 
        2.47279        0.032474       0.0292037 
        2.47892       0.0322703       0.0290252 
        2.48507       0.0320937        0.028848 
         2.4912       0.0319486       0.0286727 
