# k  (h/Mpc)    Pcb(k)  (Mpc/h)^3    Pcb_linear(k)  (Mpc/h)^3
     0.00783031          8847.5         8960.41 
       0.013688         11065.6         10997.4 
       0.019231         11183.3         11165.7 
      0.0249154         10253.5         10415.1 
      0.0312784         9072.03         9141.25 
      0.0375637         7885.09         7882.29 
      0.0433917         6821.99         6911.79 
      0.0492413         6142.97         6172.96 
      0.0555754         5470.61         5595.71 
      0.0619321         5177.78         5160.71 
       0.067871         4710.44         4803.86 
      0.0738098         4353.53         4441.69 
      0.0800417         3921.07         4035.88 
      0.0862327         3556.02         3619.81 
      0.0921407         3225.61         3240.05 
      0.0982031         2872.12         2897.37 
       0.104506         2658.33         2610.25 
       0.110769         2440.36          2396.2 
       0.116806         2273.76         2244.51 
       0.122832         2165.25         2126.77 
       0.129052         2019.08         2018.91 
       0.135211         1915.77         1909.02 
       0.141259         1825.37         1790.56 
       0.147318         1713.65         1662.94 
       0.153489         1570.31          1531.6 
       0.159709         1472.51         1407.99 
       0.165845         1397.87         1302.47 
       0.171974         1306.83         1216.77 
       0.178125         1240.71         1149.31 
       0.184229         1188.88         1096.17 
        0.19034         1114.97         1050.67 
       0.196428         1094.23         1007.32 
       0.202534         1057.61         961.999 
       0.208729         1004.43         912.795 
       0.214876         951.689         861.848 
       0.220989         918.378         811.606 
       0.227147         868.847         764.237 
        0.23329         831.264         722.286 
       0.239377          811.11         686.727 
       0.245482         757.162         656.601 
       0.251667         749.712         630.366 
       0.257832         722.549         606.718 
       0.263955         698.504         584.101 
       0.270079         673.309          561.32 
        0.27624         664.442         537.902 
       0.282372         636.428         514.411 
        0.28843         620.415         491.691 
       0.294538         590.182         470.001 
       0.300721         585.878         449.864 
        0.30691         558.781         431.736 
       0.313033         547.306         415.691 
       0.319153         530.135         401.131 
       0.325316         514.814         387.484 
        0.33145          499.94         374.446 
       0.337538         493.244         361.758 
       0.343633         477.377         349.179 
       0.349808         461.708         336.634 
       0.355968         456.914         324.471 
       0.362074         447.532         312.953 
       0.368217         435.211         302.058 
       0.374374         418.198          291.88 
       0.380519          414.17         282.443 
       0.386598         403.998         273.705 
       0.392688          400.88         265.418 
        0.39888          389.49         257.343 
       0.405048         381.325         249.544 
       0.411186          373.86         241.988 
       0.417313         366.951         234.648 
       0.423458          360.22         227.514 
       0.429607         352.727         220.654 
       0.435692         343.843         214.173 
       0.441815         341.228         207.967 
       0.447964         334.499         202.051 
       0.454126         323.413         196.412 
       0.460267         319.248         191.036 
       0.466387          315.55         185.884 
        0.47254         308.834         180.882 
       0.478662         307.647          176.06 
       0.484765         298.099         171.398 
       0.490885         294.606         166.874 
       0.497035         289.886         162.485 
       0.503198         283.855         158.251 
       0.509342          281.35         154.193 
       0.515458          277.79         150.313 
       0.521598         272.706          146.57 
       0.527764         268.275         142.949 
       0.533884         265.435          139.48 
           0.54         261.604         136.127 
       0.546137         260.363         132.868 
       0.552299         255.043         129.698 
       0.558452         252.498          126.63 
       0.564573         248.506         123.673 
       0.570708         243.958         120.806 
       0.576825         240.661         118.042 
       0.582926         237.826         115.377 
       0.589034          235.21         112.795 
       0.595184         232.833         110.278 
       0.601379          230.37         107.823 
       0.607522         225.921         105.464 
       0.613639         224.812         103.184 
       0.619772         219.813         100.966 
       0.625918         218.317         98.8072 
       0.632068          215.46         96.7093 
       0.638161         214.346         94.6911 
         0.6443           210.9          92.717 
       0.650464         208.865         90.7935 
       0.656582         207.163           88.94 
       0.662703         205.045         87.1388 
       0.668861         201.673          85.378 
       0.675024          199.42         83.6648 
       0.681124         198.574         82.0159 
       0.687237         195.524         80.4083 
       0.693381         192.746         78.8364 
       0.699536         191.412          77.304 
       0.705665         190.759         75.8193 
       0.711789         187.428         74.3753 
       0.717957         186.734         72.9594 
        0.72409         184.331         71.5886 
       0.730186         181.847         70.2617 
       0.736317         180.386         68.9615 
       0.742472         179.432         67.6897 
       0.748622         177.912         66.4514 
        0.75476         176.408         65.2471 
       0.760888         173.952         64.0747 
       0.767043         173.347         62.9268 
       0.773185         171.466         61.8096 
       0.779291         168.616         60.7261 
       0.785407         167.982         59.6673 
       0.791564         166.485         58.6273 
       0.797719         164.234         57.6128 
       0.803834         163.489         56.6289 
       0.809972         161.892         55.6647 
       0.816124         161.751          54.721 
       0.822261         159.559         53.8019 
       0.828378         158.129         52.9069 
       0.834502         157.888         52.0315 
       0.840667         155.443         51.1705 
       0.846816         154.192         50.3315 
       0.852925         153.351         49.5168 
       0.859047         151.613         48.7185 
       0.865192         150.651         47.9353 
       0.871341         149.188         47.1689 
       0.877463         148.085         46.4228 
       0.883569          147.12         45.6948 
       0.889708         146.002         44.9788 
       0.895864         144.459         44.2764 
       0.902008         143.647         43.5906 
       0.908149         142.994         42.9198 
       0.914301          141.43         42.2621 
       0.920448          140.42         41.6188 
       0.926574         139.652         40.9913 
       0.932687         139.169         40.3781 
       0.938823          137.24         39.7753 
       0.944975         135.989         39.1834 
       0.951105         135.452         38.6059 
       0.957225         133.903          38.041 
       0.963368         132.841         37.4855 
       0.969511         132.528         36.9412 
       0.975621         131.872         36.4108 
       0.981748         131.047         35.8894 
       0.987916         129.574          35.375 
        0.99406         128.808         34.8727 
        1.00019         128.222         34.3812 
        1.00632         127.173         33.8997 
        1.01246         126.372         33.4268 
        1.01859         125.067         32.9637 
        1.02471         124.706           32.51 
        1.03085          123.46         32.0633 
        1.03698          122.78         31.6261 
        1.04314         121.723         31.1951 
        1.04929         120.984         30.7733 
        1.05541          120.29          30.361 
        1.06154         119.563         29.9553 
        1.06769         119.351         29.5564 
        1.07382         118.517         29.1662 
        1.07993         117.532         28.7839 
        1.08607         116.664         28.4069 
        1.09222         116.194         28.0363 
        1.09836         115.204         27.6728 
        1.10449         114.469         27.3162 
        1.11063         113.764         26.9655 
        1.11677         113.337         26.6211 
         1.1229         112.079         26.2834 
        1.12903         111.362         25.9512 
        1.13518         111.499         25.6245 
        1.14131         110.402         25.3037 
        1.14745         109.657         24.9885 
        1.15359         108.977         24.6786 
        1.15973         108.672         24.3739 
        1.16584         107.669         24.0757 
        1.17197         107.138         23.7821 
        1.17811         106.458         23.4925 
        1.18424         105.854         23.2086 
        1.19038         105.334         22.9286 
        1.19652           104.7         22.6533 
        1.20267         103.942         22.3826 
        1.20881         103.302         22.1164 
        1.21495         102.663         21.8549 
        1.22108         102.158         21.5977 
         1.2272         101.316         21.3453 
        1.23334         100.945         21.0963 
        1.23949         100.015         20.8508 
        1.24562         99.7956         20.6098 
        1.25174         98.9794          20.373 
        1.25789         98.5934         20.1393 
        1.26402          98.146         19.9096 
        1.27014         97.3693         19.6841 
        1.27628         97.0237         19.4615 
        1.28244         96.2928         19.2419 
        1.28858         95.9765         19.0259 
        1.29471         95.2219         18.8138 
        1.30084         94.7412         18.6051 
        1.30697          94.216         18.3993 
        1.31312         93.8267         18.1963 
        1.31925         93.1656          17.997 
        1.32537         92.8286          17.801 
        1.33151         91.9322         17.6071 
        1.33765         91.5082         17.4163 
        1.34378         90.9557         17.2286 
        1.34992         90.7953         17.0437 
        1.35606         90.2238          16.861 
         1.3622         89.4177         16.6813 
        1.36833         89.2567         16.5048 
        1.37445         88.6279         16.3308 
        1.38059         88.1052         16.1588 
        1.38675         87.5229         15.9889 
        1.39288         87.0803         15.8222 
        1.39901         86.9268         15.6578 
        1.40515         86.3638         15.4955 
         1.4113          85.686         15.3355 
        1.41742         85.6143         15.1784 
        1.42355         84.8368         15.0232 
         1.4297         84.4805         14.8697 
        1.43585          83.848         14.7184 
        1.44198         83.6062         14.5698 
        1.44809         83.0924         14.4235 
        1.45423          82.607         14.2788 
        1.46036         82.4194         14.1362 
        1.46649         81.8722         13.9956 
        1.47263         81.3994         13.8568 
        1.47877         81.1853         13.7199 
        1.48491         80.6118         13.5846 
        1.49104         80.1811         13.4515 
        1.49718         79.7047         13.3201 
        1.50333         79.2975         13.1902 
        1.50947         78.8584         13.0623 
         1.5156         78.5537         12.9363 
        1.52172         78.0886          12.812 
        1.52787         77.9253         12.6891 
          1.534         77.3895         12.5679 
        1.54013         76.8283         12.4484 
        1.54627         76.5611         12.3303 
        1.55241         76.1086         12.2137 
        1.55855         75.7922         12.0988 
        1.56467         75.2775         11.9857 
         1.5708         75.0313         11.8737 
        1.57695         74.8018         11.7629 
        1.58308         74.0808         11.6539 
        1.58922         74.0189         11.5461 
        1.59535         73.7296         11.4398 
         1.6015         73.0857         11.3346 
        1.60764          72.861         11.2309 
        1.61376         72.4344         11.1287 
        1.61989         72.0545         11.0277 
        1.62604         71.8237         10.9277 
        1.63218         71.5166          10.829 
        1.63831         71.0024         10.7318 
        1.64444         70.6767         10.6357 
        1.65059         70.1834         10.5406 
        1.65673          69.978         10.4468 
        1.66285          69.611         10.3543 
        1.66898         69.2659          10.263 
        1.67512         68.8162         10.1725 
        1.68127         68.5092         10.0831 
         1.6874         68.2453         9.99499 
        1.69353         67.9252         9.90795 
        1.69967         67.4672         9.82175 
        1.70581         67.3458         9.73662 
        1.71193         67.1142         9.65281 
        1.71806         66.4638         9.56982 
        1.72421         66.3305         9.48764 
        1.73035         65.9534         9.40651 
        1.73649         65.5549         9.32636 
        1.74262         65.3705          9.2472 
        1.74876         65.0295         9.16892 
        1.75489          64.617          9.0917 
        1.76101         64.4208         9.01539 
        1.76715         63.9889         8.93986 
        1.77329         63.7759          8.8651 
        1.77943         63.3426         8.79117 
        1.78557         63.1832         8.71819 
        1.79171         62.8075         8.64602 
        1.79785         62.5814         8.57466 
        1.80399         62.2745         8.50412 
        1.81012         62.0648         8.43448 
        1.81625         61.5078         8.36564 
        1.82239         61.2843         8.29747 
        1.82853         60.9488         8.23009 
        1.83466         60.7528         8.16353 
        1.84078         60.3508         8.09777 
        1.84692         60.0184         8.03263 
        1.85306         59.8314         7.96813 
         1.8592         59.3935         7.90444 
        1.86533         59.2567         7.84148 
        1.87147         58.9003         7.77913 
        1.87761         58.6782         7.71744 
        1.88375         58.4201         7.65649 
        1.88988         58.2839         7.59626 
        1.89601         57.8357         7.53664 
        1.90215         57.5869         7.47762 
        1.90829          57.432         7.41926 
        1.91442         57.0534         7.36152 
        1.92056         56.6766         7.30445 
         1.9267         56.4743         7.24792 
        1.93284         56.2037         7.19196 
        1.93897         55.8943         7.13669 
        1.94509         55.5598         7.08213 
        1.95123         55.4472           7.028 
        1.95737         55.2148         6.97439 
        1.96349         54.8488         6.92149 
        1.96964         54.7552         6.86898 
        1.97578         54.3836         6.81699 
        1.98192         54.1585         6.76565 
        1.98805         54.0112         6.71482 
        1.99419         53.5999         6.66452 
        2.00033          53.372         6.61471 
        2.00647         53.1623         6.56543 
         2.0126         52.8077         6.51672 
        2.01874         52.6188         6.46844 
        2.02488         52.4759         6.42061 
        2.03101         52.1407         6.37335 
        2.03714         51.8738          6.3266 
        2.04328         51.6476         6.28028 
        2.04941         51.3426         6.23446 
        2.05554         51.0293         6.18913 
        2.06167          50.968         6.14418 
        2.06781         50.7457         6.09968 
        2.07396         50.4061         6.05556 
        2.08009         50.2466         6.01194 
        2.08622         49.9178         5.96881 
        2.09237         49.7191         5.92602 
        2.09851         49.5329         5.88364 
        2.10464         49.2702         5.84174 
        2.11077         49.0689         5.80031 
        2.11691         48.7966         5.75918 
        2.12305         48.5425         5.71845 
        2.12918          48.285         5.67821 
        2.13531         48.0731         5.63836 
        2.14145         47.8748         5.59879 
         2.1476         47.7033         5.55956 
        2.15372         47.3972         5.52091 
        2.15985         47.1928         5.48258 
        2.16599         47.0608          5.4445 
        2.17213         46.8795         5.40683 
        2.17827         46.5983         5.36952 
         2.1844         46.3249          5.3326 
        2.19054          46.083         5.29601 
        2.19666         45.9207         5.25982 
         2.2028         45.7503         5.22393 
        2.20893         45.5819         5.18837 
        2.21508         45.3897         5.15309 
        2.22122         45.0988         5.11813 
        2.22736         44.9117         5.08356 
        2.23349         44.7698         5.04933 
        2.23962         44.3883         5.01539 
        2.24577          44.228         4.98173 
         2.2519         44.0097         4.94843 
        2.25802         43.9582         4.91549 
        2.26417         43.6783         4.88276 
        2.27031         43.5288         4.85029 
        2.27644         43.1894         4.81821 
        2.28257         43.0781         4.78643 
        2.28872         42.7768         4.75487 
        2.29486         42.6468          4.7236 
        2.30099         42.4997         4.69268 
        2.30712         42.2979         4.66202 
        2.31326         42.0931         4.63159 
         2.3194         41.8544         4.60144 
        2.32553         41.7112         4.57161 
        2.33166          41.519         4.54206 
         2.3378          41.233         4.51273 
        2.34394         40.9957         4.48365 
        2.35007         40.8526         4.45486 
        2.35619         40.7806         4.42637 
        2.36233         40.6384         4.39806 
        2.36848         40.2828         4.36993 
        2.37462         40.2187         4.34211 
        2.38075         40.0084         4.31456 
        2.38689         39.9289         4.28723 
        2.39303         39.6836         4.26014 
        2.39916         39.4729         4.23331 
        2.40529         39.2219         4.20671 
        2.41143         39.1429         4.18032 
        2.41757         38.9936         4.15415 
         2.4237         38.8276         4.12825 
        2.42983         38.6317         4.10257 
        2.43598         38.3828         4.07705 
        2.44211         38.2367         4.05178 
        2.44823         38.0778         4.02678 
        2.45437         37.9601         4.00193 
        2.46052         37.6675         3.97726 
        2.46665         37.5848         3.95285 
        2.47279          37.416         3.92865 
        2.47892         37.2039         3.90463 
        2.48507         37.0577          3.8808 
         2.4912         36.9125         3.85721 
