# k  (h/Mpc)    P(k)  (Mpc/h)^3    P_linear(k)  (Mpc/h)^3
     0.00783031         679.698         686.397 
       0.013688         915.533         917.579 
       0.019231         993.069         993.922 
      0.0249154         976.635         982.315 
      0.0312784         911.495         913.324 
      0.0375637          828.37         827.533 
      0.0433917         751.712          753.76 
      0.0492413         693.323         693.417 
      0.0555754         640.264         643.321 
      0.0619321         605.093         603.405 
       0.067871         566.995         569.229 
      0.0738098         530.991         533.608 
      0.0800417         489.129         492.944 
      0.0862327         448.317         450.499 
      0.0921407         409.848         410.978 
      0.0982031         372.667         374.483 
       0.104506         343.727         343.036 
       0.110769         319.238         318.789 
       0.116806         299.713         300.948 
       0.122832         286.615         286.615 
       0.129052         271.828         273.253 
       0.135211         258.048          259.69 
       0.141259         244.733         245.232 
       0.147318         230.228         229.765 
       0.153489         213.616         213.848 
       0.159709         198.974         198.766 
       0.165845         187.584          185.73 
       0.171974         175.477          174.95 
       0.178125         167.023         166.267 
       0.184229         160.506         159.247 
        0.19034         152.876         153.105 
       0.196428         147.983           147.2 
       0.202534         142.854         141.037 
       0.208729         135.623         134.386 
       0.214876         128.088         127.532 
       0.220989         122.898         120.785 
       0.227147         115.257         114.416 
        0.23329         109.828         108.751 
       0.239377         105.462         103.916 
       0.245482         100.631         99.7798 
       0.251667         97.9376         96.1349 
       0.257832         94.4627         92.8066 
       0.263955         91.2417         89.5922 
       0.270079          88.111          86.332 
        0.27624          85.458          82.969 
       0.282372         82.0109          79.593 
        0.28843         78.4348         76.3261 
       0.294538         75.3969         73.2106 
       0.300721         73.1119         70.3175 
        0.30691         70.0267         67.7144 
       0.313033         67.8262         65.4047 
       0.319153         64.9327         63.3004 
       0.325316         63.9148         61.3126 
        0.33145         61.7701         59.3983 
       0.337538         60.0362         57.5171 
       0.343633         58.0286         55.6415 
       0.349808          56.323         53.7606 
       0.355968         54.5593         51.9349 
       0.362074         52.8111         50.2057 
       0.368217          51.277         48.5725 
       0.374374         49.5723           47.05 
       0.380519         48.3633         45.6384 
       0.386598         47.1038         44.3308 
       0.392688         46.0426         43.0852 
        0.39888         44.7262         41.8636 
       0.405048         43.6666         40.6768 
       0.411186         42.6388         39.5178 
       0.417313         41.1993          38.387 
       0.423458         40.2164         37.2854 
       0.429607         39.0691         36.2241 
       0.435692         37.9701         35.2228 
       0.441815         37.2008         34.2656 
       0.447964         36.5589         33.3529 
       0.454126         35.2916         32.4829 
       0.460267         34.5499         31.6524 
       0.466387         33.5716          30.853 
        0.47254          33.027         30.0728 
       0.478662         32.3741         29.3178 
       0.484765         31.5114         28.5848 
       0.490885         30.7562          27.871 
       0.497035          30.342         27.1774 
       0.503198         29.5728         26.5085 
       0.509342         28.8788         25.8674 
       0.515458         28.2269         25.2539 
       0.521598         27.7245         24.6619 
       0.527764         27.1005         24.0888 
       0.533884          26.635         23.5386 
           0.54         26.0953         23.0049 
       0.546137         25.6227         22.4844 
       0.552299         25.1664         21.9767 
       0.558452         24.4161         21.4847 
       0.564573         24.1091         21.0096 
       0.570708         23.6775          20.548 
       0.576825         23.0736         20.1026 
       0.582926         22.7133         19.6731 
       0.589034         22.0814         19.2569 
       0.595184         21.7749         18.8508 
       0.601379         21.3595          18.454 
       0.607522         21.0475         18.0716 
       0.613639         20.8027         17.7014 
       0.619772         20.2678         17.3405 
       0.625918         20.0919         16.9889 
       0.632068         19.7685         16.6468 
       0.638161         19.3265         16.3173 
         0.6443          18.944         15.9944 
       0.650464          18.586         15.6795 
       0.656582         18.4374         15.3756 
       0.662703          18.117         15.0801 
       0.668861         17.8043          14.791 
       0.675024          17.465         14.5095 
       0.681124         17.1742         14.2382 
       0.687237         16.9296         13.9733 
       0.693381         16.7191         13.7138 
       0.699536          16.275         13.4604 
       0.705665         16.1128         13.2146 
       0.711789         15.8609         12.9752 
       0.717957         15.6151         12.7403 
        0.72409         15.3688         12.5126 
       0.730186         15.1726         12.2921 
       0.736317         15.0179         12.0759 
       0.742472         14.7859         11.8641 
       0.748622         14.5542         11.6577 
        0.75476         14.2471         11.4567 
       0.760888          14.111         11.2608 
       0.767043          13.942         11.0687 
       0.773185         13.6684         10.8816 
       0.779291         13.5587         10.6999 
       0.785407          13.352         10.5221 
       0.791564         13.1366         10.3473 
       0.797719         12.9501         10.1767 
       0.803834         12.8371          10.011 
       0.809972         12.7129         9.84854 
       0.816124         12.4498         9.68937 
       0.822261         12.2926          9.5342 
       0.828378         12.1492         9.38296 
       0.834502         12.0336         9.23491 
       0.840667         11.8318         9.08915 
       0.846816         11.6481         8.94699 
       0.852925         11.5469          8.8088 
       0.859047         11.4059         8.67328 
       0.865192         11.3077          8.5402 
       0.871341         11.1816         8.40987 
       0.877463         11.0244         8.28288 
       0.883569         10.8433         8.15887 
       0.889708          10.675         8.03681 
       0.895864         10.6113         7.91696 
       0.902008         10.4803         7.79984 
       0.908149         10.3659          7.6852 
       0.914301         10.2162         7.57271 
       0.920448         10.0745          7.4626 
       0.926574         9.95869          7.3551 
       0.932687         9.88408         7.24998 
       0.938823         9.75554         7.14656 
       0.944975         9.62866         7.04495 
       0.951105         9.54683         6.94571 
       0.957225         9.49442         6.84857 
       0.963368         9.36253         6.75298 
       0.969511         9.26203         6.65924 
       0.975621         9.13972         6.56781 
       0.981748         9.05379         6.47788 
       0.987916         8.96871         6.38909 
        0.99406         8.82951         6.30233 
        1.00019         8.71375         6.21736 
        1.00632         8.68273         6.13406 
        1.01246         8.59111         6.05218 
        1.01859         8.48001         5.97194 
        1.02471         8.39751         5.89328 
        1.03085         8.32115         5.81577 
        1.03698         8.20965         5.73984 
        1.04314         8.14723         5.66496 
        1.04929         8.04117         5.59161 
        1.05541         7.96203         5.51987 
        1.06154         7.89318         5.44923 
        1.06769         7.85197         5.37973 
        1.07382         7.73207         5.31168 
        1.07993         7.65302         5.24498 
        1.08607         7.60759         5.17917 
        1.09222         7.53164         5.11443 
        1.09836         7.46664         5.05088 
        1.10449         7.38624          4.9885 
        1.11063         7.32309         4.92712 
        1.11677         7.25751         4.86681 
         1.1229         7.18881         4.80762 
        1.12903          7.1193         4.74938 
        1.13518         7.05326         4.69206 
        1.14131         6.96513         4.63573 
        1.14745         6.88487         4.58037 
        1.15359         6.85634         4.52592 
        1.15973          6.7832         4.47234 
        1.16584         6.72317         4.41987 
        1.17197         6.66614         4.36819 
        1.17811         6.61211         4.31718 
        1.18424         6.57522         4.26714 
        1.19038         6.51749         4.21776 
        1.19652         6.45767         4.16919 
        1.20267         6.38668         4.12139 
        1.20881         6.34132         4.07436 
        1.21495         6.29381         4.02815 
        1.22108         6.23113         3.98267 
         1.2272         6.20583           3.938 
        1.23334         6.12253         3.89393 
        1.23949         6.07157         3.85043 
        1.24562         6.04654         3.80772 
        1.25174         5.97075         3.76573 
        1.25789         5.93248         3.72426 
        1.26402         5.87806         3.68348 
        1.27014         5.82466         3.64343 
        1.27628         5.79825         3.60385 
        1.28244         5.72583          3.5648 
        1.28858         5.70394         3.52638 
        1.29471         5.64926         3.48861 
        1.30084         5.59799         3.45144 
        1.30697          5.5898         3.41477 
        1.31312         5.48828         3.37857 
        1.31925          5.4756         3.34303 
        1.32537         5.43164         3.30803 
        1.33151          5.4028         3.27341 
        1.33765         5.33441         3.23932 
        1.34378          5.2948         3.20578 
        1.34992         5.27959          3.1727 
        1.35606         5.21765         3.14002 
         1.3622          5.1949         3.10786 
        1.36833         5.15477         3.07624 
        1.37445         5.11731         3.04507 
        1.38059         5.08722         3.01425 
        1.38675         5.05505         2.98378 
        1.39288         5.00307         2.95386 
        1.39901         4.96191         2.92437 
        1.40515         4.93521         2.89522 
         1.4113         4.90087         2.86648 
        1.41742         4.86903         2.83824 
        1.42355         4.83792         2.81034 
         1.4297         4.78639         2.78272 
        1.43585         4.77331          2.7555 
        1.44198         4.74841         2.72875 
        1.44809         4.68974          2.7024 
        1.45423         4.65992         2.67631 
        1.46036         4.62923         2.65062 
        1.46649         4.58989         2.62525 
        1.47263         4.55896          2.6002 
        1.47877         4.52136         2.57549 
        1.48491         4.49534         2.55107 
        1.49104         4.47699         2.52702 
        1.49718         4.44447         2.50326 
        1.50333         4.41552         2.47977 
        1.50947         4.38758         2.45664 
         1.5156          4.3599         2.43383 
        1.52172         4.33423         2.41132 
        1.52787         4.30236         2.38905 
          1.534         4.27594          2.3671 
        1.54013         4.24796         2.34544 
        1.54627         4.20877         2.32402 
        1.55241         4.18366         2.30286 
        1.55855         4.16889           2.282 
        1.56467         4.13965         2.26145 
         1.5708         4.10212         2.24111 
        1.57695         4.08267         2.22098 
        1.58308         4.05443         2.20115 
        1.58922         4.03949         2.18156 
        1.59535         4.01149         2.16221 
         1.6015         3.98702         2.14306 
        1.60764         3.96452         2.12417 
        1.61376         3.93909         2.10555 
        1.61989         3.91303         2.08714 
        1.62604         3.88661         2.06892 
        1.63218         3.87588         2.05093 
        1.63831          3.8396         2.03319 
        1.64444         3.81657         2.01566 
        1.65059         3.79703         1.99829 
        1.65673          3.7763         1.98115 
        1.66285         3.74646         1.96426 
        1.66898         3.73351         1.94757 
        1.67512         3.70249         1.93103 
        1.68127         3.68368         1.91468 
         1.6874         3.66955         1.89855 
        1.69353         3.63205         1.88262 
        1.69967         3.61893         1.86684 
        1.70581         3.60838         1.85124 
        1.71193         3.58246         1.83589 
        1.71806         3.56559         1.82067 
        1.72421         3.54305         1.80561 
        1.73035         3.52385         1.79073 
        1.73649         3.49993         1.77602 
        1.74262          3.4799         1.76149 
        1.74876         3.47187         1.74711 
        1.75489         3.44391         1.73293 
        1.76101         3.42175         1.71891 
        1.76715         3.40556         1.70503 
        1.77329         3.38699         1.69128 
        1.77943         3.36295         1.67768 
        1.78557         3.35189         1.66425 
        1.79171         3.33449         1.65097 
        1.79785         3.31212         1.63783 
        1.80399         3.29897         1.62484 
        1.81012         3.28774           1.612 
        1.81625         3.26022         1.59932 
        1.82239         3.24146         1.58675 
        1.82853         3.22006         1.57432 
        1.83466         3.21347         1.56204 
        1.84078          3.1943          1.5499 
        1.84692         3.17917         1.53788 
        1.85306         3.15654         1.52596 
         1.8592         3.14314          1.5142 
        1.86533         3.12665         1.50256 
        1.87147         3.11518         1.49104 
        1.87761         3.09901         1.47963 
        1.88375         3.07273         1.46836 
        1.88988         3.06423         1.45721 
        1.89601          3.0468         1.44618 
        1.90215          3.0267         1.43525 
        1.90829         3.01481         1.42445 
        1.91442         3.00104         1.41375 
        1.92056          2.9837         1.40317 
         1.9267         2.97384          1.3927 
        1.93284         2.95918         1.38232 
        1.93897         2.94232         1.37207 
        1.94509         2.92268         1.36194 
        1.95123          2.9074          1.3519 
        1.95737         2.89441         1.34195 
        1.96349         2.88303         1.33212 
        1.96964         2.87359         1.32237 
        1.97578         2.85662         1.31271 
        1.98192         2.84515         1.30316 
        1.98805         2.82769         1.29371 
        1.99419         2.81452         1.28436 
        2.00033         2.81087         1.27509 
        2.00647         2.78943         1.26592 
         2.0126         2.78074         1.25685 
        2.01874         2.75939         1.24786 
        2.02488         2.75036         1.23895 
        2.03101         2.73302         1.23015 
        2.03714         2.71751         1.22144 
        2.04328         2.71074          1.2128 
        2.04941         2.69242         1.20426 
        2.05554         2.68768          1.1958 
        2.06167         2.66976         1.18742 
        2.06781         2.66283         1.17911 
        2.07396         2.65046         1.17088 
        2.08009         2.63622         1.16273 
        2.08622         2.61877         1.15468 
        2.09237         2.61839         1.14668 
        2.09851         2.60443         1.13876 
        2.10464         2.59201         1.13093 
        2.11077          2.5777         1.12318 
        2.11691         2.56471         1.11549 
        2.12305         2.55822         1.10787 
        2.12918         2.54603         1.10034 
        2.13531          2.5356         1.09288 
        2.14145         2.52114         1.08547 
         2.1476         2.51086         1.07812 
        2.15372         2.49906         1.07088 
        2.15985         2.48834          1.0637 
        2.16599         2.47581         1.05656 
        2.17213         2.46621          1.0495 
        2.17827         2.45763          1.0425 
         2.1844         2.44704         1.03558 
        2.19054         2.43912         1.02871 
        2.19666         2.42446         1.02192 
         2.2028         2.41557         1.01518 
        2.20893         2.40133          1.0085 
        2.21508         2.39614         1.00188 
        2.22122         2.38164        0.995311 
        2.22736         2.36965        0.988816 
        2.23349         2.36649         0.98238 
        2.23962         2.35136        0.975999 
        2.24577         2.34184         0.96967 
         2.2519         2.33224        0.963405 
        2.25802         2.32877        0.957207 
        2.26417         2.31308        0.951046 
        2.27031         2.30773        0.944933 
        2.27644         2.29688        0.938893 
        2.28257           2.287        0.932907 
        2.28872         2.27561        0.926961 
        2.29486         2.27132        0.921069 
        2.30099          2.2582        0.915241 
        2.30712         2.24906         0.90946 
        2.31326         2.24447        0.903721 
         2.3194         2.23191        0.898034 
        2.32553         2.22493        0.892406 
        2.33166         2.21313         0.88683 
         2.3378         2.20418        0.881293 
        2.34394         2.19494        0.875803 
        2.35007         2.18636        0.870367 
        2.35619         2.18259        0.864984 
        2.36233         2.16938        0.859635 
        2.36848          2.1629        0.854319 
        2.37462         2.15427        0.849061 
        2.38075         2.14554        0.843852 
        2.38689         2.13708        0.838682 
        2.39303         2.13082        0.833557 
        2.39916         2.11962        0.828481 
        2.40529         2.11434        0.823447 
        2.41143         2.10436        0.818452 
        2.41757         2.09527        0.813496 
         2.4237         2.08899        0.808591 
        2.42983         2.07894        0.803727 
        2.43598         2.07612         0.79889 
        2.44211         2.06507        0.794101 
        2.44823         2.05795        0.789363 
        2.45437         2.05055         0.78465 
        2.46052         2.04325        0.779972 
        2.46665          2.0374        0.775341 
        2.47279         2.02833         0.77075 
        2.47892         2.01976        0.766192 
        2.48507         2.01396        0.761668 
         2.4912           2.005        0.757189 
