# k  (h/Mpc)    P(k)  (Mpc/h)^3    P_linear(k)  (Mpc/h)^3
     0.00783031         15373.1         15497.6 
       0.013688         18861.2           19423 
       0.019231           19745         20111.8 
      0.0249154           19097         19133.6 
      0.0312784         16869.8         17142.4 
      0.0375637         14664.7         15036.2 
      0.0433917         13158.2         13338.7 
      0.0492413           11728         11999.5 
      0.0555754         10741.8         10922.4 
      0.0619321         9611.44         10100.6 
       0.067871         9107.92         9434.38 
      0.0738098         8546.21         8770.82 
      0.0800417         7836.39         8032.75 
      0.0862327         7065.57         7269.48 
      0.0921407         6424.45         6558.86 
      0.0982031         5879.53         5900.26 
       0.104506         5256.64         5330.62 
       0.110769         4867.71         4891.94 
       0.116806         4642.72         4573.93 
       0.122832          4358.4         4327.82 
       0.129052         4123.26         4110.47 
       0.135211          4002.4         3898.98 
       0.141259         3718.58         3676.26 
       0.147318         3455.73         3435.56 
       0.153489         3262.13         3182.74 
       0.159709         3131.81         2937.52 
       0.165845         2860.86         2720.97 
       0.171974         2778.59          2539.3 
       0.178125         2686.27          2392.9 
       0.184229         2475.45         2277.29 
        0.19034         2441.59         2181.03 
       0.196428          2374.2         2093.58 
       0.202534         2238.95         2005.49 
       0.208729         2193.68         1910.92 
       0.214876         2098.85         1811.83 
       0.220989          1999.5          1711.6 
       0.227147         1943.56         1614.19 
        0.23329          1867.3         1525.29 
       0.239377         1856.35         1448.16 
       0.245482         1770.68          1382.2 
       0.251667         1706.08         1325.33 
       0.257832         1678.31          1275.5 
       0.263955         1606.58         1229.49 
       0.270079         1568.37         1184.21 
        0.27624          1503.7         1137.88 
       0.282372         1488.42         1090.89 
        0.28843         1459.81         1044.44 
       0.294538          1396.4         999.032 
       0.300721         1371.94         955.929 
        0.30691         1337.27         916.606 
       0.313033         1289.02         881.691 
       0.319153         1276.02         850.348 
       0.325316         1260.28         821.526 
        0.33145         1233.13         794.582 
       0.337538         1194.54         768.698 
       0.343633         1168.07         743.144 
       0.349808         1148.39         717.442 
       0.355968         1124.64          692.19 
       0.362074         1093.06         667.884 
       0.368217         1089.43         644.574 
       0.374374         1072.56         622.628 
       0.380519         1036.64          602.25 
       0.386598         1032.37         583.516 
       0.392688         1005.72          565.93 
        0.39888         986.796         548.989 
       0.405048         967.779         532.774 
       0.411186         963.922         517.081 
       0.417313         960.378         501.792 
       0.423458         931.172          486.82 
       0.429607         906.758         472.284 
       0.435692         899.843         458.448 
       0.441815         882.243         445.139 
       0.447964         873.573         432.429 
       0.454126         861.586         420.355 
       0.460267         851.402         408.909 
       0.466387         837.181         397.997 
        0.47254         823.075         387.446 
       0.478662         813.076         377.299 
       0.484765         804.683         367.472 
       0.490885         795.428         357.899 
       0.497035         781.053         348.574 
       0.503198         780.145         339.542 
       0.509342         765.419         330.858 
       0.515458         750.333         322.543 
       0.521598         749.844         314.531 
       0.527764          731.96           306.8 
       0.533884         724.228         299.409 
           0.54         719.363         292.278 
       0.546137         709.775         285.355 
       0.552299         704.646          278.62 
       0.558452         696.821         272.094 
       0.564573         692.154         265.791 
       0.570708          684.64         259.665 
       0.576825         670.649          253.75 
       0.582926         669.118         248.044 
       0.589034         660.526         242.516 
       0.595184         653.027         237.131 
       0.601379         642.991          231.88 
       0.607522         634.098         226.838 
       0.613639         633.367          221.97 
       0.619772         628.054         217.233 
       0.625918         618.659         212.622 
       0.632068         615.138         208.137 
       0.638161         606.853         203.818 
         0.6443         600.656          199.59 
       0.650464         596.242         195.467 
       0.656582         591.586         191.494 
       0.662703         584.112         187.634 
       0.668861         577.675         183.861 
       0.675024         574.771         180.191 
       0.681124         563.686         176.659 
       0.687237         564.117         173.215 
       0.693381         554.448         169.847 
       0.699536         555.149         166.562 
       0.705665         547.074         163.379 
       0.711789         545.673         160.282 
       0.717957          538.32         157.245 
        0.72409         533.771         154.304 
       0.730186         532.362         151.456 
       0.736317         525.092         148.665 
       0.742472         518.906         145.935 
       0.748622         517.627         143.277 
        0.75476         510.598         140.691 
       0.760888         508.309         138.174 
       0.767043         505.724         135.709 
       0.773185         501.379          133.31 
       0.779291         495.805         130.982 
       0.785407         491.923         128.708 
       0.791564           489.2         126.473 
       0.797719          481.76         124.293 
       0.803834         482.568         122.178 
       0.809972         475.227         120.105 
       0.816124         471.838         118.076 
       0.822261         468.988           116.1 
       0.828378         466.759         114.175 
       0.834502         459.143         112.293 
       0.840667         458.278         110.441 
       0.846816          453.56         108.636 
       0.852925          452.91         106.883 
       0.859047         447.897         105.165 
       0.865192         445.283          103.48 
       0.871341         439.877         101.831 
       0.877463         439.091         100.225 
       0.883569         434.433         98.6579 
       0.889708         429.759         97.1166 
       0.895864         425.449         95.6045 
       0.902008         424.739         94.1278 
       0.908149         420.539         92.6834 
       0.914301         419.029         91.2671 
       0.920448         413.837         89.8819 
       0.926574         411.796         88.5304 
       0.932687         410.549         87.2096 
       0.938823         405.281         85.9112 
       0.944975         403.634         84.6363 
       0.951105         400.526          83.392 
       0.957225         395.135          82.175 
       0.963368         395.675         80.9783 
       0.969511         389.905         79.8054 
       0.975621         388.116         78.6622 
       0.981748         386.063         77.5386 
       0.987916         383.599           76.43 
        0.99406         379.677         75.3473 
        1.00019          375.91         74.2879 
        1.00632         374.948         73.2498 
        1.01246         371.736         72.2302 
        1.01859         368.426         71.2317 
        1.02471          366.65         70.2534 
        1.03085          364.48         69.2902 
        1.03698         362.405         68.3472 
        1.04314         359.532         67.4178 
        1.04929          357.99          66.508 
        1.05541         353.304         65.6186 
        1.06154         351.899         64.7434 
        1.06769         348.626         63.8829 
        1.07382         345.812         63.0409 
        1.07993         345.289          62.216 
        1.08607         342.935         61.4025 
        1.09222         339.578         60.6028 
        1.09836         337.831         59.8184 
        1.10449         334.983         59.0488 
        1.11063          333.63         58.2919 
        1.11677         329.608         57.5485 
         1.1229         328.746         56.8195 
        1.12903         325.568         56.1025 
        1.13518          323.98         55.3973 
        1.14131         322.244         54.7046 
        1.14745         318.716         54.0242 
        1.15359         316.268         53.3552 
        1.15973         314.802         52.6973 
        1.16584          313.16         52.0535 
        1.17197          310.81         51.4196 
        1.17811         307.291         50.7942 
        1.18424         306.558         50.1812 
        1.19038         304.552         49.5765 
        1.19652         301.497          48.982 
        1.20267         300.335         48.3973 
        1.20881         298.657         47.8223 
        1.21495         295.845         47.2576 
        1.22108         294.786         46.7021 
         1.2272         290.428         46.1569 
        1.23334         289.589         45.6192 
        1.23949         287.669         45.0887 
        1.24562         286.811         44.5683 
        1.25174         284.392         44.0568 
        1.25789         281.903         43.5518 
        1.26402         280.733         43.0557 
        1.27014         279.217         42.5685 
        1.27628         276.883         42.0874 
        1.28244         274.536         41.6129 
        1.28858         273.483         41.1463 
        1.29471           271.8          40.688 
        1.30084         270.816          40.237 
        1.30697         267.559         39.7922 
        1.31312         265.994         39.3535 
        1.31925         264.699         38.9229 
        1.32537         263.446          38.499 
        1.33151         260.743           38.08 
        1.33765         258.758         37.6675 
        1.34378         257.651         37.2619 
        1.34992         255.099          36.862 
        1.35606         253.824         36.4672 
         1.3622         252.087         36.0788 
        1.36833         251.458          35.697 
        1.37445         250.056          35.321 
        1.38059         246.878         34.9492 
        1.38675         245.694         34.5819 
        1.39288         244.929         34.2213 
        1.39901         242.504          33.866 
        1.40515         241.267          33.515 
         1.4113          239.45         33.1691 
        1.41742         237.469         32.8294 
        1.42355         236.879         32.4938 
         1.4297         235.049          32.162 
        1.43585          233.06         31.8348 
        1.44198         231.893         31.5135 
        1.44809         230.639         31.1973 
        1.45423         229.087         30.8842 
        1.46036         228.073         30.5759 
        1.46649         226.306         30.2718 
        1.47263         224.387         29.9716 
        1.47877         223.275         29.6756 
        1.48491         221.428         29.3831 
        1.49104         219.537         29.0952 
        1.49718         218.918          28.811 
        1.50333         217.054         28.5301 
        1.50947         215.881         28.2535 
         1.5156         214.473          27.981 
        1.52172         213.035         27.7121 
        1.52787         211.488         27.4462 
          1.534         211.154         27.1841 
        1.54013         209.116         26.9257 
        1.54627         207.914         26.6702 
        1.55241         206.831         26.4179 
        1.55855         205.348         26.1693 
        1.56467         204.113         25.9246 
         1.5708         202.633         25.6823 
        1.57695         201.788         25.4428 
        1.58308         200.636         25.2069 
        1.58922         198.833         24.9738 
        1.59535         197.456         24.7437 
         1.6015          196.62         24.5162 
        1.60764         195.062         24.2917 
        1.61376         193.672         24.0706 
        1.61989         192.379         23.8521 
        1.62604         191.376         23.6358 
        1.63218         189.919         23.4223 
        1.63831         189.332          23.212 
        1.64444         187.589         23.0041 
        1.65059         186.738         22.7983 
        1.65673         185.497         22.5952 
        1.66285         184.253         22.3952 
        1.66898         183.182         22.1976 
        1.67512         182.022         22.0019 
        1.68127         181.034         21.8084 
         1.6874         179.651         21.6177 
        1.69353         178.979         21.4293 
        1.69967         177.461         21.2428 
        1.70581         176.615         21.0586 
        1.71193         175.371         20.8772 
        1.71806         173.987         20.6976 
        1.72421         173.197         20.5198 
        1.73035         171.889         20.3443 
        1.73649         170.576         20.1708 
        1.74262         169.928         19.9995 
        1.74876         168.861         19.8301 
        1.75489         168.201          19.663 
        1.76101         167.097         19.4978 
        1.76715         165.817         19.3344 
        1.77329         164.437         19.1726 
        1.77943         163.554         19.0126 
        1.78557         162.616         18.8546 
        1.79171         162.069         18.6985 
        1.79785         160.641          18.544 
        1.80399         159.714         18.3914 
        1.81012         159.127         18.2406 
        1.81625         157.402         18.0917 
        1.82239         156.988         17.9441 
        1.82853           156.1         17.7983 
        1.83466         154.599         17.6542 
        1.84078         154.091         17.5119 
        1.84692          153.27          17.371 
        1.85306         152.008         17.2314 
         1.8592         151.412         17.0935 
        1.86533         149.891         16.9572 
        1.87147         149.106         16.8223 
        1.87761         148.441         16.6888 
        1.88375         147.197         16.5569 
        1.88988         146.624         16.4265 
        1.89601         146.067         16.2975 
        1.90215          145.11         16.1697 
        1.90829         143.688         16.0434 
        1.91442         143.114         15.9184 
        1.92056         142.229         15.7949 
         1.9267         141.386         15.6725 
        1.93284         140.223         15.5514 
        1.93897         139.673         15.4318 
        1.94509          138.83         15.3137 
        1.95123         138.051         15.1965 
        1.95737         137.526         15.0805 
        1.96349         136.366          14.966 
        1.96964         135.471         14.8523 
        1.97578         134.702         14.7398 
        1.98192         134.127         14.6286 
        1.98805          133.12         14.5186 
        1.99419         132.188         14.4097 
        2.00033         131.563         14.3019 
        2.00647         130.556         14.1952 
         2.0126         129.883         14.0898 
        2.01874         129.164         13.9853 
        2.02488         128.418         13.8817 
        2.03101         127.943         13.7794 
        2.03714          127.17         13.6783 
        2.04328          126.12          13.578 
        2.04941         125.654         13.4788 
        2.05554         124.882         13.3807 
        2.06167         124.127         13.2834 
        2.06781         123.421          13.187 
        2.07396         122.531         13.0915 
        2.08009         122.029         12.9971 
        2.08622         121.217         12.9037 
        2.09237         120.226         12.8111 
        2.09851         119.812         12.7194 
        2.10464         119.166         12.6287 
        2.11077         118.495          12.539 
        2.11691          117.84           12.45 
        2.12305          116.99         12.3618 
        2.12918         116.416         12.2747 
        2.13531         115.438         12.1884 
        2.14145         115.067         12.1028 
         2.1476         114.265         12.0179 
        2.15372         113.543         11.9342 
        2.15985         112.953         11.8512 
        2.16599         112.306         11.7688 
        2.17213         111.588         11.6872 
        2.17827         111.079         11.6065 
         2.1844         110.313         11.5266 
        2.19054         109.759         11.4474 
        2.19666         108.964          11.369 
         2.2028         108.509         11.2913 
        2.20893         107.943         11.2144 
        2.21508         107.036          11.138 
        2.22122         106.392         11.0623 
        2.22736         106.205         10.9875 
        2.23349         105.583         10.9134 
        2.23962         104.875         10.8399 
        2.24577          104.13         10.7671 
         2.2519          103.43          10.695 
        2.25802         103.173         10.6237 
        2.26417         102.423         10.5528 
        2.27031         101.828         10.4825 
        2.27644         101.241         10.4131 
        2.28257         100.901         10.3443 
        2.28872         100.167          10.276 
        2.29486         99.5741         10.2083 
        2.30099         98.8521         10.1414 
        2.30712         98.4933          10.075 
        2.31326         97.8273         10.0091 
         2.3194         97.3793         9.94388 
        2.32553         96.8105         9.87931 
        2.33166         96.5029         9.81534 
         2.3378         95.7098         9.75185 
        2.34394         95.0901          9.6889 
        2.35007         94.5989          9.6266 
        2.35619         94.0281         9.56492 
        2.36233         93.7656         9.50363 
        2.36848         93.0721         9.44275 
        2.37462         92.8037         9.38253 
        2.38075         92.1621         9.32289 
        2.38689          91.626         9.26372 
        2.39303         91.1876         9.20508 
        2.39916         90.6248           9.147 
        2.40529          90.163         9.08943 
        2.41143         89.5095         9.03231 
        2.41757         88.8586         8.97566 
         2.4237         88.5369         8.91959 
        2.42983         88.0451         8.86401 
        2.43598         87.5433         8.80876 
        2.44211         87.1274         8.75406 
        2.44823         86.6463         8.69996 
        2.45437         86.3109         8.64616 
        2.46052         85.6028         8.59277 
        2.46665         85.2525         8.53993 
        2.47279         84.7296         8.48754 
        2.47892         84.3723         8.43556 
        2.48507         83.9583         8.38397 
         2.4912         83.3237         8.33291 
