# k  (h/Mpc)    P(k)  (Mpc/h)^3    P_linear(k)  (Mpc/h)^3
     0.00783031         5514.06          5588.9 
       0.013688         6944.47          6927.4 
       0.019231         7037.44          7034.1 
      0.0249154         6442.39         6523.63 
      0.0312784         5636.79         5665.75 
      0.0375637          4839.5         4831.84 
      0.0433917         4169.79         4205.41 
      0.0492413         3738.91         3745.72 
      0.0555754         3350.71         3404.07 
      0.0619321         3173.87         3158.12 
       0.067871         2916.49         2956.14 
      0.0738098         2703.57          2741.9 
      0.0800417         2438.43         2489.89 
      0.0862327         2197.46         2223.34 
      0.0921407         1973.51         1977.36 
      0.0982031         1746.44         1756.62 
       0.104506         1601.04         1575.69 
       0.110769         1469.24          1446.2 
       0.116806         1370.85         1359.54 
       0.122832         1313.05         1295.69 
       0.129052         1235.05         1237.35 
       0.135211         1174.18          1174.6 
       0.141259         1115.76         1102.67 
       0.147318         1043.54         1021.89 
       0.153489         953.166         937.111 
       0.159709         885.373         857.253 
       0.165845         833.644          790.15 
       0.171974         775.355         737.354 
       0.178125         737.252         697.703 
       0.184229         708.449         668.026 
        0.19034         666.917         643.271 
       0.196428         654.237         619.156 
       0.202534         633.678         592.584 
       0.208729          600.09         562.269 
       0.214876         565.266         529.873 
       0.220989         543.002         497.523 
       0.227147         509.705         467.132 
        0.23329         485.879         440.685 
       0.239377         471.243         418.931 
       0.245482         441.104         401.173 
       0.251667         435.348         386.179 
       0.257832         421.128         372.798 
       0.263955         406.675         359.773 
       0.270079         392.077         346.182 
        0.27624         384.999         331.753 
       0.282372         368.995         316.941 
        0.28843         355.516         302.479 
       0.294538         339.424          288.72 
       0.300721         334.487         276.114 
        0.30691         318.749         265.019 
       0.313033          311.09         255.411 
       0.319153         298.817         246.857 
       0.325316         291.869         238.864 
        0.33145         282.388         231.163 
       0.337538         278.173         223.516 
       0.343633         268.829         215.793 
       0.349808         260.375         207.969 
       0.355968         255.658          200.33 
       0.362074         248.609         193.111 
       0.368217         241.823         186.327 
       0.374374         234.016         180.081 
       0.380519         229.714         174.355 
       0.386598         223.856         169.108 
       0.392688         220.723         164.149 
        0.39888         214.959         159.289 
       0.405048         210.115         154.559 
       0.411186         205.482         149.925 
       0.417313         200.952         145.379 
       0.423458         196.847         140.947 
       0.429607         192.138         136.682 
       0.435692         186.228         132.662 
       0.441815         184.902         128.843 
       0.447964         181.686         125.225 
       0.454126         173.955         121.789 
       0.460267         172.047         118.524 
       0.466387         169.556         115.393 
        0.47254         166.182         112.336 
       0.478662         164.548         109.374 
       0.484765         159.861         106.502 
       0.490885         157.316         103.704 
       0.497035         155.307         100.986 
       0.503198         151.129          98.366 
       0.509342         148.659          95.865 
       0.515458         146.572         93.4799 
       0.521598         144.562         91.1814 
       0.527764         142.375         88.9613 
       0.533884         140.106         86.8353 
           0.54         137.716         84.7784 
       0.546137         136.607         82.7729 
       0.552299         134.379         80.8159 
       0.558452         131.597         78.9205 
       0.564573         129.301         77.0937 
       0.570708         127.561         75.3224 
       0.576825         125.827         73.6149 
       0.582926         123.557         71.9689 
       0.589034         121.533         70.3764 
       0.595184         120.185         68.8261 
       0.601379         118.851         67.3144 
       0.607522         116.028         65.8604 
       0.613639          115.79         64.4535 
       0.619772         113.178         63.0822 
       0.625918           112.1         61.7469 
       0.632068         110.818         60.4493 
       0.638161         109.599         59.2012 
         0.6443         108.128         57.9806 
       0.650464         106.841         56.7911 
       0.656582         105.478         55.6444 
       0.662703         103.606           54.53 
       0.668861         102.479         53.4405 
       0.675024         101.343         52.3806 
       0.681124         100.209         51.3606 
       0.687237         98.4487          50.366 
       0.693381         97.4087         49.3931 
       0.699536         96.2917         48.4442 
       0.705665         96.6931         47.5242 
       0.711789         94.0687          46.629 
       0.717957         93.5724          45.751 
        0.72409         92.2663         44.9008 
       0.730186         90.7345         44.0779 
       0.736317         90.5616         43.2716 
       0.742472          89.521          42.483 
       0.748622         88.7089         41.7151 
        0.75476         87.7686         40.9681 
       0.760888         86.5447         40.2408 
       0.767043         85.7538         39.5285 
       0.773185         84.7753         38.8349 
       0.779291         84.1351         38.1621 
       0.785407         83.4299         37.5044 
       0.791564         82.4174         36.8581 
       0.797719         81.2554         36.2277 
       0.803834         80.9575         35.6161 
       0.809972          79.604         35.0167 
       0.816124         79.0887         34.4299 
       0.822261         78.4852         33.8584 
       0.828378         77.8303         33.3017 
       0.834502         77.0508         32.7573 
       0.840667         76.3703         32.2216 
       0.846816         75.4413         31.6996 
       0.852925         74.7942         31.1925 
       0.859047          73.856         30.6956 
       0.865192         73.5582          30.208 
       0.871341         73.0938         29.7307 
       0.877463         71.8572          29.266 
       0.883569         71.4268         28.8126 
       0.889708         71.0668         28.3665 
       0.895864         70.4298         27.9288 
       0.902008         69.8071         27.5013 
       0.908149         69.3479         27.0831 
       0.914301         68.7097          26.673 
       0.920448         68.1314         26.2719 
       0.926574         67.5562         25.8805 
       0.932687         67.1809          25.498 
       0.938823         66.1443         25.1219 
       0.944975         65.9576         24.7526 
       0.951105         65.3315         24.3921 
       0.957225         64.5294         24.0395 
       0.963368         64.4395         23.6927 
       0.969511         63.9894         23.3529 
       0.975621         63.5244         23.0216 
       0.981748         62.8379         22.6959 
       0.987916         62.4723         22.3746 
        0.99406         62.0974         22.0607 
        1.00019         61.3457         21.7536 
        1.00632         61.1066         21.4527 
        1.01246         60.5629          21.157 
        1.01859         59.8185         20.8675 
        1.02471         60.0098         20.5838 
        1.03085         59.3213         20.3044 
        1.03698         58.8023         20.0309 
        1.04314         58.2513         19.7613 
        1.04929         58.0002         19.4973 
        1.05541         57.3969         19.2393 
        1.06154         57.3448         18.9853 
        1.06769         56.8094         18.7356 
        1.07382         56.5143         18.4913 
        1.07993          56.271         18.2518 
        1.08607         55.6826         18.0157 
        1.09222          55.454         17.7836 
        1.09836         55.0392         17.5558 
        1.10449         54.6439         17.3324 
        1.11063         54.0917         17.1126 
        1.11677         53.8081         16.8967 
         1.1229         53.5813         16.6849 
        1.12903         52.8382         16.4766 
        1.13518         52.9606         16.2718 
        1.14131         52.6899         16.0705 
        1.14745          52.001         15.8728 
        1.15359         51.9362         15.6784 
        1.15973          51.365         15.4872 
        1.16584         51.0622         15.3001 
        1.17197         50.8614         15.1158 
        1.17811         50.5534          14.934 
        1.18424         50.0339         14.7558 
        1.19038         49.9537           14.58 
        1.19652         49.7033         14.4071 
        1.20267         49.3285          14.237 
        1.20881         48.9922         14.0698 
        1.21495         48.6302         13.9055 
        1.22108         48.3672         13.7439 
         1.2272         47.8876         13.5853 
        1.23334         47.7591         13.4288 
        1.23949         47.6418         13.2744 
        1.24562         47.2801          13.123 
        1.25174         47.0713         12.9741 
        1.25789          46.768         12.8271 
        1.26402         46.4013         12.6827 
        1.27014         46.0352         12.5408 
        1.27628         45.9027         12.4007 
        1.28244          45.556         12.2625 
        1.28858         45.4119         12.1266 
        1.29471         45.2179         11.9931 
        1.30084         44.9562         11.8618 
        1.30697         44.5961         11.7322 
        1.31312         44.2493         11.6044 
        1.31925         44.1851         11.4789 
        1.32537          43.947         11.3554 
        1.33151         43.6156         11.2333 
        1.33765         43.5654         11.1131 
        1.34378         43.2828         10.9948 
        1.34992         42.7855         10.8783 
        1.35606         42.6067         10.7631 
         1.3622         42.3928         10.6499 
        1.36833         42.1988         10.5386 
        1.37445         42.1585         10.4289 
        1.38059         41.8843         10.3204 
        1.38675          41.531         10.2133 
        1.39288         41.4219         10.1081 
        1.39901         41.0756         10.0044 
        1.40515          40.919           9.902 
         1.4113         40.8099         9.80105 
        1.41742         40.4032          9.7019 
        1.42355         40.3068         9.60395 
         1.4297         40.0369         9.50706 
        1.43585         39.9802         9.41156 
        1.44198         39.6674         9.31774 
        1.44809         39.4845         9.22539 
        1.45423         39.3466         9.13395 
        1.46036         39.1833         9.04393 
        1.46649         38.8941          8.9551 
        1.47263         38.7196          8.8674 
        1.47877         38.6075         8.78091 
        1.48491          38.412         8.69546 
        1.49104         38.1935         8.61133 
        1.49718         37.8422         8.52826 
        1.50333         37.8057         8.44616 
        1.50947         37.6159         8.36531 
         1.5156         37.3893         8.28565 
        1.52172         37.1734         8.20704 
        1.52787         37.1809         8.12929 
          1.534         36.8602         8.05265 
        1.54013         36.6354         7.97709 
        1.54627          36.575         7.90236 
        1.55241         36.3457         7.82859 
        1.55855          36.148         7.75586 
        1.56467         35.9092         7.68427 
         1.5708         35.8917         7.61338 
        1.57695          35.552         7.54328 
        1.58308         35.5857         7.47424 
        1.58922         35.3974         7.40601 
        1.59535         35.1507         7.33866 
         1.6015         34.9647         7.27206 
        1.60764         34.8696         7.20633 
        1.61376         34.6593         7.14159 
        1.61989         34.3875          7.0776 
        1.62604         34.3773         7.01425 
        1.63218         34.1505         6.95173 
        1.63831         34.0326         6.89011 
        1.64444         33.8952         6.82922 
        1.65059         33.6236         6.76893 
        1.65673          33.499         6.70943 
        1.66285           33.39         6.65082 
        1.66898          33.199          6.5929 
        1.67512         33.1122         6.53555 
        1.68127         32.8557         6.47884 
         1.6874         32.7793         6.42293 
        1.69353         32.6264         6.36772 
        1.69967         32.4595         6.31303 
        1.70581         32.3557         6.25901 
        1.71193         32.1892         6.20583 
        1.71806         32.0176         6.15316 
        1.72421         31.8357           6.101 
        1.73035         31.7217          6.0495 
        1.73649         31.6125         5.99862 
        1.74262         31.4232         5.94836 
        1.74876         31.4135         5.89865 
        1.75489         31.1718         5.84961 
        1.76101         31.0367         5.80115 
        1.76715         30.9123         5.75317 
        1.77329         30.8151         5.70568 
        1.77943         30.6605         5.65871 
        1.78557         30.5108         5.61234 
        1.79171         30.3898         5.56648 
        1.79785         30.2388         5.52113 
        1.80399         30.1061         5.47629 
        1.81012         30.0447         5.43202 
        1.81625         29.8693         5.38826 
        1.82239         29.8138         5.34491 
        1.82853         29.5475         5.30207 
        1.83466         29.4371         5.25974 
        1.84078          29.249         5.21792 
        1.84692         29.2293         5.17649 
        1.85306         29.0673         5.13545 
         1.8592          28.932         5.09493 
        1.86533         28.7852         5.05488 
        1.87147         28.6889          5.0152 
        1.87761         28.6665         4.97594 
        1.88375         28.4957         4.93715 
        1.88988         28.4116         4.89881 
        1.89601         28.2028         4.86087 
        1.90215         28.1491         4.82329 
        1.90829         28.0703         4.78614 
        1.91442         27.8676         4.74937 
        1.92056         27.8093         4.71303 
         1.9267          27.642         4.67703 
        1.93284         27.5087         4.64139 
        1.93897         27.4444         4.60618 
        1.94509         27.3194         4.57142 
        1.95123         27.1694         4.53693 
        1.95737         27.0784         4.50278 
        1.96349         26.9621         4.46907 
        1.96964         26.8115          4.4356 
        1.97578         26.7885         4.40246 
        1.98192         26.5896         4.36974 
        1.98805         26.5503         4.33734 
        1.99419         26.3971         4.30527 
        2.00033         26.2334         4.27351 
        2.00647         26.1609         4.24208 
         2.0126         26.0294         4.21102 
        2.01874         25.9766         4.18023 
        2.02488          25.952         4.14972 
        2.03101          25.764         4.11957 
        2.03714         25.6431         4.08975 
        2.04328         25.5228         4.06019 
        2.04941         25.4547         4.03095 
        2.05554         25.3643         4.00203 
        2.06167         25.2513         3.97334 
        2.06781         25.1583         3.94494 
        2.07396         25.0552         3.91677 
        2.08009         24.9966         3.88893 
        2.08622         24.8534         3.86139 
        2.09237         24.7625         3.83407 
        2.09851         24.6488         3.80701 
        2.10464         24.5952         3.78025 
        2.11077         24.3994         3.75378 
        2.11691         24.3892         3.72751 
        2.12305         24.2587         3.70149 
        2.12918         24.2148         3.67579 
        2.13531         24.0951         3.65032 
        2.14145         24.0119         3.62504 
         2.1476         23.8698         3.59997 
        2.15372         23.7929         3.57526 
        2.15985         23.6721         3.55077 
        2.16599         23.6121         3.52643 
        2.17213          23.548         3.50235 
        2.17827         23.3764          3.4785 
         2.1844         23.2834         3.45489 
        2.19054          23.213         3.43149 
        2.19666         23.1496         3.40835 
         2.2028         23.0875          3.3854 
        2.20893         22.9522         3.36265 
        2.21508         22.8687         3.34009 
        2.22122         22.7194         3.31772 
        2.22736         22.7093         3.29561 
        2.23349         22.5959         3.27371 
        2.23962         22.5002         3.25199 
        2.24577         22.3765         3.23045 
         2.2519          22.334         3.20914 
        2.25802         22.2562         3.18806 
        2.26417         22.1695         3.16711 
        2.27031         22.0913         3.14632 
        2.27644         22.0158         3.12579 
        2.28257         21.9114         3.10544 
        2.28872         21.7901         3.08523 
        2.29486         21.7324         3.06521 
        2.30099          21.636          3.0454 
        2.30712         21.6239         3.02577 
        2.31326         21.5094         3.00627 
         2.3194         21.3991         2.98696 
        2.32553         21.3154         2.96785 
        2.33166         21.2128         2.94892 
         2.3378          21.126         2.93013 
        2.34394         21.0792         2.91149 
        2.35007         20.9848         2.89305 
        2.35619         20.8614         2.87479 
        2.36233         20.8333         2.85664 
        2.36848         20.7251         2.83861 
        2.37462         20.6733         2.82078 
        2.38075         20.5888         2.80312 
        2.38689         20.5492         2.78559 
        2.39303         20.4119         2.76822 
        2.39916         20.3542         2.75102 
        2.40529         20.2638         2.73396 
        2.41143         20.2211         2.71704 
        2.41757          20.132         2.70025 
         2.4237         20.0373         2.68363 
        2.42983         19.9737         2.66716 
        2.43598         19.9034         2.65078 
        2.44211         19.8077         2.63457 
        2.44823         19.7188         2.61853 
        2.45437          19.671         2.60258 
        2.46052         19.6064         2.58675 
        2.46665         19.5525         2.57108 
        2.47279         19.4508         2.55554 
        2.47892         19.3995         2.54013 
        2.48507         19.3185         2.52483 
         2.4912          19.248         2.50968 
