# k  (h/Mpc)    Pcb(k)  (Mpc/h)^3    Pcb_linear(k)  (Mpc/h)^3
     0.00783031         14232.3         14437.4 
       0.013688         18754.5           18598 
       0.019231         19484.7         19482.6 
      0.0249154         18173.2         18605.6 
      0.0312784           16392           16643 
      0.0375637         14457.1         14538.4 
      0.0433917         12537.1         12857.9 
      0.0492413         11399.1         11564.5 
      0.0555754         10147.2         10566.1 
      0.0619321          9758.2         9838.55 
       0.067871         8892.09         9255.76 
      0.0738098          8305.3         8655.61 
      0.0800417         7522.26         7953.86 
      0.0862327         6899.63         7198.05 
      0.0921407         6327.71         6477.85 
      0.0982031         5657.42         5805.17 
       0.104506         5277.01         5227.53 
       0.110769         4851.24         4793.56 
       0.116806         4541.14         4492.37 
       0.122832         4325.51         4271.46 
       0.129052         4035.21         4082.75 
       0.135211         3856.13         3895.57 
       0.141259         3715.54            3688 
       0.147318         3521.69         3452.25 
       0.153489         3238.99         3195.83 
       0.159709         3064.45         2942.39 
       0.165845         2945.09         2717.81 
       0.171974         2768.55         2531.63 
       0.178125          2629.2         2385.83 
       0.184229          2514.8         2275.64 
        0.19034         2386.06         2188.02 
       0.196428         2346.66         2109.95 
       0.202534         2263.64         2029.72 
       0.208729         2172.15         1939.81 
       0.214876         2088.73         1841.55 
       0.220989         2022.08         1739.14 
       0.227147         1935.64         1637.92 
        0.23329         1860.28         1545.27 
       0.239377         1833.75          1465.7 
       0.245482         1722.18          1399.2 
       0.251667         1714.36         1343.69 
       0.257832         1649.29         1296.53 
       0.263955         1597.57         1253.58 
       0.270079         1546.96         1210.91 
        0.27624         1531.61         1166.09 
       0.282372         1468.53         1119.29 
        0.28843         1464.32         1071.92 
       0.294538         1394.58         1024.94 
       0.300721         1387.02         980.139 
        0.30691         1334.75         939.504 
       0.313033         1309.08         903.962 
       0.319153         1290.89         872.679 
       0.325316         1248.29         844.451 
        0.33145         1222.37         818.324 
       0.337538         1202.76         793.178 
       0.343633         1177.57         768.039 
       0.349808         1140.63         742.315 
       0.355968         1133.17         716.631 
       0.362074         1122.84         691.618 
       0.368217         1088.51         667.517 
       0.374374         1050.11         644.859 
       0.380519         1052.26         623.981 
       0.386598         1024.63         604.991 
       0.392688         1020.76         587.349 
        0.39888         992.456         570.478 
       0.405048         981.657         554.341 
       0.411186         967.988         538.645 
       0.417313         948.033         523.226 
       0.423458         933.302          507.98 
       0.429607         920.947         493.062 
       0.435692          903.62         478.803 
       0.441815          897.52         465.071 
       0.447964         878.514         451.995 
       0.454126         871.318         439.636 
       0.460267         851.466          427.98 
       0.466387         841.017         416.911 
        0.47254         836.084         406.229 
       0.478662         828.077         395.938 
       0.484765         806.506         385.935 
       0.490885         801.766         376.142 
       0.497035         784.755         366.563 
       0.503198         780.763         357.252 
       0.509342         771.915         348.283 
       0.515458         768.562           339.7 
       0.521598          750.78         331.446 
       0.527764         736.207         323.497 
       0.533884         735.891          315.91 
           0.54         728.364         308.598 
       0.546137         722.334         301.499 
       0.552299         712.994         294.583 
       0.558452         708.024         287.866 
       0.564573         698.486         281.361 
       0.570708         691.781         275.025 
       0.576825         673.014         268.902 
       0.582926         676.752         262.992 
       0.589034         670.374         257.266 
       0.595184         664.006         251.689 
       0.601379         655.365         246.255 
       0.607522         646.374          241.04 
       0.613639         647.476         236.005 
       0.619772          632.81         231.103 
       0.625918         629.217         226.326 
       0.632068         621.821         221.673 
       0.638161         619.769         217.186 
         0.6443         608.437         212.789 
       0.650464         607.022         208.499 
       0.656582         603.137         204.365 
       0.662703         600.068         200.347 
       0.668861         589.802         196.419 
       0.675024          585.32         192.597 
       0.681124         582.003         188.917 
       0.687237          577.29         185.328 
       0.693381         570.384         181.816 
       0.699536         561.029          178.39 
       0.705665         561.324         175.067 
       0.711789         557.454         171.833 
       0.717957         552.499         168.659 
        0.72409         549.587         165.583 
       0.730186         541.799         162.603 
       0.736317         538.754         159.682 
       0.742472         536.243         156.823 
       0.748622         530.353         154.038 
        0.75476         522.728         151.328 
       0.760888         518.338         148.689 
       0.767043         518.329         146.104 
       0.773185          513.07         143.586 
       0.779291          508.28         141.143 
       0.785407         504.205         138.755 
       0.791564          498.93         136.407 
       0.797719         496.751         134.115 
       0.803834         492.232         131.891 
       0.809972         490.089          129.71 
       0.816124          489.16         127.574 
       0.822261          481.85         125.493 
       0.828378         479.505         123.465 
       0.834502         474.551         121.481 
       0.840667         470.895         119.528 
       0.846816         468.786         117.624 
       0.852925         464.907         115.775 
       0.859047         464.059         113.961 
       0.865192         458.318         112.181 
       0.871341         454.497         110.439 
       0.877463         453.903         108.742 
       0.883569         449.424         107.085 
       0.889708         446.912         105.455 
       0.895864         444.423         103.855 
       0.902008         440.986         102.291 
       0.908149         436.356         100.762 
       0.914301          433.69         99.2613 
       0.920448         431.405         97.7932 
       0.926574         424.838         96.3602 
       0.932687         424.948         94.9594 
       0.938823         420.521         93.5817 
       0.944975         420.883         92.2284 
       0.951105         415.459         90.9071 
       0.957225         412.868         89.6143 
       0.963368         408.821         88.3426 
       0.969511           407.5         87.0958 
       0.975621         404.806           85.88 
       0.981748         402.921         84.6847 
       0.987916         400.356         83.5048 
        0.99406         393.709         82.3522 
        1.00019          392.96         81.2239 
        1.00632         391.008          80.118 
        1.01246         387.881         79.0313 
        1.01859         388.128         77.9667 
        1.02471         382.552         76.9234 
        1.03085         380.909         75.8958 
        1.03698         379.558         74.8893 
        1.04314         376.036         73.8971 
        1.04929          372.06         72.9253 
        1.05541         372.974         71.9752 
        1.06154         367.135         71.0398 
        1.06769         365.511         70.1198 
        1.07382         363.368         69.2193 
        1.07993         361.228         68.3369 
        1.08607          360.13         67.4663 
        1.09222         356.717         66.6102 
        1.09836         354.508         65.7701 
        1.10449         351.293         64.9456 
        1.11063         347.684         64.1346 
        1.11677         348.262         63.3377 
         1.1229         345.922          62.556 
        1.12903         343.116         61.7869 
        1.13518         339.785         61.0302 
        1.14131         338.554         60.2867 
        1.14745          336.25         59.5561 
        1.15359         334.247         58.8376 
        1.15973         332.146         58.1308 
        1.16584         329.808         57.4389 
        1.17197         329.281         56.7574 
        1.17811         325.781         56.0849 
        1.18424         323.125         55.4254 
        1.19038         321.871         54.7747 
        1.19652         319.652         54.1348 
        1.20267         318.375         53.5053 
        1.20881          316.65          52.886 
        1.21495         313.982         52.2776 
        1.22108         312.351         51.6789 
         1.2272         310.182         51.0911 
        1.23334         308.259         50.5112 
        1.23949         306.383         49.9391 
        1.24562         305.173         49.3775 
        1.25174         302.581         48.8254 
        1.25789         300.048         48.2802 
        1.26402          298.29         47.7444 
        1.27014         296.411         47.2181 
        1.27628         294.879         46.6983 
        1.28244         294.498         46.1853 
        1.28858          291.26         45.6809 
        1.29471         289.337         45.1851 
        1.30084         287.897         44.6973 
        1.30697         286.103         44.2159 
        1.31312         283.233         43.7411 
        1.31925         282.733         43.2747 
        1.32537         281.597         42.8157 
        1.33151         278.682         42.3618 
        1.33765         276.784         41.9147 
        1.34378         275.861         41.4751 
        1.34992         274.104         41.0415 
        1.35606          273.22         40.6132 
         1.3622         271.018         40.1918 
        1.36833         268.917         39.7775 
        1.37445         267.692         39.3693 
        1.38059         265.234         38.9656 
        1.38675         264.297         38.5667 
        1.39288         262.695          38.175 
        1.39901         261.803         37.7889 
        1.40515         259.801         37.4074 
         1.4113         258.374         37.0313 
        1.41742          256.37         36.6619 
        1.42355         255.015         36.2968 
         1.4297         253.134         35.9357 
        1.43585         251.867         35.5797 
        1.44198         250.626         35.2299 
        1.44809         248.976         34.8854 
        1.45423         247.306         34.5444 
        1.46036           246.2         34.2086 
        1.46649         244.166         33.8771 
        1.47263         242.837         33.5499 
        1.47877         241.348         33.2271 
        1.48491         239.524         32.9081 
        1.49104         238.729          32.594 
        1.49718         236.771         32.2838 
        1.50333         235.791         31.9772 
        1.50947         234.341         31.6753 
         1.5156         232.265         31.3777 
        1.52172         231.559         31.0839 
        1.52787         229.771         30.7934 
          1.534         229.024          30.507 
        1.54013         226.845         30.2245 
        1.54627         226.081         29.9451 
        1.55241         224.568         29.6693 
        1.55855         223.055         29.3973 
        1.56467           221.8         29.1296 
         1.5708         221.315         28.8644 
        1.57695         219.381         28.6022 
        1.58308         218.252         28.3438 
        1.58922         215.936         28.0885 
        1.59535         214.659         27.8365 
         1.6015         214.284         27.5872 
        1.60764         212.781         27.3411 
        1.61376         211.481         27.0987 
        1.61989         210.363         26.8591 
        1.62604         209.041         26.6219 
        1.63218         207.916         26.3877 
        1.63831          206.43         26.1568 
        1.64444         205.719         25.9287 
        1.65059         204.211         25.7028 
        1.65673         202.971         25.4798 
        1.66285         201.686         25.2601 
        1.66898         200.413         25.0429 
        1.67512         200.003         24.8279 
        1.68127         197.702         24.6152 
         1.6874         196.867         24.4056 
        1.69353         195.765         24.1985 
        1.69967         194.338         23.9933 
        1.70581         193.575         23.7906 
        1.71193         192.125         23.5911 
        1.71806         191.539         23.3934 
        1.72421         189.958         23.1976 
        1.73035         189.278         23.0043 
        1.73649         188.131         22.8133 
        1.74262         186.915         22.6246 
        1.74876         185.755         22.4379 
        1.75489         184.608         22.2538 
        1.76101         183.357         22.0717 
        1.76715         182.734         21.8915 
        1.77329         181.663         21.7131 
        1.77943         180.752         21.5366 
        1.78557         179.625         21.3623 
        1.79171         178.609           21.19 
        1.79785         177.241         21.0195 
        1.80399         176.355          20.851 
        1.81012         175.338         20.6845 
        1.81625         174.625           20.52 
        1.82239         173.303          20.357 
        1.82853         172.802         20.1959 
        1.83466         171.391         20.0367 
        1.84078         170.739         19.8794 
        1.84692         169.033         19.7235 
        1.85306         168.798         19.5691 
         1.8592         167.567         19.4166 
        1.86533         166.774         19.2659 
        1.87147         165.489         19.1166 
        1.87761         164.824         18.9688 
        1.88375         163.328         18.8228 
        1.88988         162.315         18.6784 
        1.89601         161.946         18.5355 
        1.90215         160.735          18.394 
        1.90829         159.949         18.2541 
        1.91442         158.991         18.1156 
        1.92056         158.261         17.9786 
         1.9267         157.173          17.843 
        1.93284          156.21         17.7087 
        1.93897         155.536          17.576 
        1.94509         154.686          17.445 
        1.95123           153.9          17.315 
        1.95737         153.107         17.1862 
        1.96349         152.138         17.0591 
        1.96964         151.042         16.9329 
        1.97578         150.239          16.808 
        1.98192         149.524         16.6846 
        1.98805         148.506         16.5624 
        1.99419         147.704         16.4414 
        2.00033         146.915         16.3216 
        2.00647         146.236          16.203 
         2.0126         144.949         16.0858 
        2.01874         144.565         15.9696 
        2.02488         143.913         15.8544 
        2.03101         142.506         15.7406 
        2.03714         142.063         15.6281 
        2.04328         141.098         15.5165 
        2.04941         140.557         15.4061 
        2.05554         139.478         15.2969 
        2.06167          139.07         15.1885 
        2.06781         138.171         15.0813 
        2.07396         137.224         14.9749 
        2.08009          136.82         14.8697 
        2.08622         135.702         14.7657 
        2.09237         134.989         14.6624 
        2.09851         134.355         14.5602 
        2.10464         133.913         14.4591 
        2.11077         133.013          14.359 
        2.11691         132.324         14.2597 
        2.12305         131.234         14.1614 
        2.12918         130.595         14.0642 
        2.13531         130.122          13.968 
        2.14145         129.084         13.8724 
         2.1476         128.153         13.7776 
        2.15372         128.016         13.6841 
        2.15985         127.521         13.5915 
        2.16599         126.309         13.4994 
        2.17213         125.705         13.4083 
        2.17827         125.068         13.3181 
         2.1844         124.265         13.2288 
        2.19054           123.8         13.1403 
        2.19666         122.955         13.0527 
         2.2028         122.237         12.9658 
        2.20893         121.829         12.8797 
        2.21508          121.03         12.7943 
        2.22122         120.354         12.7097 
        2.22736         119.709         12.6259 
        2.23349         119.115          12.543 
        2.23962         118.376         12.4608 
        2.24577         117.829         12.3792 
         2.2519         117.335         12.2985 
        2.25802         116.416         12.2186 
        2.26417         115.906         12.1393 
        2.27031         115.028         12.0605 
        2.27644         114.597         11.9827 
        2.28257         113.869         11.9056 
        2.28872         113.485         11.8291 
        2.29486         112.719         11.7532 
        2.30099          112.15         11.6781 
        2.30712          111.55         11.6037 
        2.31326         110.895         11.5298 
         2.3194         110.323         11.4566 
        2.32553         109.762         11.3842 
        2.33166         109.271         11.3124 
         2.3378         108.781         11.2411 
        2.34394         108.197         11.1705 
        2.35007         107.392         11.1005 
        2.35619         106.945         11.0312 
        2.36233         106.348         10.9624 
        2.36848         105.763          10.894 
        2.37462         105.396         10.8264 
        2.38075         104.631         10.7593 
        2.38689         104.129         10.6928 
        2.39303         103.459         10.6269 
        2.39916         103.148         10.5616 
        2.40529         102.705         10.4969 
        2.41143         102.054         10.4326 
        2.41757         101.461         10.3689 
         2.4237         100.807         10.3058 
        2.42983         100.204         10.2433 
        2.43598         99.7328         10.1811 
        2.44211         99.4737         10.1196 
        2.44823          98.932         10.0586 
        2.45437         98.2523         9.99807 
        2.46052          97.619         9.93794 
        2.46665         97.2273         9.87842 
        2.47279         96.7674         9.81941 
        2.47892         96.2472         9.76085 
        2.48507         95.7168         9.70271 
         2.4912         95.3405         9.64516 
