# k  (h/Mpc)    Pcb(k)  (Mpc/h)^3    Pcb_linear(k)  (Mpc/h)^3
     0.00783031         7619.19         7713.64 
       0.013688         9991.07         9938.82 
       0.019231         10420.1         10412.6 
      0.0249154         9787.19          9944.5 
      0.0312784         8820.02         8895.88 
      0.0375637         7761.83          7771.2 
      0.0433917          6772.2         6873.02 
      0.0492413         6139.92         6181.73 
      0.0555754          5511.4          5648.1 
      0.0619321         5258.72         5259.23 
       0.067871         4835.46         4947.72 
      0.0738098         4515.48         4626.93 
      0.0800417         4107.83         4251.82 
      0.0862327         3754.21         3847.81 
      0.0921407         3419.21         3462.82 
      0.0982031         3051.91         3103.24 
       0.104506         2820.57         2794.46 
       0.110769          2588.4         2562.48 
       0.116806          2411.5         2401.47 
       0.122832         2304.34         2283.39 
       0.129052         2162.12         2182.51 
       0.135211         2065.35         2082.45 
       0.141259         1980.58         1971.49 
       0.147318         1870.29         1845.47 
       0.153489          1720.5          1708.4 
       0.159709         1615.11         1572.91 
       0.165845         1533.32         1452.86 
       0.171974         1430.41         1353.34 
       0.178125         1356.49         1275.39 
       0.184229         1301.64         1216.49 
        0.19034         1223.35         1169.65 
       0.196428         1205.21         1127.92 
       0.202534         1169.58         1085.03 
       0.208729         1115.58         1036.97 
       0.214876         1059.45         984.442 
       0.220989         1025.77         929.695 
       0.227147         968.986          875.59 
        0.23329         927.536         826.059 
       0.239377         905.425         783.524 
       0.245482         845.967         747.976 
       0.251667         838.038         718.302 
       0.257832         808.941         693.091 
       0.263955         783.565         670.131 
       0.270079         757.708         647.318 
        0.27624         749.177         623.363 
       0.282372         717.855         598.345 
        0.28843         701.005         573.022 
       0.294538         667.726         547.905 
       0.300721         663.412         523.956 
        0.30691         633.113         502.234 
       0.313033         620.383         483.234 
       0.319153         601.657         466.511 
       0.325316         584.459         451.421 
        0.33145         568.513         437.455 
       0.337538         561.773         424.012 
       0.343633         544.382         410.573 
       0.349808         527.289         396.822 
       0.355968         522.381         383.093 
       0.362074         511.863         369.721 
       0.368217         498.125         356.837 
       0.374374          479.27         344.725 
       0.380519         474.604         333.564 
       0.386598         463.537         323.413 
       0.392688          460.47         313.982 
        0.39888         447.524         304.963 
       0.405048          438.92         296.336 
       0.411186         430.476         287.946 
       0.417313         422.935         279.703 
       0.423458         415.585         271.553 
       0.429607         406.903         263.578 
       0.435692         397.219         255.956 
       0.441815         394.576         248.615 
       0.447964         387.001         241.625 
       0.454126         374.339         235.018 
       0.460267         369.923         228.787 
       0.466387         365.799          222.87 
        0.47254         358.288          217.16 
       0.478662         356.945         211.659 
       0.484765         346.692         206.311 
       0.490885         342.666         201.076 
       0.497035         337.269         195.955 
       0.503198         330.435         190.978 
       0.509342          327.76         186.183 
       0.515458         323.916         181.595 
       0.521598         318.425         177.183 
       0.527764         312.984         172.933 
       0.533884         309.975         168.877 
           0.54         305.805         164.968 
       0.546137         304.515         161.174 
       0.552299         298.517         157.477 
       0.558452         295.499         153.886 
       0.564573          290.78         150.408 
       0.570708         285.936         147.022 
       0.576825         282.116         143.748 
       0.582926         279.233         140.589 
       0.589034          275.98         137.528 
       0.595184         273.424         134.547 
       0.601379         270.832         131.642 
       0.607522         265.698         128.854 
       0.613639          264.66         126.162 
       0.619772         258.555         123.542 
       0.625918          257.08         120.988 
       0.632068         253.785         118.501 
       0.638161         252.675         116.102 
         0.6443         248.485         113.751 
       0.650464          246.28         111.459 
       0.656582         244.748         109.248 
       0.662703         242.037           107.1 
       0.668861          238.28         105.001 
       0.675024         235.787         102.957 
       0.681124         234.903          100.99 
       0.687237          231.38         99.0716 
       0.693381         228.241         97.1942 
       0.699536         226.665         95.3626 
       0.705665         226.014         93.5865 
       0.711789         222.176         91.8575 
       0.717957         221.172         90.1607 
        0.72409           218.6         88.5165 
       0.730186         215.673         86.9237 
       0.736317         214.138         85.3619 
       0.742472         213.054         83.8335 
       0.748622         211.421         82.3447 
        0.75476         209.672         80.8961 
       0.760888          206.76         79.4853 
       0.767043         206.016         78.1033 
       0.773185         203.774         76.7575 
       0.779291         200.534         75.4517 
       0.785407         199.893         74.1747 
       0.791564          198.08         72.9195 
       0.797719         195.708         71.6944 
       0.803834         194.848         70.5055 
       0.809972         192.814         69.3396 
       0.816124         192.898         68.1979 
       0.822261         190.106         67.0853 
       0.828378          188.58         66.0012 
       0.834502         188.359         64.9405 
       0.840667         185.397         63.8966 
       0.846816         184.285         62.8789 
       0.852925         183.018         61.8901 
       0.859047         181.196         60.9208 
       0.865192         180.167         59.9694 
       0.871341         178.298         59.0379 
       0.877463         177.208         58.1306 
       0.883569         175.802          57.245 
       0.889708         174.623         56.3735 
       0.895864         172.776         55.5181 
       0.902008         171.942         54.6824 
       0.908149         171.127         53.8647 
       0.914301         169.276         53.0626 
       0.920448         168.143         52.2778 
       0.926574         167.295         51.5118 
       0.932687         166.451         50.7629 
       0.938823         164.438         50.0264 
       0.944975         163.135          49.303 
       0.951105         162.412         48.5967 
       0.957225         160.506         47.9056 
       0.963368         159.344         47.2257 
       0.969511         158.802         46.5592 
       0.975621         158.029         45.9093 
       0.981748         157.251         45.2703 
       0.987916         155.347         44.6396 
        0.99406         154.644         44.0234 
        1.00019         153.866         43.4202 
        1.00632         152.647         42.8291 
        1.01246         151.673         42.2481 
        1.01859         150.212         41.6791 
        1.02471         149.918         41.1213 
        1.03085         148.367          40.572 
        1.03698         147.354          40.034 
        1.04314         146.316         39.5035 
        1.04929         145.361         38.9841 
        1.05541          144.65         38.4761 
        1.06154         143.674         37.9761 
        1.06769         143.483         37.4843 
        1.07382         142.536         37.0029 
        1.07993          141.39         36.5312 
        1.08607         140.312         36.0658 
        1.09222         139.651         35.6081 
        1.09836         138.496         35.1591 
        1.10449          137.63         34.7183 
        1.11063         136.847         34.2847 
        1.11677         136.354         33.8588 
         1.1229          134.84         33.4409 
        1.12903         134.088         33.0297 
        1.13518         134.186         32.6252 
        1.14131         132.775         32.2278 
        1.14745         132.037         31.8372 
        1.15359         131.158         31.4531 
        1.15973         130.866         31.0753 
        1.16584         129.675         30.7054 
        1.17197         128.978         30.3411 
        1.17811         128.247         29.9816 
        1.18424         127.442          29.629 
        1.19038         126.873         29.2812 
        1.19652         126.126         28.9391 
        1.20267         125.234         28.6026 
        1.20881         124.479         28.2715 
        1.21495           123.7         27.9463 
        1.22108         123.093         27.6262 
         1.2272         122.214          27.312 
        1.23334         121.622          27.002 
        1.23949          120.38         26.6962 
        1.24562         120.284          26.396 
        1.25174         119.193         26.1008 
        1.25789         118.725         25.8094 
        1.26402         118.283          25.523 
        1.27014         117.306         25.2416 
        1.27628         116.895         24.9637 
        1.28244          116.08         24.6895 
        1.28858         115.583         24.4198 
        1.29471         114.648         24.1548 
        1.30084           114.1          23.894 
        1.30697         113.475         23.6367 
        1.31312         113.122         23.3829 
        1.31925         112.266         23.1336 
        1.32537          111.87         22.8882 
        1.33151         110.749         22.6455 
        1.33765         110.276         22.4066 
        1.34378         109.568         22.1715 
        1.34992          109.46         21.9397 
        1.35606         108.716         21.7108 
         1.3622         107.819         21.4855 
        1.36833         107.535         21.2641 
        1.37445          106.73         21.0459 
        1.38059         106.254         20.8301 
        1.38675         105.513         20.6168 
        1.39288         104.989         20.4074 
        1.39901         104.761          20.201 
        1.40515         104.174         19.9971 
         1.4113         103.122          19.796 
        1.41742         103.089         19.5985 
        1.42355         102.212         19.4034 
         1.4297         101.712         19.2103 
        1.43585         101.028           19.02 
        1.44198         100.777          18.833 
        1.44809         100.025         18.6489 
        1.45423          99.435         18.4666 
        1.46036         99.1667         18.2871 
        1.46649         98.5957         18.1099 
        1.47263          98.113         17.9349 
        1.47877         97.7304         17.7624 
        1.48491         97.0152         17.5919 
        1.49104         96.5119          17.424 
        1.49718         95.9777         17.2581 
        1.50333          95.457         17.0942 
        1.50947         94.8274         16.9328 
         1.5156         94.6312         16.7737 
        1.52172         93.9247         16.6167 
        1.52787         93.7647         16.4614 
          1.534         93.2032         16.3083 
        1.54013         92.4522         16.1573 
        1.54627         92.0302         16.0079 
        1.55241         91.5646         15.8605 
        1.55855         91.2319         15.7151 
        1.56467          90.597         15.5719 
         1.5708         90.1748         15.4302 
        1.57695         89.9441           15.29 
        1.58308         89.0489         15.1519 
        1.58922          88.994         15.0154 
        1.59535         88.5987         14.8807 
         1.6015         87.9484         14.7474 
        1.60764         87.5818         14.6159 
        1.61376         87.0814         14.4863 
        1.61989         86.6516         14.3582 
        1.62604         86.2255         14.2314 
        1.63218         85.9803         14.1062 
        1.63831         85.3611         13.9828 
        1.64444         84.9753         13.8608 
        1.65059         84.2973         13.7401 
        1.65673         83.9954         13.6209 
        1.66285         83.6666         13.5034 
        1.66898         83.1862         13.3873 
        1.67512         82.6487         13.2724 
        1.68127         82.2599         13.1587 
         1.6874         81.9162         13.0466 
        1.69353         81.5427         12.9359 
        1.69967         81.0148         12.8262 
        1.70581         80.8198         12.7179 
        1.71193         80.5031         12.6112 
        1.71806         79.7701         12.5055 
        1.72421         79.6167         12.4009 
        1.73035         79.1114         12.2975 
        1.73649         78.6876         12.1954 
        1.74262         78.3909         12.0945 
        1.74876         77.9981         11.9948 
        1.75489         77.4769         11.8963 
        1.76101         77.2234          11.799 
        1.76715         76.7703         11.7027 
        1.77329         76.4561         11.6073 
        1.77943         76.0263         11.5129 
        1.78557         75.7379         11.4198 
        1.79171          75.291         11.3276 
        1.79785          75.067         11.2365 
        1.80399         74.6012         11.1464 
        1.81012         74.3513         11.0574 
        1.81625         73.7684         10.9695 
        1.82239         73.4205         10.8824 
        1.82853         73.0962         10.7962 
        1.83466         72.7478         10.7111 
        1.84078         72.3018          10.627 
        1.84692         71.9582         10.5437 
        1.85306         71.6962         10.4612 
         1.8592         71.1352         10.3797 
        1.86533         70.9152         10.2991 
        1.87147         70.4882         10.2193 
        1.87761         70.2041         10.1402 
        1.88375         69.9946         10.0622 
        1.88988         69.7236         9.98502 
        1.89601         69.1804         9.90863 
        1.90215         68.9196         9.83299 
        1.90829         68.6929         9.75817 
        1.91442         68.2093         9.68413 
        1.92056         67.8459         9.61094 
         1.9267         67.5381         9.53843 
        1.93284         67.1297         9.46663 
        1.93897         66.8356         9.39571 
        1.94509         66.3663         9.32567 
        1.95123          66.243         9.25617 
        1.95737         66.0293         9.18734 
        1.96349         65.6178         9.11939 
        1.96964         65.3558         9.05194 
        1.97578         64.9838         8.98514 
        1.98192         64.7293         8.91915 
        1.98805         64.5084         8.85383 
        1.99419         64.0299         8.78916 
        2.00033         63.7635         8.72511 
        2.00647         63.5174         8.66172 
         2.0126         63.0588         8.59907 
        2.01874         62.7641         8.53695 
        2.02488         62.6403         8.47539 
        2.03101         62.2534         8.41456 
        2.03714         61.8859         8.35438 
        2.04328          61.631         8.29473 
        2.04941          61.271         8.23572 
        2.05554          60.902         8.17732 
        2.06167         60.8475         8.11942 
        2.06781         60.5029         8.06207 
        2.07396         60.1019         8.00519 
        2.08009          59.926         7.94897 
        2.08622         59.5316         7.89336 
        2.09237         59.2994         7.83817 
        2.09851         59.0545         7.78351 
        2.10464           58.72         7.72945 
        2.11077         58.4736         7.67599 
        2.11691         58.1384         7.62291 
        2.12305         57.8154         7.57033 
        2.12918          57.538         7.51838 
        2.13531         57.3015         7.46692 
        2.14145         57.0417         7.41583 
         2.1476         56.8455         7.36515 
        2.15372         56.4942         7.31521 
        2.15985         56.2262         7.26568 
        2.16599          56.005         7.21647 
        2.17213         55.8074         7.16777 
        2.17827         55.4631         7.11954 
         2.1844         55.0612         7.07179 
        2.19054         54.8497         7.02447 
        2.19666         54.6888         6.97765 
         2.2028         54.4961         6.93122 
        2.20893         54.2239         6.88519 
        2.21508         53.9826         6.83953 
        2.22122         53.6981         6.79427 
        2.22736         53.4101         6.74952 
        2.23349         53.2324         6.70518 
        2.23962         52.8425         6.66123 
        2.24577         52.5975         6.61763 
         2.2519         52.3892         6.57448 
        2.25802         52.2504         6.53179 
        2.26417         51.9076         6.48936 
        2.27031         51.7081         6.44727 
        2.27644          51.321         6.40568 
        2.28257         51.2106         6.36446 
        2.28872         50.8508         6.32353 
        2.29486         50.6513         6.28297 
        2.30099         50.4834         6.24285 
        2.30712         50.2242         6.20307 
        2.31326         49.9843         6.16356 
         2.3194         49.7177         6.12443 
        2.32553         49.5281          6.0857 
        2.33166         49.2549         6.04732 
         2.3378         48.9433         6.00923 
        2.34394         48.6389         5.97145 
        2.35007         48.4738         5.93406 
        2.35619          48.401         5.89703 
        2.36233         48.2234         5.86023 
        2.36848         47.7788         5.82367 
        2.37462          47.694          5.7875 
        2.38075         47.4144         5.75168 
        2.38689         47.2935         5.71613 
        2.39303         47.0737         5.68089 
        2.39916         46.8487         5.64598 
        2.40529         46.5426         5.61137 
        2.41143         46.3471         5.57703 
        2.41757         46.1639         5.54297 
         2.4237         45.9872         5.50925 
        2.42983         45.7317         5.47582 
        2.43598         45.4618         5.44257 
        2.44211         45.3128         5.40966 
        2.44823         45.0574          5.3771 
        2.45437          44.887         5.34472 
        2.46052         44.5837         5.31258 
        2.46665         44.4555         5.28076 
        2.47279         44.2734         5.24922 
        2.47892         44.0193         5.21791 
        2.48507         43.8423         5.18683 
         2.4912         43.6729         5.15607 
