# k  (h/Mpc)    Pcb(k)  (Mpc/h)^3    Pcb_linear(k)  (Mpc/h)^3
     0.00783031         13132.4         13317.6 
       0.013688           17293         17156.1 
       0.019231         17976.6         17972.3 
      0.0249154         16784.4         17163.4 
      0.0312784         15137.8         15353.1 
      0.0375637         13346.6         13411.7 
      0.0433917         11584.6         11861.4 
      0.0492413         10528.6         10668.3 
      0.0555754         9384.11         9747.28 
      0.0619321         9014.47         9076.12 
       0.067871          8225.3         8538.49 
      0.0738098         7682.02         7984.86 
      0.0800417         6962.21         7337.49 
      0.0862327         6382.43         6640.26 
      0.0921407         5847.24         5975.87 
      0.0982031         5225.78         5355.32 
       0.104506         4868.24         4822.45 
       0.110769         4473.94          4422.1 
       0.116806         4184.36         4144.25 
       0.122832         3987.79         3940.46 
       0.129052         3722.77         3766.38 
       0.135211         3557.94          3593.7 
       0.141259         3425.69         3402.22 
       0.147318         3244.88         3184.73 
       0.153489         2984.13         2948.19 
       0.159709         2820.65         2714.38 
       0.165845         2705.57         2507.21 
       0.171974         2540.96         2335.45 
       0.178125         2412.18         2200.95 
       0.184229         2309.05          2099.3 
        0.19034         2185.85         2018.47 
       0.196428         2151.26         1946.45 
       0.202534         2077.37         1872.43 
       0.208729         1991.28         1789.49 
       0.214876         1910.98         1698.85 
       0.220989         1850.25         1604.37 
       0.227147         1767.86            1511 
        0.23329         1698.09         1425.53 
       0.239377         1671.79         1352.12 
       0.245482         1568.26         1290.78 
       0.251667         1560.51         1239.57 
       0.257832         1501.56         1196.06 
       0.263955         1454.69         1156.44 
       0.270079         1408.05         1117.07 
        0.27624         1394.64         1075.73 
       0.282372         1336.44         1032.56 
        0.28843          1329.2         988.861 
       0.294538         1264.97         945.516 
       0.300721         1258.97         904.189 
        0.30691         1209.33         866.702 
       0.313033         1186.53         833.915 
       0.319153         1167.25         805.056 
       0.325316         1129.25         779.015 
        0.33145         1104.87         754.913 
       0.337538         1088.14         731.715 
       0.343633         1063.29         708.524 
       0.349808         1029.32         684.793 
       0.355968          1023.1           661.1 
       0.362074         1012.49         638.025 
       0.368217         982.169         615.792 
       0.374374         945.815          594.89 
       0.380519         946.787         575.629 
       0.386598         922.563         558.111 
       0.392688         919.573         541.836 
        0.39888         893.323         526.272 
       0.405048         882.329         511.385 
       0.411186         869.958         496.906 
       0.417313         852.185         482.681 
       0.423458         838.965         468.617 
       0.429607         826.994         454.855 
       0.435692          810.58         441.701 
       0.441815         805.301         429.033 
       0.447964         788.203         416.971 
       0.454126         779.658         405.569 
       0.460267         762.789         394.816 
       0.466387         754.106         384.605 
        0.47254         746.943         374.751 
       0.478662         741.572         365.258 
       0.484765          721.23         356.029 
       0.490885         716.642         346.995 
       0.497035         701.877         338.158 
       0.503198         697.391         329.569 
       0.509342         690.091         321.295 
       0.515458         686.335         313.377 
       0.521598         670.462         305.763 
       0.527764         657.234         298.429 
       0.533884         656.814          291.43 
           0.54         649.221         284.685 
       0.546137         645.217         278.136 
       0.552299          635.54         271.756 
       0.558452         631.824          265.56 
       0.564573         622.889         259.559 
       0.570708          616.44         253.714 
       0.576825         599.831         248.065 
       0.582926         602.449         242.613 
       0.589034         596.997         237.331 
       0.595184         591.301         232.186 
       0.601379         583.637         227.173 
       0.607522         575.611         222.362 
       0.613639         576.183         217.717 
       0.619772         562.317         213.195 
       0.625918         560.115         208.788 
       0.632068         552.907         204.496 
       0.638161         551.133         200.356 
         0.6443         540.815           196.3 
       0.650464         538.944         192.343 
       0.656582         536.158         188.529 
       0.662703         533.184         184.822 
       0.668861         523.878         181.199 
       0.675024         520.068         177.673 
       0.681124         516.891         174.278 
       0.687237         512.458         170.967 
       0.693381         506.201         167.727 
       0.699536         498.679         164.566 
       0.705665         498.073         161.501 
       0.711789         494.631         158.518 
       0.717957         490.276          155.59 
        0.72409         487.329         152.752 
       0.730186         480.942         150.003 
       0.736317         477.664         147.308 
       0.742472         475.739         144.671 
       0.748622         470.286         142.102 
        0.75476         464.214         139.602 
       0.760888         459.723         137.167 
       0.767043         460.413         134.782 
       0.773185         454.949          132.46 
       0.779291         450.192         130.206 
       0.785407          447.38         128.003 
       0.791564         442.305         125.837 
       0.797719         440.047         123.722 
       0.803834           436.3         121.671 
       0.809972         434.525         119.659 
       0.816124         433.896         117.689 
       0.822261         427.325         115.769 
       0.828378         425.212         113.898 
       0.834502         421.127         112.067 
       0.840667         417.409         110.266 
       0.846816         415.759          108.51 
       0.852925         412.221         106.803 
       0.859047         411.142         105.131 
       0.865192         406.386         103.489 
       0.871341         403.167         101.881 
       0.877463         401.966         100.315 
       0.883569         398.725         98.7871 
       0.889708         395.886         97.2832 
       0.895864         392.951          95.807 
       0.902008         390.385          94.365 
       0.908149         387.134         92.9539 
       0.914301         383.817         91.5697 
       0.920448         381.586         90.2153 
       0.926574         376.569         88.8934 
       0.932687         377.044         87.6011 
       0.938823         372.712         86.3301 
       0.944975         372.727         85.0818 
       0.951105         368.314         83.8629 
       0.957225         366.008         82.6702 
       0.963368         362.156          81.497 
       0.969511         360.716         80.3468 
       0.975621          358.09         79.2253 
       0.981748         357.289         78.1226 
       0.987916         354.678         77.0342 
        0.99406         348.834         75.9708 
        1.00019         348.563         74.9299 
        1.00632         346.609         73.9097 
        1.01246         343.764         72.9072 
        1.01859         344.302         71.9252 
        1.02471         339.097         70.9627 
        1.03085         337.197         70.0147 
        1.03698         336.238         69.0862 
        1.04314         332.939         68.1709 
        1.04929         330.001         67.2744 
        1.05541         330.539         66.3979 
        1.06154         325.287          65.535 
        1.06769          324.32         64.6863 
        1.07382         322.413         63.8556 
        1.07993         320.271         63.0415 
        1.08607         319.296         62.2384 
        1.09222         316.516         61.4487 
        1.09836         314.372         60.6737 
        1.10449         311.295         59.9131 
        1.11063         308.567         59.1648 
        1.11677         308.567         58.4298 
         1.1229         306.561         57.7086 
        1.12903         304.127         56.9991 
        1.13518         301.668          56.301 
        1.14131         300.085         55.6151 
        1.14745         298.794         54.9412 
        1.15359         296.475         54.2784 
        1.15973         294.814         53.6263 
        1.16584         292.572          52.988 
        1.17197         292.316         52.3593 
        1.17811         289.104         51.7389 
        1.18424         287.058         51.1306 
        1.19038         286.007         50.5303 
        1.19652         283.772           49.94 
        1.20267         283.015         49.3592 
        1.20881         281.002         48.7879 
        1.21495         278.792         48.2266 
        1.22108          277.38         47.6744 
         1.2272         275.508         47.1321 
        1.23334         273.861         46.5972 
        1.23949         272.413         46.0694 
        1.24562         271.102         45.5513 
        1.25174         268.629          45.042 
        1.25789         266.702          44.539 
        1.26402         265.176         44.0447 
        1.27014          263.48         43.5592 
        1.27628         262.202         43.0797 
        1.28244         261.733         42.6065 
        1.28858         258.864         42.1411 
        1.29471         256.876         41.6838 
        1.30084         255.891         41.2337 
        1.30697         254.252         40.7897 
        1.31312         251.817         40.3516 
        1.31925         251.699         39.9214 
        1.32537         250.358          39.498 
        1.33151         247.853         39.0792 
        1.33765         246.207         38.6668 
        1.34378         245.411         38.2612 
        1.34992         243.981         37.8612 
        1.35606         243.639         37.4661 
         1.3622         241.455         37.0774 
        1.36833         239.221         36.6952 
        1.37445         238.301         36.3186 
        1.38059         236.213         35.9462 
        1.38675         235.482         35.5782 
        1.39288         233.786         35.2168 
        1.39901         233.322         34.8607 
        1.40515          231.23         34.5087 
         1.4113         229.963         34.1618 
        1.41742         228.391          33.821 
        1.42355         226.995         33.4842 
         1.4297          225.42         33.1511 
        1.43585         224.286         32.8226 
        1.44198          223.07         32.4999 
        1.44809         222.075         32.1822 
        1.45423         220.447         31.8676 
        1.46036         219.448         31.5578 
        1.46649         217.637          31.252 
        1.47263         216.233         30.9501 
        1.47877         215.195         30.6524 
        1.48491         213.576         30.3581 
        1.49104          212.82         30.0684 
        1.49718         210.852         29.7822 
        1.50333         210.155         29.4994 
        1.50947         209.012         29.2208 
         1.5156         207.068         28.9463 
        1.52172         206.319         28.6753 
        1.52787          204.73         28.4073 
          1.534          204.22          28.143 
        1.54013         202.438         27.8824 
        1.54627         201.619         27.6247 
        1.55241         200.125         27.3703 
        1.55855         198.941         27.1194 
        1.56467         197.669         26.8724 
         1.5708         197.292         26.6277 
        1.57695          195.56         26.3858 
        1.58308          194.73         26.1475 
        1.58922         192.965          25.912 
        1.59535         191.673         25.6795 
         1.6015         191.304         25.4495 
        1.60764         189.875         25.2225 
        1.61376         188.518         24.9989 
        1.61989         187.735         24.7778 
        1.62604          186.64          24.559 
        1.63218         185.607         24.3429 
        1.63831         184.397           24.13 
        1.64444         183.584         23.9195 
        1.65059         182.109         23.7111 
        1.65673         181.035         23.5054 
        1.66285         180.269         23.3027 
        1.66898         178.954         23.1024 
        1.67512         178.729          22.904 
        1.68127          176.63         22.7078 
         1.6874         175.743         22.5144 
        1.69353         175.029         22.3234 
        1.69967         173.692         22.1341 
        1.70581          172.89         21.9471 
        1.71193         171.654          21.763 
        1.71806         171.175         21.5807 
        1.72421         169.818         21.4001 
        1.73035         169.308         21.2218 
        1.73649         168.267         21.0455 
        1.74262         167.014         20.8714 
        1.74876         166.264         20.6992 
        1.75489         165.078         20.5293 
        1.76101         164.026         20.3614 
        1.76715         163.531         20.1952 
        1.77329         162.693         20.0306 
        1.77943         161.567         19.8677 
        1.78557         160.749          19.707 
        1.79171         159.831          19.548 
        1.79785         158.719         19.3907 
        1.80399         157.775         19.2353 
        1.81012         156.882         19.0817 
        1.81625         156.287         18.9299 
        1.82239         155.266         18.7796 
        1.82853         154.662         18.6309 
        1.83466         153.486         18.4841 
        1.84078         152.923         18.3389 
        1.84692         151.334         18.1951 
        1.85306         151.274         18.0527 
         1.8592         150.044         17.9121 
        1.86533          149.11          17.773 
        1.87147           148.1         17.6353 
        1.87761         147.722         17.4989 
        1.88375         146.187         17.3642 
        1.88988         145.639          17.231 
        1.89601         144.923         17.0992 
        1.90215         143.987         16.9687 
        1.90829         143.402         16.8396 
        1.91442         142.537         16.7118 
        1.92056         141.754         16.5855 
         1.9267         141.093         16.4604 
        1.93284         140.241         16.3365 
        1.93897         139.293         16.2141 
        1.94509         138.728         16.0932 
        1.95123         138.092         15.9733 
        1.95737         137.374         15.8545 
        1.96349         136.558         15.7372 
        1.96964         135.414         15.6208 
        1.97578         134.643         15.5056 
        1.98192         134.225         15.3917 
        1.98805         133.166          15.279 
        1.99419         132.593         15.1674 
        2.00033         131.796         15.0568 
        2.00647         131.344         14.9474 
         2.0126         130.077         14.8393 
        2.01874         129.673         14.7321 
        2.02488         129.171         14.6259 
        2.03101         127.972         14.5209 
        2.03714          127.48         14.4171 
        2.04328         126.751         14.3141 
        2.04941         126.074         14.2123 
        2.05554         125.258         14.1115 
        2.06167          124.97         14.0116 
        2.06781         124.237         13.9126 
        2.07396         123.223         13.8145 
        2.08009         122.765         13.7175 
        2.08622         122.051         13.6215 
        2.09237         121.195         13.5263 
        2.09851         120.688         13.4319 
        2.10464         120.181         13.3386 
        2.11077         119.528         13.2464 
        2.11691         118.923         13.1548 
        2.12305         117.776          13.064 
        2.12918         117.372         12.9744 
        2.13531         116.817         12.8856 
        2.14145         115.988         12.7974 
         2.1476         115.221           12.71 
        2.15372         114.904         12.6238 
        2.15985         114.506         12.5383 
        2.16599         113.622         12.4534 
        2.17213         112.899         12.3693 
        2.17827         112.522         12.2861 
         2.1844         111.646         12.2037 
        2.19054         111.246         12.1221 
        2.19666         110.681         12.0413 
         2.2028         109.925         11.9611 
        2.20893         109.431         11.8817 
        2.21508         108.734         11.8029 
        2.22122         108.231         11.7248 
        2.22736         107.701         11.6476 
        2.23349         107.126         11.5711 
        2.23962         106.376         11.4952 
        2.24577         106.078           11.42 
         2.2519         105.609         11.3455 
        2.25802         104.565         11.2718 
        2.26417         104.247         11.1986 
        2.27031          103.59          11.126 
        2.27644         103.083         11.0542 
        2.28257         102.536         10.9831 
        2.28872          102.05         10.9125 
        2.29486         101.465         10.8425 
        2.30099         101.011         10.7732 
        2.30712         100.445         10.7046 
        2.31326         99.7897         10.6364 
         2.3194         99.2212         10.5689 
        2.32553         98.8162          10.502 
        2.33166           98.32         10.4358 
         2.3378         97.8149         10.3701 
        2.34394         97.3812         10.3049 
        2.35007         96.7243         10.2403 
        2.35619         96.3217         10.1764 
        2.36233         95.7471         10.1129 
        2.36848         95.1245         10.0498 
        2.37462         94.7529         9.98743 
        2.38075         94.2491         9.92561 
        2.38689         93.7254         9.86426 
        2.39303         92.9979         9.80345 
        2.39916         92.7306         9.74321 
        2.40529         92.3775         9.68349 
        2.41143         91.7856         9.62423 
        2.41757         91.3411         9.56544 
         2.4237         90.8113         9.50725 
        2.42983         90.2591         9.44956 
        2.43598         89.8042         9.39219 
        2.44211         89.5659          9.3354 
        2.44823         89.0292         9.27921 
        2.45437         88.3123         9.22333 
        2.46052         87.8528         9.16786 
        2.46665         87.5276         9.11296 
        2.47279         87.0166         9.05852 
        2.47892         86.6721         9.00449 
        2.48507         86.1257         8.95086 
         2.4912           85.84         8.89777 
