#  k  (h/Mpc)          P(k)  (Mpc/h)^3     P_linear(k) (Mpc/h)^3
     0.00783031         7482.34         7519.17 
       0.013688         9272.85         9458.82 
       0.019231         9684.72         9791.58 
      0.0249154         9295.74         9286.92 
      0.0312784         8229.63         8291.73 
      0.0375637         7175.09         7272.76 
      0.0433917          6452.1         6480.76 
      0.0492413         5808.39          5876.1 
      0.0555754         5366.91         5395.97 
      0.0619321         4867.23         5014.85 
       0.067871         4597.39         4678.94 
      0.0738098         4270.43         4322.19 
      0.0800417         3887.26         3919.89 
      0.0862327         3475.88         3516.13 
      0.0921407         3135.41         3160.01 
      0.0982031          2861.3         2850.91 
       0.104506         2580.56         2601.56 
       0.110769         2408.94         2419.77 
       0.116806         2312.54          2288.1 
       0.122832         2173.79         2176.79 
       0.129052         2065.43         2062.58 
       0.135211         1974.05         1938.49 
       0.141259         1824.22         1805.23 
       0.147318         1673.98         1667.94 
       0.153489         1565.55         1535.35 
       0.159709         1483.91         1418.94 
       0.165845         1359.43         1325.81 
       0.171974         1326.52         1253.42 
       0.178125         1276.64         1196.28 
       0.184229         1192.41         1147.73 
        0.19034            1166          1100.5 
       0.196428         1124.49         1050.44 
       0.202534         1048.62         996.053 
       0.208729         1021.16         938.424 
       0.214876         974.707         882.283 
       0.220989         910.579         830.969 
       0.227147          888.24         786.149 
        0.23329         854.599         748.831 
       0.239377         839.525         718.055 
       0.245482         798.663         691.311 
       0.251667         768.183         666.058 
       0.257832             759         640.816 
       0.263955         718.062         614.784 
       0.270079         693.377         587.875 
        0.27624         662.954         560.787 
       0.282372         647.804         534.975 
        0.28843         641.599         511.526 
       0.294538          609.21         490.477 
       0.300721         590.383         471.744 
        0.30691         580.841         455.087 
       0.313033         556.347         439.917 
       0.319153         547.196         425.356 
       0.325316         535.838          410.78 
        0.33145         523.471         396.201 
       0.337538         504.728          381.75 
       0.343633         489.537          367.62 
       0.349808         477.047         353.973 
       0.355968         467.532         341.306 
       0.362074         453.785         329.768 
       0.368217         449.465         319.121 
       0.374374         440.376         309.225 
       0.380519         422.918         299.865 
       0.386598         417.473          290.92 
       0.392688         408.129         282.126 
        0.39888         397.566         273.316 
       0.405048         390.579          264.73 
       0.411186         387.967          256.45 
       0.417313         381.561         248.549 
       0.423458         370.772         241.062 
       0.429607         361.814         234.006 
       0.435692         355.519         227.427 
       0.441815         349.576         221.148 
       0.447964          341.01           215.1 
       0.454126         336.372         209.232 
       0.460267         331.538         203.545 
       0.466387         325.621          198.02 
        0.47254         321.226         192.615 
       0.478662         312.794         187.416 
       0.484765         309.257         182.438 
       0.490885         305.584         177.659 
       0.497035         300.747         173.064 
       0.503198         298.477         168.662 
       0.509342         290.636         164.453 
       0.515458         286.995          160.41 
       0.521598         281.114         156.475 
       0.527764         277.751         152.637 
       0.533884         276.943         148.941 
           0.54         271.362         145.357 
       0.546137         265.402         141.873 
       0.552299          264.08         138.491 
       0.558452         259.646         135.233 
       0.564573         257.537         132.112 
       0.570708         252.705         129.094 
       0.576825         248.838         126.185 
       0.582926         246.333         123.373 
       0.589034          243.06          120.64 
       0.595184         241.358         117.968 
       0.601379         236.721         115.357 
       0.607522         232.547         112.843 
       0.613639         230.977         110.413 
       0.619772         229.149         108.049 
       0.625918         226.705         105.751 
       0.632068         222.171         103.522 
       0.638161         220.131          101.38 
         0.6443         218.862         99.2864 
       0.650464         214.929         97.2463 
       0.656582         213.472         95.2785 
       0.662703         211.666         93.3637 
       0.668861         207.697         91.4891 
       0.675024         207.414         89.6632 
       0.681124         204.521          87.905 
       0.687237         202.112         86.1906 
       0.693381         200.317         84.5147 
       0.699536         198.055         82.8819 
       0.705665           195.8         81.3005 
       0.711789         193.709         79.7628 
       0.717957         191.676          78.255 
        0.72409         189.988         76.7948 
       0.730186         190.116         75.3807 
       0.736317         186.853         73.9942 
       0.742472         184.392         72.6373 
       0.748622         181.742         71.3156 
        0.75476         182.378         70.0297 
       0.760888         180.258         68.7775 
       0.767043         177.488         67.5512 
       0.773185          175.93         66.3577 
       0.779291         173.721         65.2002 
       0.785407         172.667         64.0689 
       0.791564         171.313         62.9577 
       0.797719         168.948         61.8736 
       0.803834         169.143         60.8221 
       0.809972         167.797         59.7914 
       0.816124         165.373         58.7825 
       0.822261         163.874         57.7996 
       0.828378         163.729         56.8423 
       0.834502         161.042          55.906 
       0.840667          160.57         54.9848 
       0.846816         158.839          54.087 
       0.852925         157.423         53.2151 
       0.859047         156.003         52.3607 
       0.865192         155.239         51.5223 
       0.871341         153.369         50.7019 
       0.877463         152.248         49.9031 
       0.883569         152.079         49.1237 
       0.889708         150.729         48.3571 
       0.895864         149.251          47.605 
       0.902008         147.862         46.8705 
       0.908149         146.113          46.152 
       0.914301         146.158         45.4475 
       0.920448         145.337         44.7584 
       0.926574         143.057         44.0861 
       0.932687         142.832         43.4291 
       0.938823         141.689         42.7832 
       0.944975         140.237          42.149 
       0.951105         139.176           41.53 
       0.957225         138.905         40.9245 
       0.963368         137.352         40.3291 
       0.969511         136.149         39.7456 
       0.975621          135.09         39.1768 
       0.981748         134.064         38.6177 
       0.987916          133.42          38.066 
        0.99406         132.696         37.5272 
        1.00019         131.468         36.9999 
        1.00632         130.761         36.4833 
        1.01246         129.806         35.9758 
        1.01859         128.994         35.4788 
        1.02471         128.013         34.9919 
        1.03085          126.94         34.5124 
        1.03698         126.107          34.043 
        1.04314         125.447         33.5804 
        1.04929         124.972         33.1274 
        1.05541         124.048         32.6847 
        1.06154         123.228          32.249 
        1.06769         122.171         31.8206 
        1.07382         121.378         31.4014 
        1.07993         120.788         30.9908 
        1.08607         119.774         30.5858 
        1.09222         119.371         30.1877 
        1.09836         118.164         29.7972 
        1.10449         117.491         29.4141 
        1.11063         116.734         29.0373 
        1.11677         116.033         28.6672 
         1.1229         115.153         28.3043 
        1.12903         114.739         27.9474 
        1.13518         113.995         27.5963 
        1.14131         113.285         27.2515 
        1.14745         112.559         26.9128 
        1.15359         111.331         26.5798 
        1.15973         111.052         26.2523 
        1.16584         110.368         25.9318 
        1.17197         109.755         25.6163 
        1.17811         108.887          25.305 
        1.18424         108.188         24.9998 
        1.19038         107.978         24.6988 
        1.19652         107.116         24.4028 
        1.20267         106.379         24.1117 
        1.20881         105.751         23.8255 
        1.21495         105.273         23.5443 
        1.22108         104.665         23.2677 
         1.2272          103.73         22.9962 
        1.23334         103.487         22.7284 
        1.23949         102.877         22.4643 
        1.24562          102.01         22.2051 
        1.25174         101.349         21.9504 
        1.25789         101.187         21.6989 
        1.26402         100.439         21.4518 
        1.27014         99.9235         21.2092 
        1.27628         98.9491         20.9696 
        1.28244         98.7972         20.7332 
        1.28858         97.9899         20.5008 
        1.29471         97.4631         20.2725 
        1.30084         96.7732         20.0479 
        1.30697         96.6857         19.8264 
        1.31312         95.8736         19.6079 
        1.31925         95.2728         19.3934 
        1.32537         94.8145         19.1823 
        1.33151         94.6219         18.9736 
        1.33765          93.709         18.7682 
        1.34378         93.4798         18.5662 
        1.34992         93.0419          18.367 
        1.35606         92.3278         18.1704 
         1.3622          92.095         17.9769 
        1.36833         91.1842         17.7868 
        1.37445         90.6803         17.5995 
        1.38059         90.4135         17.4143 
        1.38675         89.5646         17.2314 
        1.39288         89.4237         17.0518 
        1.39901         88.5385         16.8749 
        1.40515         88.3518            16.7 
         1.4113         87.9278         16.5278 
        1.41742         87.3141         16.3586 
        1.42355         86.9247         16.1914 
         1.4297         86.3969         16.0261 
        1.43585         85.8261         15.8632 
        1.44198         85.4467         15.7031 
        1.44809         84.8644         15.5456 
        1.45423         84.5186         15.3897 
        1.46036         83.8832         15.2361 
        1.46649         83.5398         15.0847 
        1.47263         83.1934         14.9351 
        1.47877         82.7763         14.7877 
        1.48491         82.2566          14.642 
        1.49104         81.5818         14.4985 
        1.49718         81.4339         14.3569 
        1.50333          80.947          14.217 
        1.50947         80.6799         14.0792 
         1.5156         80.2791         13.9435 
        1.52172         79.6766         13.8095 
        1.52787          79.179          13.677 
          1.534          78.917         13.5464 
        1.54013         78.6303         13.4177 
        1.54627         77.9025         13.2904 
        1.55241         77.5295         13.1648 
        1.55855         77.2407         13.0409 
        1.56467           76.51          12.919 
         1.5708         76.3792         12.7983 
        1.57695         75.9901         12.6789 
        1.58308         75.5726         12.5614 
        1.58922         75.2297         12.4452 
        1.59535         74.9452         12.3306 
         1.6015         74.7179         12.2173 
        1.60764         74.2407         12.1054 
        1.61376         73.7253         11.9953 
        1.61989         73.1451         11.8864 
        1.62604         72.9659         11.7786 
        1.63218         72.6981         11.6723 
        1.63831          72.313         11.5675 
        1.64444         72.0226         11.4639 
        1.65059         71.5873         11.3614 
        1.65673         71.0364         11.2602 
        1.66285         70.6965         11.1605 
        1.66898         70.2514         11.0621 
        1.67512         70.0698         10.9646 
        1.68127         69.7523         10.8682 
         1.6874         69.2848         10.7732 
        1.69353         68.9796         10.6793 
        1.69967         68.7182         10.5864 
        1.70581         68.3258         10.4946 
        1.71193         67.9326         10.4043 
        1.71806         67.4951         10.3148 
        1.72421         67.3326         10.2262 
        1.73035         67.0764         10.1387 
        1.73649         66.6103         10.0523 
        1.74262          66.088         9.96693 
        1.74876         65.9522         9.88251 
        1.75489         65.4512         9.79925 
        1.76101         65.1528         9.71696 
        1.76715         65.1036         9.63551 
        1.77329         64.4846          9.5549 
        1.77943         64.3593         9.47517 
        1.78557         64.0902         9.39647 
        1.79171         63.7037         9.31864 
        1.79785         63.3743         9.24169 
        1.80399         63.0243         9.16561 
        1.81012         62.7361          9.0905 
        1.81625         62.4709         9.01626 
        1.82239         62.1914         8.94274 
        1.82853         61.7814         8.87007 
        1.83466         61.5446         8.79828 
        1.84078         61.1751         8.72737 
        1.84692         60.9524         8.65711 
        1.85306         60.6315         8.58755 
         1.8592         60.4136         8.51885 
        1.86533         59.9906         8.45095 
        1.87147         59.7154         8.38371 
        1.87761         59.3963         8.31717 
        1.88375         59.1066         8.25142 
        1.88988         58.8814         8.18646 
        1.89601         58.5234         8.12216 
        1.90215          58.201          8.0585 
        1.90829         58.0451         7.99556 
        1.91442         57.6882         7.93328 
        1.92056         57.4452         7.87172 
         1.9267         57.1619         7.81074 
        1.93284         56.9634         7.75038 
        1.93897         56.6834         7.69077 
        1.94509         56.2513         7.63191 
        1.95123         56.0189         7.57352 
        1.95737         55.7302          7.5157 
        1.96349         55.5121         7.45863 
        1.96964         55.1803         7.40199 
        1.97578         54.9404         7.34591 
        1.98192         54.6904         7.29053 
        1.98805         54.4239         7.23571 
        1.99419         54.1632         7.18145 
        2.00033         53.9475         7.12772 
        2.00647         53.6833         7.07455 
         2.0126         53.3456         7.02201 
        2.01874         53.1966         6.96993 
        2.02488         52.8684         6.91833 
        2.03101         52.6505         6.86734 
        2.03714         52.4336         6.81692 
        2.04328         52.1375         6.76695 
        2.04941         51.8047         6.71751 
        2.05554         51.7312         6.66861 
        2.06167         51.5316         6.62012 
        2.06781         51.0467         6.57211 
        2.07396          50.835         6.52451 
        2.08009         50.7079         6.47746 
        2.08622          50.445         6.43093 
        2.09237         50.1717         6.38476 
        2.09851         49.9277         6.33904 
        2.10464         49.7084         6.29385 
        2.11077         49.5109         6.24914 
        2.11691         49.1838         6.20477 
        2.12305         48.9567         6.16083 
        2.12918          48.758         6.11742 
        2.13531         48.5602         6.07443 
        2.14145         48.2572         6.03174 
         2.1476         48.0764         5.98942 
        2.15372         47.9532         5.94772 
        2.15985         47.5817         5.90636 
        2.16599         47.4019         5.86529 
        2.17213         47.1853         5.82465 
        2.17827         46.9536          5.7844 
         2.1844         46.6704         5.74456 
        2.19054         46.5194         5.70509 
        2.19666         46.2366         5.66605 
         2.2028         46.0227         5.62733 
        2.20893         45.7869         5.58896 
        2.21508         45.5924          5.5509 
        2.22122         45.3925         5.51318 
        2.22736         45.0897         5.47589 
        2.23349         44.9873         5.43896 
        2.23962         44.7362         5.40234 
        2.24577         44.5528         5.36603 
         2.2519         44.2904          5.3301 
        2.25802         44.1629         5.29456 
        2.26417         43.9386         5.25925 
        2.27031         43.7015         5.22422 
        2.27644         43.5925         5.18962 
        2.28257         43.1612         5.15532 
        2.28872         43.2282         5.12128 
        2.29486         42.9238         5.08754 
        2.30099         42.6367         5.05418 
        2.30712         42.5734         5.02111 
        2.31326         42.2507         4.98827 
         2.3194          42.042         4.95575 
        2.32553         41.9489         4.92356 
        2.33166         41.6435         4.89168 
         2.3378         41.4616         4.86004 
        2.34394         41.2995         4.82866 
        2.35007         41.0936         4.79761 
        2.35619         41.0294         4.76687 
        2.36233         40.6467         4.73632 
        2.36848         40.5587         4.70598 
        2.37462         40.3295         4.67596 
        2.38075         40.2325         4.64624 
        2.38689         40.0855         4.61675 
        2.39303         39.8503         4.58752 
        2.39916         39.5921         4.55857 
        2.40529         39.4429         4.52988 
        2.41143         39.2521         4.50141 
        2.41757         39.1262         4.47317 
         2.4237         38.9388         4.44523 
        2.42983         38.7118         4.41753 
        2.43598         38.5585         4.38999 
        2.44211         38.3909         4.36273 
        2.44823         38.1628         4.33576 
        2.45437         38.0517         4.30894 
        2.46052         37.7857         4.28233 
        2.46665         37.6649         4.25599 
        2.47279         37.4316         4.22989 
        2.47892         37.3241         4.20398 
        2.48507          37.197         4.17826 
         2.4912         36.9557         4.15281 
