# k  (h/Mpc)    Pcb(k)  (Mpc/h)^3    Pcb_linear(k)  (Mpc/h)^3
     0.00783031         4255.77         4289.83 
       0.013688         4740.41         4813.86 
       0.019231         4389.89         4420.18 
      0.0249154         3675.99            3659 
      0.0312784         2798.09         2791.96 
      0.0375637         2135.69         2137.65 
      0.0433917         1759.45         1749.39 
      0.0492413         1531.15         1529.34 
      0.0555754         1416.67          1407.2 
      0.0619321         1312.22         1326.73 
       0.067871         1234.39         1236.16 
      0.0738098         1111.05         1109.71 
      0.0800417         955.158         948.512 
      0.0862327         793.157         788.289 
      0.0921407         667.783          660.76 
      0.0982031         580.523         568.457 
       0.104506         517.573         512.971 
       0.110769         492.781         487.673 
       0.116806         484.528         476.624 
       0.122832         467.315         464.464 
       0.129052         444.919         440.661 
       0.135211         411.672         403.598 
       0.141259         365.499         359.136 
       0.147318         320.357         314.791 
       0.153489         285.247         277.104 
       0.159709         261.271         250.481 
       0.165845         241.405          235.12 
       0.171974         237.915         227.548 
       0.178125         231.942         223.327 
       0.184229         223.565         218.204 
        0.19034         216.495         209.335 
       0.196428          204.09         196.232 
       0.202534         185.365         180.322 
       0.208729         173.303          163.94 
       0.214876         160.829         149.814 
       0.220989         147.908         139.191 
       0.227147         142.874         132.067 
        0.23329         137.971         127.676 
       0.239377         135.312         124.636 
       0.245482          130.47         121.521 
       0.251667         124.956         117.301 
       0.257832         121.748         111.713 
       0.263955         113.503          105.18 
       0.270079         106.847         98.4125 
        0.27624         100.716         92.1576 
       0.282372         96.1966         87.0175 
        0.28843         93.9592         83.1325 
       0.294538          89.966         80.2424 
       0.300721         86.5617         77.9336 
        0.30691          85.104         75.7781 
       0.313033         81.7642         73.4142 
       0.319153         79.9544         70.6735 
       0.325316         76.2452         67.5713 
        0.33145         72.9503         64.3643 
       0.337538         69.9278         61.3008 
       0.343633         67.5531         58.5707 
       0.349808         65.0047         56.2275 
       0.355968         62.9982         54.3011 
       0.362074         61.7719         52.6781 
       0.368217         60.0036          51.179 
       0.374374         58.4851         49.6824 
       0.380519         56.0767            48.1 
       0.386598         54.4135         46.4464 
       0.392688         52.4651         44.7449 
        0.39888         51.3636           43.04 
       0.405048         49.9016         41.4527 
       0.411186         48.4395         40.0238 
       0.417313         47.0039         38.7516 
       0.423458         45.6122         37.6158 
       0.429607         44.7416          36.566 
       0.435692         44.0217         35.5627 
       0.441815         42.3233         34.5596 
       0.447964         40.9336         33.5433 
       0.454126         40.1579         32.5134 
       0.460267         39.6354         31.5017 
       0.466387         38.4114         30.5342 
        0.47254         37.8011         29.6176 
       0.478662          36.462         28.7664 
       0.484765         35.6767          27.981 
       0.490885         34.6004         27.2451 
       0.497035         34.1058          26.539 
       0.503198          33.374         25.8482 
       0.509342         32.3844         25.1706 
       0.515458         31.8529         24.5075 
       0.521598         31.0497         23.8542 
       0.527764         30.5606         23.2143 
       0.533884         29.9557         22.6022 
           0.54         29.2595         22.0199 
       0.546137         28.3827         21.4671 
       0.552299         27.8218         20.9396 
       0.558452         27.1952          20.434 
       0.564573         26.9301         19.9468 
       0.570708         26.2113         19.4715 
       0.576825         25.8512           19.01 
       0.582926          25.382          18.562 
       0.589034         24.8259         18.1254 
       0.595184         24.4969         17.6983 
       0.601379         23.8343         17.2818 
       0.607522         23.3455         16.8833 
       0.613639         23.0266         16.5014 
       0.619772         22.5466         16.1334 
       0.625918         22.1588         15.7777 
       0.632068         21.8974         15.4332 
       0.638161         21.4315         15.1014 
         0.6443         21.1164         14.7754 
       0.650464          20.554         14.4561 
       0.656582         20.4249         14.1476 
       0.662703         20.0926         13.8476 
       0.668861         19.5884          13.555 
       0.675024          19.322         13.2715 
       0.681124         19.2034         12.9999 
       0.687237         18.8007          12.736 
       0.693381         18.3933         12.4787 
       0.699536         18.2663         12.2281 
       0.705665         17.8934         11.9854 
       0.711789         17.6084          11.749 
       0.717957         17.2375         11.5171 
        0.72409         17.0478         11.2924 
       0.730186         16.9437          11.075 
       0.736317         16.5721          10.862 
       0.742472         16.3845          10.654 
       0.748622         16.1073         10.4518 
        0.75476         15.7129         10.2555 
       0.760888         15.6693         10.0647 
       0.767043         15.3544         9.87809 
       0.773185         15.1481         9.69671 
       0.779291         14.9753         9.52097 
       0.785407         14.7629         9.34935 
       0.791564         14.6432         9.18086 
       0.797719         14.2783         9.01657 
       0.803834          14.234         8.85732 
       0.809972           13.94         8.70133 
       0.816124         13.7929         8.54875 
       0.822261         13.6187         8.40024 
       0.828378         13.4751          8.2557 
       0.834502         13.3214         8.11447 
       0.840667         13.1539         7.97564 
       0.846816          12.877         7.84047 
       0.852925         12.8292         7.70931 
       0.859047         12.6556          7.5809 
       0.865192         12.4748         7.45501 
       0.871341         12.3243         7.33191 
       0.877463         12.1571         7.21217 
       0.883569          12.064         7.09542 
       0.889708         11.8676         6.98068 
       0.895864         11.7101         6.86819 
       0.902008         11.5939         6.75842 
       0.908149         11.4109         6.65113 
       0.914301         11.3242           6.546 
       0.920448         11.1832         6.44326 
       0.926574         11.1008         6.34309 
       0.932687         10.9189         6.24527 
       0.938823         10.7632         6.14917 
       0.944975         10.7039         6.05488 
       0.951105         10.5826         5.96291 
       0.957225         10.4877         5.87301 
       0.963368         10.3248         5.78467 
       0.969511         10.2139         5.69815 
       0.975621         10.1258         5.61387 
       0.981748           9.987         5.53108 
       0.987916         9.91627         5.44944 
        0.99406         9.77791         5.36977 
        1.00019         9.70659         5.29185 
        1.00632         9.64031         5.21555 
        1.01246         9.49412         5.14065 
        1.01859         9.40906         5.06734 
        1.02471         9.29934         4.99555 
        1.03085         9.24086         4.92491 
        1.03698         9.15925         4.85579 
        1.04314         9.03048          4.7877 
        1.04929         8.91947         4.72108 
        1.05541         8.85532           4.656 
        1.06154          8.7743         4.59199 
        1.06769         8.69708         4.52909 
        1.07382         8.57976         4.46759 
        1.07993         8.50718         4.40736 
        1.08607          8.4427           4.348 
        1.09222         8.34185         4.28968 
        1.09836         8.27757          4.2325 
        1.10449         8.20303         4.17643 
        1.11063         8.14967         4.12132 
        1.11677         8.08706         4.06723 
         1.1229         7.99469          4.0142 
        1.12903         7.91958         3.96208 
        1.13518         7.83992         3.91084 
        1.14131         7.78452         3.86053 
        1.14745         7.66548         3.81115 
        1.15359         7.59083         3.76262 
        1.15973         7.54815         3.71492 
        1.16584         7.46797         3.66826 
        1.17197         7.39198         3.62233 
        1.17811         7.34426         3.57705 
        1.18424         7.29001         3.53268 
        1.19038         7.25448         3.48894 
        1.19652         7.16021         3.44595 
        1.20267         7.12753         3.40369 
        1.20881         7.02495         3.36214 
        1.21495         6.98491         3.32136 
        1.22108         6.92422         3.28126 
         1.2272         6.86297         3.24192 
        1.23334         6.83152         3.20313 
        1.23949         6.76254         3.16489 
        1.24562         6.69921         3.12738 
        1.25174         6.66762         3.09053 
        1.25789         6.59377         3.05416 
        1.26402         6.54385         3.01845 
        1.27014         6.51437         2.98339 
        1.27628         6.43695         2.94878 
        1.28244         6.41286         2.91466 
        1.28858         6.34109         2.88113 
        1.29471         6.27892         2.84819 
        1.30084         6.23197         2.81581 
        1.30697         6.20199         2.78387 
        1.31312          6.1521         2.75239 
        1.31925         6.11306          2.7215 
        1.32537         6.05327         2.69111 
        1.33151         6.00693         2.66107 
        1.33765         5.96841         2.63152 
        1.34378         5.94471         2.60247 
        1.34992         5.88696         2.57384 
        1.35606          5.8289         2.54558 
         1.3622         5.78526          2.5178 
        1.36833         5.76219         2.49049 
        1.37445         5.71072         2.46361 
        1.38059         5.65539         2.43704 
        1.38675         5.63155          2.4108 
        1.39288         5.59126         2.38505 
        1.39901         5.53511         2.35969 
        1.40515           5.503         2.33465 
         1.4113         5.46493         2.30997 
        1.41742         5.43754         2.28575 
        1.42355         5.38251         2.26183 
         1.4297         5.34394         2.23818 
        1.43585         5.31807         2.21487 
        1.44198         5.29255         2.19199 
        1.44809          5.2472         2.16948 
        1.45423         5.20549         2.14719 
        1.46036         5.17446         2.12526 
        1.46649         5.14216         2.10363 
        1.47263          5.1056         2.08228 
        1.47877         5.06188         2.06124 
        1.48491         5.04943         2.04045 
        1.49104          5.0112            2.02 
        1.49718         4.98074         1.99981 
        1.50333         4.94425         1.97986 
        1.50947         4.91133         1.96023 
         1.5156         4.88503         1.94089 
        1.52172         4.83992         1.92181 
        1.52787         4.83317         1.90295 
          1.534         4.78368         1.88437 
        1.54013         4.76776         1.86606 
        1.54627         4.72763         1.84795 
        1.55241         4.68738         1.83008 
        1.55855         4.67395         1.81248 
        1.56467         4.65951         1.79515 
         1.5708         4.60709           1.778 
        1.57695         4.57905         1.76105 
        1.58308         4.55331         1.74437 
        1.58922         4.53321         1.72788 
        1.59535         4.51156         1.71161 
         1.6015         4.45706         1.69554 
        1.60764         4.43867         1.67967 
        1.61376         4.41865         1.66405 
        1.61989         4.38792         1.64862 
        1.62604         4.37406         1.63335 
        1.63218         4.34303         1.61829 
        1.63831         4.31631         1.60344 
        1.64444         4.28514         1.58878 
        1.65059          4.2595         1.57427 
        1.65673         4.24363         1.55995 
        1.66285         4.21471         1.54585 
        1.66898         4.20227         1.53192 
        1.67512         4.17538         1.51814 
        1.68127         4.13022         1.50451 
         1.6874         4.12271         1.49108 
        1.69353         4.08669         1.47782 
        1.69967         4.07132         1.46469 
        1.70581         4.04527         1.45173 
        1.71193         4.02169         1.43897 
        1.71806         3.99966         1.42634 
        1.72421         3.97633         1.41383 
        1.73035         3.96448         1.40149 
        1.73649          3.9428          1.3893 
        1.74262         3.90786         1.37726 
        1.74876         3.89772         1.36536 
        1.75489         3.87881         1.35362 
        1.76101         3.84167         1.34203 
        1.76715         3.84216         1.33055 
        1.77329         3.80963         1.31919 
        1.77943            3.78         1.30796 
        1.78557         3.77933         1.29688 
        1.79171         3.74985         1.28593 
        1.79785         3.73789          1.2751 
        1.80399         3.71496         1.26439 
        1.81012         3.69079         1.25383 
        1.81625         3.67173         1.24339 
        1.82239         3.65576         1.23305 
        1.82853         3.62656         1.22283 
        1.83466         3.60473         1.21274 
        1.84078         3.58785         1.20278 
        1.84692         3.57377         1.19291 
        1.85306         3.55626         1.18314 
         1.8592         3.54112         1.17349 
        1.86533         3.52166         1.16396 
        1.87147         3.50903         1.15452 
        1.87761         3.48679         1.14518 
        1.88375          3.4708         1.13596 
        1.88988         3.45532         1.12684 
        1.89601         3.42698         1.11783 
        1.90215         3.41668          1.1089 
        1.90829         3.40539         1.10008 
        1.91442         3.38728         1.09135 
        1.92056         3.37471         1.08272 
         1.9267         3.35376         1.07418 
        1.93284          3.3356         1.06572 
        1.93897         3.31713         1.05737 
        1.94509         3.28741         1.04913 
        1.95123         3.29003         1.04096 
        1.95737         3.27423         1.03287 
        1.96349         3.25639         1.02488 
        1.96964         3.23236         1.01695 
        1.97578         3.22159         1.00911 
        1.98192         3.20673         1.00136 
        1.98805         3.19289        0.993695 
        1.99419         3.17813        0.986109 
        2.00033         3.15689        0.978597 
        2.00647         3.15277        0.971166 
         2.0126         3.13517        0.963825 
        2.01874         3.11588        0.956548 
        2.02488         3.10984         0.94934 
        2.03101         3.08625         0.94222 
        2.03714         3.07021        0.935179 
        2.04328         3.05989        0.928202 
        2.04941         3.04223        0.921302 
        2.05554         3.03187        0.914476 
        2.06167         3.02494        0.907711 
        2.06781         3.00691        0.901013 
        2.07396         2.98983        0.894373 
        2.08009          2.9787        0.887811 
        2.08622         2.97135        0.881323 
        2.09237         2.95366        0.874886 
        2.09851         2.93808        0.868513 
        2.10464         2.92943        0.862214 
        2.11077         2.91027        0.855984 
        2.11691         2.90169        0.849802 
        2.12305         2.89106        0.843681 
        2.12918         2.87578        0.837635 
        2.13531         2.86613        0.831647 
        2.14145         2.85056        0.825704 
         2.1476         2.83535        0.819813 
        2.15372         2.82247        0.814008 
        2.15985         2.81633        0.808253 
        2.16599         2.80329        0.802538 
        2.17213         2.79822        0.796884 
        2.17827          2.7749        0.791286 
         2.1844         2.77267        0.785746 
        2.19054          2.7593        0.780258 
        2.19666         2.74634        0.774829 
         2.2028           2.728        0.769448 
        2.20893         2.72731        0.764115 
        2.21508         2.70695        0.758826 
        2.22122         2.69663        0.753586 
        2.22736         2.68241        0.748406 
        2.23349         2.67168        0.743276 
        2.23962         2.66153        0.738191 
        2.24577         2.65214        0.733149 
         2.2519         2.65032        0.728161 
        2.25802          2.6231        0.723227 
        2.26417         2.61809        0.718326 
        2.27031          2.6053        0.713465 
        2.27644         2.59952        0.708663 
        2.28257         2.58671        0.703906 
        2.28872         2.57297        0.699183 
        2.29486         2.56499        0.694504 
        2.30099         2.55716        0.689878 
        2.30712         2.54429        0.685292 
        2.31326         2.53731        0.680739 
         2.3194         2.52271        0.676231 
        2.32553         2.51568        0.671771 
        2.33166         2.50278        0.667353 
         2.3378          2.4965        0.662968 
        2.34394         2.48229        0.658622 
        2.35007         2.47566        0.654321 
        2.35619         2.47008        0.650063 
        2.36233         2.45771        0.645833 
        2.36848         2.44586        0.641632 
        2.37462         2.43962        0.637477 
        2.38075         2.42781        0.633363 
        2.38689         2.42128        0.629282 
        2.39303         2.41019        0.625237 
        2.39916         2.40144        0.621232 
        2.40529         2.39036        0.617262 
        2.41143          2.3889        0.613324 
        2.41757         2.37619        0.609418 
         2.4237         2.36732        0.605554 
        2.42983         2.35561        0.601723 
        2.43598         2.34982        0.597916 
        2.44211         2.33699        0.594147 
        2.44823         2.32854         0.59042 
        2.45437          2.3218        0.586714 
        2.46052         2.31678        0.583036 
        2.46665         2.30393        0.579397 
        2.47279         2.29661         0.57579 
        2.47892          2.2876        0.572211 
        2.48507         2.27823        0.568659 
         2.4912         2.27018        0.565144 
