# k  (h/Mpc)    Pcb(k)  (Mpc/h)^3    Pcb_linear(k)  (Mpc/h)^3
     0.00783031         2084.59         2106.32 
       0.013688         2579.45         2578.63 
       0.019231         2598.24         2596.45 
      0.0249154         2372.66         2389.67 
      0.0312784         2054.29         2057.54 
      0.0375637         1743.89         1738.79 
      0.0433917         1496.63         1500.46 
      0.0492413         1327.79         1326.19 
      0.0555754         1190.25         1197.94 
      0.0619321         1114.55         1108.07 
       0.067871         1031.64         1036.91 
      0.0738098         957.182         962.834 
      0.0800417         866.993         875.415 
      0.0862327         778.258         781.556 
      0.0921407         693.741         693.382 
      0.0982031         611.369         612.867 
       0.104506         551.489         545.829 
       0.110769         502.379         497.396 
       0.116806          466.84         465.233 
       0.122832          446.16         442.477 
       0.129052         422.768         423.017 
       0.135211         402.488         402.885 
       0.141259         381.793         379.641 
       0.147318         356.739         352.774 
       0.153489         326.292         323.604 
       0.159709         299.541          295.21 
       0.165845         278.216         270.668 
       0.171974          256.33         250.962 
       0.178125         242.282         236.098 
       0.184229         231.892         225.261 
        0.19034         219.866         216.776 
       0.196428         214.343         209.053 
       0.202534         207.783         200.766 
       0.208729         196.874         191.166 
       0.214876         185.177         180.544 
       0.220989         176.501         169.517 
       0.227147         164.315         158.781 
        0.23329         155.221         149.171 
       0.239377         148.402          141.14 
       0.245482         139.899         134.605 
       0.251667         136.444         129.257 
       0.257832         131.725         124.732 
       0.263955         127.247         120.536 
       0.270079          122.79         116.249 
        0.27624         119.477         111.657 
       0.282372          114.56         106.812 
        0.28843         109.207         101.929 
       0.294538         104.357         97.1377 
       0.300721         101.186         92.6493 
        0.30691         96.2949         88.6531 
       0.313033         93.0729         85.2167 
       0.319153         88.7802         82.2249 
       0.325316         87.3623         79.5253 
        0.33145         84.2413         77.0021 
       0.337538         82.1822         74.5393 
       0.343633         79.3017         72.0435 
       0.349808         76.9138         69.4797 
       0.355968         74.5802         66.9188 
       0.362074         71.9978         64.4478 
       0.368217         69.7193         62.0888 
       0.374374         67.4339         59.8991 
       0.380519         65.6542         57.9023 
       0.386598         63.8337         56.0948 
       0.392688         62.4638         54.4204 
        0.39888         60.6438         52.8094 
       0.405048         59.1975         51.2578 
       0.411186         57.7654         49.7421 
       0.417313         55.8843         48.2438 
       0.423458         54.4435         46.7655 
       0.429607         52.9301         45.3258 
       0.435692          51.233         43.9552 
       0.441815         50.3492         42.6458 
       0.447964         49.4373          41.408 
       0.454126         47.4392         40.2401 
       0.460267         46.6328         39.1404 
       0.466387         45.3044         38.0969 
        0.47254         44.5924         37.0857 
       0.478662         43.8062         36.1075 
       0.484765         42.4927         35.1568 
       0.490885         41.5301         34.2271 
       0.497035         40.9728         33.3175 
       0.503198         39.8635         32.4361 
       0.509342         38.8247         31.5918 
       0.515458         38.0289         30.7871 
       0.521598         37.3747         30.0136 
       0.527764         36.5897         29.2695 
       0.533884         35.9569         28.5606 
           0.54         35.1731         27.8775 
       0.546137         34.6167         27.2132 
       0.552299          34.048         26.5646 
       0.558452         33.0013         25.9352 
       0.564573         32.5115         25.3272 
       0.570708         31.9844         24.7363 
       0.576825         31.2051         24.1659 
       0.582926         30.6128         23.6156 
       0.589034         29.8241         23.0836 
       0.595184         29.4424         22.5666 
       0.601379         28.8906         22.0638 
       0.607522         28.3551         21.5812 
       0.613639         28.0789         21.1149 
       0.619772         27.3478         20.6606 
       0.625918         27.1935          20.218 
       0.632068          26.744         19.7877 
       0.638161         26.1759         19.3735 
         0.6443          25.659         18.9682 
       0.650464         25.2053         18.5731 
       0.656582         25.0394         18.1924 
       0.662703         24.5566         17.8225 
       0.668861         24.1028         17.4612 
       0.675024         23.6786         17.1101 
       0.681124         23.2704         16.7725 
       0.687237         22.8852         16.4435 
       0.693381         22.6831         16.1218 
       0.699536         22.0938          15.808 
       0.705665         22.0107         15.5038 
       0.711789         21.5352         15.2078 
       0.717957         21.2382         14.9174 
        0.72409         20.9223         14.6362 
       0.730186         20.6296         14.3641 
       0.736317          20.408         14.0977 
       0.742472         20.0583         13.8372 
       0.748622           19.84         13.5837 
        0.75476         19.4783         13.3372 
       0.760888         19.2066         13.0972 
       0.767043         18.9801         12.8623 
       0.773185         18.6302         12.6336 
       0.779291         18.5316         12.4118 
       0.785407         18.2946         12.1949 
       0.791564         17.9703         11.9819 
       0.797719         17.5903         11.7742 
       0.803834         17.5553         11.5727 
       0.809972         17.3925         11.3753 
       0.816124         16.9932         11.1821 
       0.822261         16.8234         10.9939 
       0.828378          16.642         10.8107 
       0.834502         16.4878         10.6316 
       0.840667         16.2488         10.4554 
       0.846816         15.9598         10.2838 
       0.852925         15.8109         10.1171 
       0.859047          15.636         9.95376 
       0.865192         15.4895         9.79353 
       0.871341         15.3589         9.63673 
       0.877463         15.0829          9.4841 
       0.883569         14.8909         9.33518 
       0.889708         14.6659         9.18871 
       0.895864         14.5548         9.04503 
       0.902008         14.4404         8.90474 
       0.908149         14.2807         8.76752 
       0.914301         14.1624         8.63299 
       0.920448         13.9003         8.50143 
       0.926574         13.7749         8.37308 
       0.932687         13.6307         8.24767 
       0.938823         13.4485          8.1244 
       0.944975         13.2965         8.00338 
       0.951105         13.1781         7.88528 
       0.957225         13.0704         7.76978 
       0.963368         12.9377         7.65622 
       0.969511         12.8159         7.54494 
       0.975621         12.6842         7.43648 
       0.981748         12.5249         7.32989 
       0.987916         12.4419         7.22473 
        0.99406         12.2632         7.12205 
        1.00019          12.085         7.02158 
        1.00632         12.0629         6.92316 
        1.01246         11.9314         6.82649 
        1.01859         11.7477         6.73183 
        1.02471          11.693          6.6391 
        1.03085         11.5745         6.54781 
        1.03698         11.4003         6.45843 
        1.04314         11.3383         6.37036 
        1.04929         11.1916         6.28415 
        1.05541         11.0705         6.19989 
        1.06154         10.9967         6.11697 
        1.06769         10.9415         6.03546 
        1.07382         10.7836         5.95571 
        1.07993         10.7026         5.87759 
        1.08607         10.6062         5.80055 
        1.09222         10.5188         5.72483 
        1.09836         10.3963         5.65055 
        1.10449         10.3147         5.57769 
        1.11063          10.209         5.50603 
        1.11677         10.1609         5.43567 
         1.1229         10.0902         5.36666 
        1.12903         9.96157         5.29879 
        1.13518         9.84403         5.23204 
        1.14131         9.78406         5.16649 
        1.14745         9.69502          5.1021 
        1.15359         9.63162          5.0388 
        1.15973         9.54458         4.97655 
        1.16584         9.40673         4.91564 
        1.17197         9.35572         4.85567 
        1.17811         9.30808         4.79651 
        1.18424         9.22256         4.73852 
        1.19038         9.18284         4.68133 
        1.19652         9.07637          4.6251 
        1.20267         8.98528          4.5698 
        1.20881         8.96111         4.51542 
        1.21495         8.88483         4.46201 
        1.22108          8.7777         4.40948 
         1.2272         8.72152         4.35793 
        1.23334         8.63104         4.30708 
        1.23949         8.55911         4.25693 
        1.24562         8.52225         4.20772 
        1.25174         8.45611         4.15937 
        1.25789         8.39191         4.11163 
        1.26402         8.34933         4.06474 
        1.27014         8.27592         4.01869 
        1.27628         8.17515         3.97322 
        1.28244         8.10779         3.92836 
        1.28858         8.10361         3.88427 
        1.29471         8.00878         3.84095 
        1.30084         7.93192         3.79834 
        1.30697          7.9252         3.75631 
        1.31312         7.80241         3.71486 
        1.31925         7.75373         3.67417 
        1.32537         7.70947         3.63413 
        1.33151         7.67326         3.59455 
        1.33765         7.59773         3.55558 
        1.34378         7.54078         3.51727 
        1.34992         7.49101          3.4795 
        1.35606         7.43684         3.44221 
         1.3622         7.39548         3.40552 
        1.36833         7.33089         3.36947 
        1.37445         7.28922         3.33395 
        1.38059         7.26117         3.29884 
        1.38675         7.19276         3.26415 
        1.39288         7.15929         3.23009 
        1.39901         7.07762         3.19655 
        1.40515         7.04701          3.1634 
         1.4113         6.99996         3.13074 
        1.41742         6.95223         3.09866 
        1.42355         6.89067         3.06697 
         1.4297         6.85333         3.03564 
        1.43585         6.82516         3.00475 
        1.44198         6.79317         2.97442 
        1.44809         6.73129         2.94456 
        1.45423         6.67999           2.915 
        1.46036         6.63324         2.88591 
        1.46649         6.59762          2.8572 
        1.47263         6.53966         2.82886 
        1.47877         6.50162         2.80092 
        1.48491         6.46707         2.77331 
        1.49104         6.42529         2.74614 
        1.49718         6.39117         2.71931 
        1.50333          6.3545         2.69279 
        1.50947         6.30356         2.66669 
         1.5156         6.27062         2.64097 
        1.52172         6.23713          2.6156 
        1.52787         6.19655          2.5905 
          1.534         6.14897         2.56577 
        1.54013         6.12393         2.54139 
        1.54627         6.06899         2.51728 
        1.55241         6.04016         2.49348 
        1.55855         6.01586         2.47002 
        1.56467         5.96792         2.44693 
         1.5708         5.94621         2.42407 
        1.57695         5.89262         2.40147 
        1.58308         5.85189         2.37921 
        1.58922         5.83891         2.35721 
        1.59535         5.80989         2.33551 
         1.6015         5.75881         2.31404 
        1.60764         5.71881         2.29286 
        1.61376          5.7004           2.272 
        1.61989           5.668         2.25138 
        1.62604         5.62796         2.23098 
        1.63218         5.61545         2.21084 
        1.63831         5.57808           2.191 
        1.64444         5.54878         2.17139 
        1.65059         5.48789         2.15198 
        1.65673         5.48995         2.13282 
        1.66285          5.4338         2.11396 
        1.66898         5.40962         2.09531 
        1.67512         5.38408         2.07686 
        1.68127         5.35056         2.05861 
         1.6874         5.33357         2.04062 
        1.69353         5.28783         2.02286 
        1.69967         5.26786         2.00526 
        1.70581         5.24163         1.98789 
        1.71193         5.20857         1.97078 
        1.71806         5.19047         1.95385 
        1.72421         5.15342         1.93707 
        1.73035         5.13854         1.92052 
        1.73649         5.10689         1.90416 
        1.74262         5.07285           1.888 
        1.74876          5.0562         1.87203 
        1.75489         5.03267         1.85627 
        1.76101         4.99081          1.8407 
        1.76715         4.97747         1.82528 
        1.77329         4.94958         1.81002 
        1.77943         4.90916         1.79493 
        1.78557         4.90157         1.78004 
        1.79171          4.8712         1.76531 
        1.79785         4.84465         1.75075 
        1.80399         4.81578         1.73636 
        1.81012         4.79712         1.72214 
        1.81625          4.7721         1.70809 
        1.82239         4.75221         1.69418 
        1.82853         4.72262         1.68043 
        1.83466         4.70502         1.66684 
        1.84078         4.68304         1.65342 
        1.84692         4.67151         1.64013 
        1.85306         4.63084         1.62697 
         1.8592         4.60454         1.61397 
        1.86533         4.58732         1.60112 
        1.87147         4.56919          1.5884 
        1.87761         4.54326         1.57581 
        1.88375          4.5203         1.56337 
        1.88988         4.49908         1.55108 
        1.89601         4.47987         1.53891 
        1.90215          4.4601         1.52687 
        1.90829         4.43278         1.51496 
        1.91442         4.41548         1.50317 
        1.92056         4.39442         1.49153 
         1.9267         4.36861         1.47999 
        1.93284         4.35302         1.46857 
        1.93897         4.33079         1.45729 
        1.94509         4.31239         1.44616 
        1.95123         4.29001         1.43511 
        1.95737         4.26331         1.42417 
        1.96349         4.25376         1.41338 
        1.96964         4.23651         1.40266 
        1.97578         4.20509         1.39205 
        1.98192          4.1968         1.38158 
        1.98805         4.17866          1.3712 
        1.99419          4.1564         1.36094 
        2.00033         4.14505         1.35077 
        2.00647          4.1192         1.34072 
         2.0126         4.10759         1.33078 
        2.01874         4.07839         1.32092 
        2.02488         4.07088         1.31116 
        2.03101         4.03871         1.30152 
        2.03714         4.02416         1.29198 
        2.04328         4.00685         1.28253 
        2.04941         3.98338         1.27317 
        2.05554         3.97195         1.26392 
        2.06167         3.95865         1.25475 
        2.06781         3.93856         1.24567 
        2.07396         3.92866         1.23667 
        2.08009         3.90798         1.22777 
        2.08622         3.88611         1.21896 
        2.09237         3.87279         1.21023 
        2.09851         3.85951         1.20158 
        2.10464         3.84239         1.19303 
        2.11077         3.81936         1.18458 
        2.11691         3.80498         1.17618 
        2.12305         3.79401         1.16787 
        2.12918         3.78306         1.15966 
        2.13531         3.76516         1.15153 
        2.14145         3.74871         1.14345 
         2.1476         3.72686         1.13544 
        2.15372         3.71218         1.12756 
        2.15985         3.70843         1.11973 
        2.16599         3.68136         1.11196 
        2.17213         3.66717         1.10428 
        2.17827         3.65833         1.09666 
         2.1844          3.6385         1.08913 
        2.19054         3.62532         1.08166 
        2.19666         3.60727         1.07428 
         2.2028         3.59247         1.06695 
        2.20893         3.58153         1.05969 
        2.21508         3.56287         1.05249 
        2.22122         3.54856         1.04536 
        2.22736         3.53711         1.03831 
        2.23349         3.52885         1.03132 
        2.23962         3.51039         1.02439 
        2.24577         3.49567         1.01753 
         2.2519         3.48783         1.01073 
        2.25802         3.46874         1.00401 
        2.26417          3.4579        0.997327 
        2.27031         3.44095        0.990701 
        2.27644          3.4264        0.984155 
        2.28257         3.41143        0.977669 
        2.28872         3.40671        0.971229 
        2.29486         3.38746        0.964848 
        2.30099         3.37251        0.958537 
        2.30712         3.36011         0.95228 
        2.31326         3.34405        0.946069 
         2.3194         3.33654        0.939917 
        2.32553         3.32398        0.933829 
        2.33166         3.31521        0.927799 
         2.3378         3.29904        0.921813 
        2.34394         3.28759        0.915878 
        2.35007         3.27181        0.910004 
        2.35619         3.26459        0.904189 
        2.36233         3.25198        0.898411 
        2.36848         3.23407        0.892671 
        2.37462         3.23049        0.886994 
        2.38075         3.21374        0.881372 
        2.38689         3.20618        0.875794 
        2.39303         3.19086        0.870265 
        2.39916         3.17903        0.864789 
        2.40529         3.16825        0.859361 
        2.41143         3.15646        0.853976 
        2.41757         3.14718        0.848635 
         2.4237         3.13725        0.843349 
        2.42983         3.11233        0.838109 
        2.43598         3.11209        0.832899 
        2.44211         3.09428        0.827742 
        2.44823         3.08871         0.82264 
        2.45437          3.0728        0.817568 
        2.46052         3.06804        0.812534 
        2.46665         3.05712        0.807551 
        2.47279         3.04359        0.802612 
        2.47892          3.0345         0.79771 
        2.48507         3.02333        0.792846 
         2.4912         3.00705        0.788031 
