# k  (h/Mpc)    P(k)  (Mpc/h)^3    P_linear(k)  (Mpc/h)^3
     0.00783031         2885.03         2894.48 
       0.013688         3574.65         3537.57 
       0.019231         3597.72         3560.17 
      0.0249154         3280.13         3276.11 
      0.0312784         2841.45         2820.65 
      0.0375637         2413.64         2383.65 
      0.0433917         2068.96         2056.91 
      0.0492413         1836.87         1817.98 
      0.0555754         1644.11         1642.16 
      0.0619321         1543.11         1518.96 
       0.067871          1425.5          1421.4 
      0.0738098         1322.58         1319.86 
      0.0800417         1197.06         1200.02 
      0.0862327         1075.52         1071.35 
      0.0921407         960.007         950.479 
      0.0982031         845.694         840.109 
       0.104506          764.82         748.213 
       0.110769         696.805          681.82 
       0.116806         647.294         637.731 
       0.122832         618.841         606.539 
       0.129052         585.359         579.863 
       0.135211         557.434         552.264 
       0.141259         529.448           520.4 
       0.147318         495.071         483.572 
       0.153489         452.654         443.586 
       0.159709         416.498         404.666 
       0.165845          387.72         371.023 
       0.171974         357.485         344.011 
       0.178125         338.132         323.636 
       0.184229         323.747          308.78 
        0.19034          306.13          297.15 
       0.196428         299.134         286.563 
       0.202534         290.198         275.203 
       0.208729         274.958         262.044 
       0.214876         258.659         247.483 
       0.220989         247.078         232.368 
       0.227147          230.28         217.651 
        0.23329         217.904         204.477 
       0.239377         208.958         193.469 
       0.245482         196.394         184.512 
       0.251667         192.106          177.18 
       0.257832         185.617         170.978 
       0.263955         179.244         165.226 
       0.270079         172.936          159.35 
        0.27624          168.71         153.055 
       0.282372         161.819         146.413 
        0.28843         154.523         139.719 
       0.294538         147.654         133.152 
       0.300721         143.736             127 
        0.30691         136.772         121.522 
       0.313033          132.45         116.811 
       0.319153         126.392         112.711 
       0.325316         124.246          109.01 
        0.33145         119.804         105.551 
       0.337538         117.224         102.176 
       0.343633         113.165         98.7544 
       0.349808         109.727         95.2399 
       0.355968         106.702         91.7296 
       0.362074         103.135         88.3422 
       0.368217         99.9697         85.1086 
       0.374374         96.8447         82.1072 
       0.380519         94.3842           79.37 
       0.386598         91.7858         76.8922 
       0.392688         89.9544         74.5971 
        0.39888         87.4316         72.3889 
       0.405048         85.3748          70.262 
       0.411186         83.3812         68.1846 
       0.417313         80.8286         66.1305 
       0.423458         78.8297         64.1043 
       0.429607         76.7265         62.1306 
       0.435692         74.1996          60.252 
       0.441815         73.2059         58.4569 
       0.447964         71.9127         56.7605 
       0.454126         68.8573         55.1593 
       0.460267         67.8418         53.6521 
       0.466387         66.1348         52.2215 
        0.47254          65.074         50.8356 
       0.478662         64.0282         49.4945 
       0.484765         62.1443         48.1915 
       0.490885         60.8305         46.9171 
       0.497035         60.0263         45.6702 
       0.503198         58.3933          44.462 
       0.509342         56.9143         43.3046 
       0.515458          55.884         42.2017 
       0.521598         55.0051         41.1414 
       0.527764         53.9565         40.1214 
       0.533884         53.0374         39.1496 
           0.54          51.912         38.2133 
       0.546137         51.2076         37.3027 
       0.552299         50.4143         36.4136 
       0.558452         48.9285         35.5509 
       0.564573         48.1299         34.7175 
       0.570708          47.466         33.9075 
       0.576825         46.4387         33.1255 
       0.582926         45.5173         32.3713 
       0.589034         44.4351         31.6419 
       0.595184         43.8946         30.9334 
       0.601379         43.1834         30.2442 
       0.607522         42.2481         29.5826 
       0.613639         41.9755         28.9435 
       0.619772         40.9146         28.3207 
       0.625918         40.6764          27.714 
       0.632068         40.0412         27.1241 
       0.638161         39.3043         26.5564 
         0.6443         38.5886         26.0008 
       0.650464         37.9591         25.4592 
       0.656582         37.6822         24.9373 
       0.662703         36.9322         24.4303 
       0.668861         36.3391         23.9351 
       0.675024          35.764         23.4538 
       0.681124          35.144          22.991 
       0.687237         34.5512           22.54 
       0.693381         34.2991         22.0991 
       0.699536         33.4895          21.669 
       0.705665         33.5139          21.252 
       0.711789         32.6891         20.8462 
       0.717957         32.3035         20.4481 
        0.72409         31.8598         20.0627 
       0.730186         31.3829         19.6897 
       0.736317         31.1149         19.3245 
       0.742472         30.5657         18.9674 
       0.748622         30.3027         18.6199 
        0.75476         29.8245          18.282 
       0.760888         29.3721         17.9531 
       0.767043         29.0482         17.6311 
       0.773185         28.5737         17.3176 
       0.779291         28.4511         17.0135 
       0.785407         28.1353         16.7163 
       0.791564         27.6295         16.4243 
       0.797719         27.0552         16.1395 
       0.803834         27.0264         15.8633 
       0.809972         26.7379         15.5927 
       0.816124         26.1641         15.3279 
       0.822261         25.9723           15.07 
       0.828378          25.745         14.8189 
       0.834502         25.4674         14.5733 
       0.840667         25.1615         14.3318 
       0.846816         24.7367         14.0965 
       0.852925         24.5166          13.868 
       0.859047         24.2415         13.6442 
       0.865192         24.0099         13.4245 
       0.871341          23.866         13.2096 
       0.877463         23.4067         13.0004 
       0.883569         23.1666         12.7962 
       0.889708         22.8879         12.5955 
       0.895864         22.6996         12.3985 
       0.902008         22.5249         12.2062 
       0.908149         22.2872         12.0181 
       0.914301          22.189         11.8337 
       0.920448         21.7503         11.6534 
       0.926574         21.5955         11.4774 
       0.932687          21.363         11.3055 
       0.938823         21.0821         11.1366 
       0.944975         20.9056         10.9707 
       0.951105         20.7204         10.8088 
       0.957225         20.4962         10.6505 
       0.963368         20.3677         10.4948 
       0.969511         20.1829         10.3423 
       0.975621         20.0138         10.1936 
       0.981748         19.7309         10.0475 
       0.987916         19.6287         9.90333 
        0.99406         19.3901         9.76258 
        1.00019         19.1453         9.62486 
        1.00632         19.0712         9.48995 
        1.01246         18.9147         9.35743 
        1.01859         18.6258         9.22768 
        1.02471         18.5799         9.10057 
        1.03085         18.4003         8.97543 
        1.03698         18.1087         8.85292 
        1.04314         18.0123          8.7322 
        1.04929         17.8111         8.61402 
        1.05541         17.6318         8.49852 
        1.06154         17.5374         8.38487 
        1.06769         17.4347         8.27313 
        1.07382          17.225         8.16381 
        1.07993         17.1338         8.05673 
        1.08607         16.9284         7.95113 
        1.09222         16.8326         7.84734 
        1.09836          16.629         7.74552 
        1.10449         16.5323         7.64564 
        1.11063         16.3441         7.54742 
        1.11677         16.2904         7.45096 
         1.1229         16.1994         7.35636 
        1.12903         15.9828         7.26333 
        1.13518         15.8127         7.17184 
        1.14131         15.7687         7.08198 
        1.14745         15.6398         6.99372 
        1.15359          15.542         6.90695 
        1.15973         15.3885         6.82163 
        1.16584         15.1863         6.73813 
        1.17197         15.1647         6.65592 
        1.17811         15.0143         6.57484 
        1.18424         14.8907         6.49534 
        1.19038         14.8375         6.41694 
        1.19652         14.6997         6.33987 
        1.20267         14.5738         6.26406 
        1.20881         14.5088         6.18952 
        1.21495         14.4103         6.11632 
        1.22108         14.2586         6.04431 
         1.2272         14.1398         5.97364 
        1.23334         14.0484         5.90394 
        1.23949         13.9187          5.8352 
        1.24562         13.8757         5.76775 
        1.25174         13.7858         5.70147 
        1.25789         13.6779         5.63603 
        1.26402          13.621         5.57174 
        1.27014         13.4887         5.50862 
        1.27628         13.3361         5.44629 
        1.28244         13.2834         5.38482 
        1.28858         13.2537         5.32437 
        1.29471         13.1134           5.265 
        1.30084         12.9978         5.20658 
        1.30697         12.9437         5.14897 
        1.31312         12.8041         5.09216 
        1.31925         12.7179         5.03638 
        1.32537         12.6818          4.9815 
        1.33151         12.5803         4.92724 
        1.33765         12.5056         4.87382 
        1.34378         12.4236         4.82131 
        1.34992         12.2991         4.76954 
        1.35606         12.2709         4.71841 
         1.3622         12.1936         4.66813 
        1.36833         12.0822         4.61871 
        1.37445         12.0387         4.57002 
        1.38059         11.9652         4.52189 
        1.38675         11.8395         4.47434 
        1.39288         11.8125         4.42766 
        1.39901         11.7036         4.38167 
        1.40515         11.6534         4.33624 
         1.4113         11.5743         4.29146 
        1.41742         11.4958          4.2475 
        1.42355         11.4257         4.20406 
         1.4297         11.3722         4.16111 
        1.43585         11.3268         4.11877 
        1.44198         11.2412         4.07719 
        1.44809         11.1755         4.03626 
        1.45423         11.0986         3.99575 
        1.46036         11.0356         3.95586 
        1.46649         10.9895         3.91651 
        1.47263         10.8874         3.87767 
        1.47877          10.834         3.83936 
        1.48491         10.7876         3.80152 
        1.49104         10.7261         3.76427 
        1.49718         10.6587          3.7275 
        1.50333         10.6098         3.69115 
        1.50947         10.5402         3.65537 
         1.5156          10.471         3.62012 
        1.52172         10.4272         3.58533 
        1.52787         10.3553         3.55094 
          1.534         10.2891         3.51703 
        1.54013         10.2312         3.48361 
        1.54627         10.1619         3.45056 
        1.55241         10.1247         3.41794 
        1.55855         10.0759         3.38578 
        1.56467         10.0036         3.35413 
         1.5708         9.99278          3.3228 
        1.57695         9.90147         3.29181 
        1.58308         9.84815          3.2613 
        1.58922         9.81212         3.23115 
        1.59535         9.76409          3.2014 
         1.6015         9.68864         3.17198 
        1.60764         9.62935         3.14294 
        1.61376           9.614         3.11435 
        1.61989         9.53556         3.08609 
        1.62604         9.51009         3.05812 
        1.63218           9.459         3.03051 
        1.63831         9.41706         3.00331 
        1.64444         9.34792         2.97643 
        1.65059          9.2861         2.94982 
        1.65673         9.27825         2.92357 
        1.66285         9.18045         2.89771 
        1.66898         9.16072         2.87215 
        1.67512         9.11853         2.84685 
        1.68127         9.06493         2.82184 
         1.6874         9.02781         2.79718 
        1.69353         8.96435         2.77283 
        1.69967         8.92742         2.74872 
        1.70581         8.89204          2.7249 
        1.71193         8.83252         2.70146 
        1.71806         8.81263         2.67824 
        1.72421          8.7455         2.65525 
        1.73035         8.72386         2.63255 
        1.73649         8.68163         2.61013 
        1.74262         8.63631         2.58798 
        1.74876         8.60598         2.56608 
        1.75489         8.55964         2.54448 
        1.76101         8.49405         2.52314 
        1.76715         8.48554           2.502 
        1.77329         8.41825         2.48109 
        1.77943         8.37925         2.46041 
        1.78557         8.36434         2.43999 
        1.79171         8.32526          2.4198 
        1.79785         8.26384         2.39984 
        1.80399         8.22905         2.38011 
        1.81012         8.20277         2.36063 
        1.81625         8.15311         2.34137 
        1.82239         8.12186          2.3223 
        1.82853         8.07036         2.30345 
        1.83466         8.03946         2.28483 
        1.84078         7.99142         2.26643 
        1.84692         7.98481         2.24821 
        1.85306         7.93043         2.23017 
         1.8592         7.89059         2.21235 
        1.86533          7.8666         2.19474 
        1.87147         7.82995          2.1773 
        1.87761         7.80052         2.16004 
        1.88375         7.74453         2.14299 
        1.88988         7.74097         2.12614 
        1.89601         7.69577         2.10946 
        1.90215         7.65454         2.09295 
        1.90829         7.62036         2.07663 
        1.91442          7.5872         2.06048 
        1.92056         7.56546         2.04451 
         1.9267         7.52237          2.0287 
        1.93284         7.48627         2.01304 
        1.93897         7.44793         1.99759 
        1.94509         7.42731         1.98232 
        1.95123         7.39427         1.96718 
        1.95737         7.35889         1.95219 
        1.96349         7.33355         1.93739 
        1.96964         7.29163          1.9227 
        1.97578         7.26103         1.90816 
        1.98192          7.2343         1.89379 
        1.98805         7.21069         1.87958 
        1.99419         7.17294         1.86551 
        2.00033         7.15932         1.85157 
        2.00647         7.12019         1.83778 
         2.0126         7.08688         1.82416 
        2.01874         7.06107         1.81066 
        2.02488         7.02621         1.79727 
        2.03101         6.99855         1.78405 
        2.03714         6.96247         1.77098 
        2.04328         6.94437         1.75802 
        2.04941          6.9044          1.7452 
        2.05554         6.88802         1.73252 
        2.06167         6.84789         1.71995 
        2.06781         6.83607          1.7075 
        2.07396         6.81262         1.69516 
        2.08009         6.77658         1.68296 
        2.08622         6.74008         1.67089 
        2.09237         6.73028         1.65892 
        2.09851         6.71006         1.64707 
        2.10464         6.67131         1.63535 
        2.11077         6.62974         1.62376 
        2.11691         6.60587         1.61225 
        2.12305         6.58809         1.60086 
        2.12918         6.57241          1.5896 
        2.13531         6.53895         1.57845 
        2.14145         6.51716         1.56738 
         2.1476          6.4847         1.55641 
        2.15372         6.46409          1.5456 
        2.15985           6.455         1.53487 
        2.16599         6.41287         1.52422 
        2.17213         6.39756         1.51368 
        2.17827         6.37528         1.50325 
         2.1844         6.34446         1.49292 
        2.19054         6.30312         1.48269 
        2.19666         6.29472         1.47256 
         2.2028         6.27025         1.46252 
        2.20893         6.25358         1.45257 
        2.21508         6.21929         1.44271 
        2.22122         6.19194         1.43293 
        2.22736         6.17724         1.42326 
        2.23349         6.15418         1.41368 
        2.23962         6.13814         1.40419 
        2.24577         6.10589         1.39477 
         2.2519         6.09276         1.38546 
        2.25802         6.05994         1.37624 
        2.26417         6.03976         1.36708 
        2.27031         6.01335           1.358 
        2.27644         5.99204         1.34903 
        2.28257         5.97259         1.34014 
        2.28872          5.9527         1.33131 
        2.29486         5.93214         1.32256 
        2.30099         5.91583         1.31391 
        2.30712         5.89301         1.30534 
        2.31326         5.85465         1.29682 
         2.3194         5.84206         1.28839 
        2.32553         5.83148         1.28004 
        2.33166         5.80837         1.27178 
         2.3378         5.78218         1.26357 
        2.34394         5.76363         1.25544 
        2.35007         5.73569         1.24739 
        2.35619         5.71862         1.23941 
        2.36233         5.69812         1.23149 
        2.36848         5.68162         1.22363 
        2.37462         5.66504         1.21584 
        2.38075         5.64554         1.20814 
        2.38689          5.6252         1.20049 
        2.39303          5.5964         1.19291 
        2.39916         5.58157         1.18541 
        2.40529          5.5631         1.17797 
        2.41143         5.54105         1.17058 
        2.41757         5.54066         1.16326 
         2.4237         5.51159         1.15602 
        2.42983         5.48904         1.14883 
        2.43598         5.47473         1.14169 
        2.44211          5.4516         1.13462 
        2.44823         5.43831         1.12763 
        2.45437         5.41883         1.12068 
        2.46052         5.39231         1.11378 
        2.46665         5.37911         1.10695 
        2.47279         5.35446         1.10018 
        2.47892         5.33455         1.09346 
        2.48507         5.32356         1.08679 
         2.4912         5.29938         1.08019 
