# k  (h/Mpc)    P(k)  (Mpc/h)^3    P_linear(k)  (Mpc/h)^3
     0.00783031         445.078         449.664 
       0.013688         557.813         559.804 
       0.019231         567.703         568.173 
      0.0249154         522.397         524.586 
      0.0312784         452.322         452.409 
      0.0375637         384.707         383.757 
      0.0433917         333.727          333.66 
      0.0492413         298.693         298.125 
      0.0555754         271.984         272.533 
      0.0619321         254.914         254.034 
       0.067871         237.453         237.921 
      0.0738098         219.302         219.813 
      0.0800417         197.303         198.062 
      0.0862327         175.195          175.32 
      0.0921407          155.12         154.972 
      0.0982031         137.445         137.483 
       0.104506         124.565          123.91 
       0.110769         115.282         114.768 
       0.116806         108.869         108.883 
       0.122832          104.63         104.372 
       0.129052         99.5331         99.6882 
       0.135211         93.9101         94.0964 
       0.141259         87.6533         87.5155 
       0.147318         80.7196         80.3011 
       0.153489         73.3743         73.1021 
       0.159709         67.0986         66.7519 
       0.165845         62.5175         61.8012 
       0.171974         58.5221         58.1929 
       0.178125         56.0185         55.6278 
       0.184229         54.1226         53.6674 
        0.19034          51.907         51.8111 
       0.196428         50.0283         49.7164 
       0.202534         47.8089         47.2295 
       0.208729         44.8165         44.3915 
       0.214876         41.8021         41.4909 
       0.220989         39.3835          38.783 
       0.227147         36.7888         36.4318 
        0.23329         34.9171         34.5447 
       0.239377         33.5318         33.0916 
       0.245482         32.2047         31.9285 
       0.251667         31.3657         30.8889 
       0.257832         30.2508         29.8464 
       0.263955          29.148         28.7147 
       0.270079         27.9156         27.4692 
        0.27624         26.7504         26.1502 
       0.282372         25.4579         24.8494 
        0.28843         24.1734          23.656 
       0.294538         23.1231         22.5961 
       0.300721         22.3328         21.6865 
        0.30691         21.4261         20.9181 
       0.313033         20.7743          20.252 
       0.319153         19.9723         19.6281 
       0.325316         19.5732         18.9989 
        0.33145         18.8796         18.3483 
       0.337538         18.2152         17.6787 
       0.343633           17.49         17.0011 
       0.349808         16.8849         16.3343 
       0.355968         16.2682         15.7112 
       0.362074          15.686         15.1518 
       0.368217         15.1967         14.6477 
       0.374374         14.6798         14.1938 
       0.380519         14.3123         13.7763 
       0.386598         13.9375         13.3807 
       0.392688         13.5796         12.9905 
        0.39888         13.1532         12.5923 
       0.405048         12.7746         12.1946 
       0.411186         12.3991         11.8047 
       0.417313         11.9741         11.4279 
       0.423458         11.6437         11.0698 
       0.429607         11.2783         10.7363 
       0.435692         10.9595         10.4295 
       0.441815         10.6854         10.1412 
       0.447964         10.4638         9.86788 
       0.454126         10.1259         9.60429 
       0.460267         9.88335         9.34717 
       0.466387          9.5918         9.09543 
        0.47254         9.37857         8.84676 
       0.478662         9.15877         8.60469 
       0.484765         8.88757          8.3712 
       0.490885         8.66396         8.14732 
       0.497035         8.51804         7.93352 
       0.503198         8.27876         7.72985 
       0.509342          8.0851         7.53647 
       0.515458         7.88431         7.35228 
       0.521598          7.7142         7.17382 
       0.527764         7.51491         6.99941 
       0.533884         7.38009         6.83017 
           0.54         7.20078         6.66531 
       0.546137          7.0495         6.50455 
       0.552299         6.89638         6.34824 
       0.558452         6.70312         6.19754 
       0.564573         6.58698         6.05308 
       0.570708         6.44527          5.9139 
       0.576825         6.28557         5.78053 
       0.582926         6.17454         5.65219 
       0.589034         6.00299         5.52766 
       0.595184         5.89723         5.40568 
       0.601379         5.76834         5.28601 
       0.607522         5.67727         5.17055 
       0.613639         5.58677         5.05886 
       0.619772         5.43475         4.95022 
       0.625918          5.3544         4.84469 
       0.632068         5.26489         4.74234 
       0.638161         5.13989         4.64401 
         0.6443         5.03512         4.54793 
       0.650464          4.9254         4.45439 
       0.656582         4.86147         4.36427 
       0.662703         4.76912         4.27667 
       0.668861         4.69157         4.19098 
       0.675024          4.5901         4.10752 
       0.681124          4.4986         4.02708 
       0.687237         4.43391         3.94855 
       0.693381         4.35705         3.87172 
       0.699536         4.24366         3.79681 
       0.705665         4.18124         3.72424 
       0.711789         4.11511         3.65372 
       0.717957         4.03669         3.58464 
        0.72409         3.96857          3.5178 
       0.730186         3.90084         3.45312 
       0.736317         3.86022         3.38974 
       0.742472         3.79235         3.32772 
       0.748622         3.71845          3.2673 
        0.75476         3.64391          3.2085 
       0.760888         3.58871         3.15122 
       0.767043         3.54815          3.0951 
       0.773185         3.47357         3.04047 
       0.779291         3.42931         2.98748 
       0.785407         3.37157          2.9357 
       0.791564         3.32133         2.88483 
       0.797719           3.273         2.83522 
       0.803834         3.22913          2.7871 
       0.809972          3.1799         2.73995 
       0.816124         3.12055         2.69381 
       0.822261         3.06536         2.64886 
       0.828378         3.02749         2.60508 
       0.834502         2.99484         2.56227 
       0.840667          2.9304         2.52015 
       0.846816         2.88688          2.4791 
       0.852925         2.86041         2.43923 
       0.859047         2.81795         2.40016 
       0.865192         2.77677         2.36183 
       0.871341         2.73988         2.32432 
       0.877463         2.70585         2.28779 
       0.883569         2.65634         2.25216 
       0.889708         2.61702          2.2171 
       0.895864         2.58438         2.18271 
       0.902008         2.54251         2.14912 
       0.908149         2.51332         2.11627 
       0.914301          2.4655         2.08406 
       0.920448         2.43672         2.05256 
       0.926574          2.4016         2.02182 
       0.932687         2.37197         1.99178 
       0.938823         2.34901         1.96225 
       0.944975          2.3149         1.93325 
       0.951105         2.28751         1.90495 
       0.957225          2.2674         1.87727 
       0.963368         2.23349         1.85005 
       0.969511         2.19977         1.82337 
       0.975621         2.16597         1.79737 
       0.981748         2.14728         1.77181 
       0.987916         2.11743         1.74659 
        0.99406         2.08425         1.72196 
        1.00019         2.06587         1.69785 
        1.00632         2.03569         1.67424 
        1.01246         2.01201         1.65104 
        1.01859         1.98981         1.62831 
        1.02471         1.96202         1.60605 
        1.03085         1.94314         1.58413 
        1.03698         1.91483         1.56267 
        1.04314         1.89599         1.54152 
        1.04929         1.86991         1.52081 
        1.05541         1.85062         1.50057 
        1.06154          1.8273         1.48065 
        1.06769         1.80728         1.46106 
        1.07382         1.78545          1.4419 
        1.07993         1.75861         1.42312 
        1.08607         1.74906         1.40461 
        1.09222         1.72392          1.3864 
        1.09836         1.71132         1.36855 
        1.10449         1.69071         1.35103 
        1.11063         1.66624          1.3338 
        1.11677         1.64652         1.31688 
         1.1229         1.62977         1.30028 
        1.12903         1.60954         1.28396 
        1.13518         1.59692          1.2679 
        1.14131         1.57441         1.25213 
        1.14745         1.54844         1.23664 
        1.15359         1.54067         1.22142 
        1.15973         1.51696         1.20644 
        1.16584         1.51142         1.19178 
        1.17197         1.49208         1.17735 
        1.17811         1.47751         1.16311 
        1.18424         1.46605         1.14915 
        1.19038         1.44577         1.13538 
        1.19652         1.42883         1.12185 
        1.20267         1.41934         1.10853 
        1.20881         1.39884         1.09544 
        1.21495         1.38934         1.08258 
        1.22108           1.375         1.06993 
         1.2272         1.36452         1.05751 
        1.23334          1.3466         1.04526 
        1.23949         1.33193         1.03318 
        1.24562         1.32142         1.02132 
        1.25174         1.30739         1.00967 
        1.25789         1.29547        0.998163 
        1.26402         1.27804        0.986858 
        1.27014         1.26621        0.975756 
        1.27628         1.26033        0.964793 
        1.28244         1.24123        0.953979 
        1.28858         1.23125        0.943345 
        1.29471         1.22042        0.932898 
        1.30084         1.20676         0.92262 
        1.30697         1.19644        0.912482 
        1.31312         1.17951        0.902482 
        1.31925         1.17348        0.892665 
        1.32537         1.16295        0.883004 
        1.33151         1.15328        0.873452 
        1.33765         1.14056        0.864049 
        1.34378         1.12699        0.854803 
        1.34992         1.12181        0.845686 
        1.35606          1.1074        0.836684 
         1.3622         1.09987        0.827829 
        1.36833         1.08865        0.819124 
        1.37445         1.07587         0.81055 
        1.38059          1.0673        0.802072 
        1.38675           1.065        0.793697 
        1.39288         1.04994        0.785475 
        1.39901         1.04083        0.777373 
        1.40515         1.03248        0.769369 
         1.4113         1.02212         0.76148 
        1.41742         1.01311        0.753733 
        1.42355         1.00974         0.74608 
         1.4297        0.995315         0.73851 
        1.43585        0.987851        0.731049 
        1.44198        0.983649        0.723719 
        1.44809         0.97002        0.716505 
        1.45423          0.9628        0.709362 
        1.46036        0.955003         0.70233 
        1.46649        0.946784        0.695391 
        1.47263        0.938117        0.688541 
        1.47877        0.929082        0.681786 
        1.48491        0.921665        0.675112 
        1.49104        0.913325        0.668542 
        1.49718        0.908401        0.662054 
        1.50333        0.899223        0.655643 
        1.50947        0.893416         0.64933 
         1.5156        0.884617         0.64311 
        1.52172        0.877553        0.636972 
        1.52787          0.8695        0.630902 
          1.534        0.864496        0.624918 
        1.54013         0.85447        0.619019 
        1.54627        0.848044        0.613185 
        1.55241        0.840788        0.607426 
        1.55855        0.834105        0.601749 
        1.56467        0.830168        0.596161 
         1.5708        0.820438        0.590629 
        1.57695        0.816659        0.585158 
        1.58308        0.809761        0.579769 
        1.58922        0.802833        0.574445 
        1.59535        0.796788         0.56919 
         1.6015        0.790727        0.563994 
        1.60764        0.785341        0.558866 
        1.61376        0.777069        0.553815 
        1.61989        0.772888        0.548823 
        1.62604        0.766092        0.543882 
        1.63218        0.762252        0.539005 
        1.63831        0.754581        0.534199 
        1.64444        0.748737         0.52945 
        1.65059         0.74402        0.524748 
        1.65673        0.737409        0.520108 
        1.66285        0.731972        0.515538 
        1.66898        0.728549        0.511021 
        1.67512        0.720512        0.506549 
        1.68127        0.715282        0.502127 
         1.6874        0.712357        0.497768 
        1.69353        0.705216        0.493464 
        1.69967         0.70027          0.4892 
        1.70581        0.695795        0.484989 
        1.71193        0.690466        0.480843 
        1.71806         0.68573        0.476737 
        1.72421        0.680476        0.472672 
        1.73035        0.674755        0.468658 
        1.73649        0.671589        0.464692 
        1.74262        0.666578        0.460775 
        1.74876        0.660846        0.456901 
        1.75489        0.655921         0.45308 
        1.76101        0.651054        0.449304 
        1.76715        0.646915        0.445565 
        1.77329        0.642637        0.441865 
        1.77943        0.637513        0.438205 
        1.78557        0.633209        0.434592 
        1.79171        0.629638         0.43102 
        1.79785        0.624826        0.427487 
        1.80399        0.620435        0.423994 
        1.81012         0.61689        0.420546 
        1.81625        0.611886        0.417137 
        1.82239        0.608755        0.413761 
        1.82853        0.601841        0.410424 
        1.83466         0.59935        0.407127 
        1.84078        0.594439        0.403871 
        1.84692        0.591844        0.400644 
        1.85306        0.587632        0.397449 
         1.8592        0.584224        0.394294 
        1.86533        0.580235        0.391175 
        1.87147        0.576048        0.388087 
        1.87761        0.572683         0.38503 
        1.88375        0.566818         0.38201 
        1.88988        0.564818        0.379026 
        1.89601        0.560317        0.376072 
        1.90215        0.557414        0.373147 
        1.90829        0.552898        0.370255 
        1.91442         0.54944        0.367394 
        1.92056        0.546302        0.364565 
         1.9267        0.542079        0.361763 
        1.93284        0.539416        0.358989 
        1.93897         0.53587         0.35625 
        1.94509        0.532485        0.353545 
        1.95123        0.528326        0.350861 
        1.95737        0.525696        0.348203 
        1.96349        0.521659         0.34558 
        1.96964        0.518729        0.342976 
        1.97578        0.515124        0.340398 
        1.98192        0.513418        0.337852 
        1.98805          0.5092        0.335332 
        1.99419         0.50605        0.332837 
        2.00033        0.503765        0.330367 
        2.00647        0.499985        0.327922 
         2.0126        0.496665        0.325506 
        2.01874        0.494075        0.323111 
        2.02488        0.491494        0.320739 
        2.03101        0.487223        0.318394 
        2.03714        0.484043        0.316075 
        2.04328        0.482276        0.313777 
        2.04941        0.479046        0.311503 
        2.05554         0.47589        0.309254 
        2.06167        0.473381        0.307023 
        2.06781        0.469204        0.304815 
        2.07396        0.466364        0.302625 
        2.08009        0.464113        0.300461 
        2.08622        0.461458         0.29832 
        2.09237        0.460041        0.296196 
        2.09851        0.457074        0.294092 
        2.10464        0.454184        0.292012 
        2.11077        0.451098        0.289955 
        2.11691        0.448251        0.287913 
        2.12305        0.445721        0.285891 
        2.12918         0.44324        0.283893 
        2.13531        0.440423        0.281914 
        2.14145        0.438254         0.27995 
         2.1476        0.435451        0.278002 
        2.15372         0.43396        0.276082 
        2.15985        0.430314        0.274179 
        2.16599        0.427431        0.272288 
        2.17213        0.425712        0.270417 
        2.17827        0.423957        0.268564 
         2.1844        0.421689         0.26673 
        2.19054        0.419119        0.264913 
        2.19666        0.415902        0.263115 
         2.2028        0.414187        0.261332 
        2.20893        0.411885        0.259566 
        2.21508        0.409367        0.257813 
        2.22122         0.40631        0.256076 
        2.22736        0.404515        0.254359 
        2.23349        0.403062        0.252657 
        2.23962        0.400741        0.250971 
        2.24577        0.397421        0.249298 
         2.2519        0.396274        0.247644 
        2.25802        0.393548        0.246006 
        2.26417        0.391199        0.244379 
        2.27031        0.389044        0.242766 
        2.27644        0.387591        0.241171 
        2.28257        0.385143        0.239591 
        2.28872        0.383083        0.238023 
        2.29486        0.380757        0.236468 
        2.30099        0.378916        0.234931 
        2.30712        0.377344        0.233407 
        2.31326        0.374734        0.231893 
         2.3194        0.374314        0.230394 
        2.32553        0.372009        0.228911 
        2.33166        0.369921        0.227442 
         2.3378        0.367944        0.225983 
        2.34394        0.364656        0.224537 
        2.35007        0.363383        0.223106 
        2.35619        0.361516        0.221688 
        2.36233        0.358921         0.22028 
        2.36848        0.357967        0.218881 
        2.37462        0.355554        0.217498 
        2.38075        0.354717        0.216127 
        2.38689        0.352148        0.214767 
        2.39303        0.351195         0.21342 
        2.39916        0.348314        0.212085 
        2.40529        0.346864        0.210761 
        2.41143        0.345422        0.209449 
        2.41757        0.343471        0.208146 
         2.4237          0.3418        0.206857 
        2.42983        0.340177         0.20558 
        2.43598        0.338808        0.204309 
        2.44211         0.33713        0.203052 
        2.44823        0.335728        0.201808 
        2.45437        0.333006        0.200571 
        2.46052        0.332383        0.199343 
        2.46665        0.330162        0.198128 
        2.47279        0.328417        0.196923 
        2.47892        0.326709        0.195728 
        2.48507        0.325388        0.194541 
         2.4912        0.323901        0.193367 
