# k  (h/Mpc)    Pcb(k)  (Mpc/h)^3    Pcb_linear(k)  (Mpc/h)^3
     0.00783031         7413.41         7502.01 
       0.013688         9934.15         9883.05 
       0.019231         10583.9           10584 
      0.0249154         10162.4         10335.5 
      0.0312784         9370.44         9466.09 
      0.0375637         8408.21         8437.47 
      0.0433917         7433.84         7569.46 
      0.0492413         6803.82         6872.14 
      0.0555754         6134.03         6312.89 
      0.0619321         5870.63         5895.15 
       0.067871         5408.35         5561.89 
      0.0738098         5071.83         5225.77 
      0.0800417          4641.2         4837.99 
      0.0862327         4278.95         4419.19 
      0.0921407         3928.87         4013.92 
      0.0982031         3534.01         3626.37 
       0.104506         3282.83         3283.32 
       0.110769          3018.6         3016.43 
       0.116806         2810.08         2824.93 
       0.122832         2682.79         2682.03 
       0.129052          2515.7         2562.16 
       0.135211            2407          2448.8 
       0.141259         2315.58         2327.66 
       0.147318         2196.98         2191.44 
       0.153489         2030.16         2041.67 
       0.159709         1915.19         1890.19 
       0.165845         1826.48         1751.94 
       0.171974         1705.75         1633.56 
       0.178125         1616.92         1537.94 
       0.184229         1552.11          1464.2 
        0.19034         1458.71         1405.82 
       0.196428         1438.51         1355.66 
       0.202534         1396.75         1306.45 
       0.208729         1336.36         1252.77 
       0.214876         1273.04         1194.19 
       0.220989         1236.95         1132.14 
       0.227147          1170.2         1069.25 
        0.23329         1122.21         1010.02 
       0.239377         1098.31         957.817 
       0.245482         1027.11         913.326 
       0.251667         1018.55         875.941 
       0.257832         983.142         844.646 
       0.263955         953.035         817.043 
       0.270079         923.331         790.473 
        0.27624         914.616         763.078 
       0.282372         876.047         734.379 
        0.28843         859.636         704.884 
       0.294538         819.367         674.984 
       0.300721         815.439         645.803 
        0.30691         779.029         618.824 
       0.313033         764.154         594.935 
       0.319153         743.488         573.943 
       0.325316         721.403         555.225 
        0.33145         703.122         538.297 
       0.337538         695.709         522.333 
       0.343633         675.037         506.564 
       0.349808         654.326         490.419 
       0.355968          649.73         474.109 
       0.362074         637.781         457.979 
       0.368217          620.82         442.151 
       0.374374         597.423         427.089 
       0.380519         592.611         413.092 
       0.386598          579.53         400.378 
       0.392688         576.775         388.675 
        0.39888         560.272         377.615 
       0.405048         550.755         367.191 
       0.411186          540.78         357.137 
       0.417313         531.402         347.252 
       0.423458         523.055         337.441 
       0.429607         512.418         327.734 
       0.435692         501.175         318.343 
       0.441815         498.369         309.232 
       0.447964         488.719         300.506 
       0.454126         474.393         292.242 
       0.460267         468.875         284.497 
       0.466387         463.774         277.197 
        0.47254         454.699         270.195 
       0.478662         453.389         263.489 
       0.484765         441.054         256.993 
       0.490885         436.425         250.613 
       0.497035         429.205         244.331 
       0.503198         421.557         238.192 
       0.509342         418.487         232.251 
       0.515458          414.23         226.538 
       0.521598         407.182         221.027 
       0.527764         399.497         215.736 
       0.533884         396.899         210.709 
           0.54         391.748          205.88 
       0.546137         390.522         201.201 
       0.552299         382.952          196.65 
       0.558452         379.729         192.234 
       0.564573         373.625         187.953 
       0.570708         367.953         183.765 
       0.576825         362.497         179.699 
       0.582926         359.937         175.764 
       0.589034           355.9         171.951 
       0.595184         352.906         168.242 
       0.601379         349.618          164.63 
       0.607522         343.491         161.165 
       0.613639         342.355         157.823 
       0.619772         334.026         154.574 
       0.625918         332.862         151.411 
       0.632068          328.57         148.332 
       0.638161         327.341         145.359 
         0.6443         321.571         142.438 
       0.650464         319.272         139.583 
       0.656582         318.072         136.826 
       0.662703         314.688         134.147 
       0.668861         309.709          131.53 
       0.675024         306.872         128.987 
       0.681124         305.824          126.54 
       0.687237         301.761         124.154 
       0.693381         297.684         121.819 
       0.699536         295.531         119.539 
       0.705665         294.291         117.326 
       0.711789         290.234         115.171 
       0.717957         288.504         113.055 
        0.72409          285.51         111.005 
       0.730186          282.32         109.019 
       0.736317         280.056         107.071 
       0.742472         278.901         105.165 
       0.748622         276.768         103.308 
        0.75476          274.45           101.5 
       0.760888         270.781         99.7395 
       0.767043         270.138         98.0139 
       0.773185         266.939         96.3332 
       0.779291         262.714          94.702 
       0.785407          262.11         93.1068 
       0.791564           259.8         91.5387 
       0.797719         257.191         90.0079 
       0.803834         255.931         88.5224 
       0.809972         253.548         87.0655 
       0.816124         253.951         85.6386 
       0.822261          249.74         84.2479 
       0.828378         248.248         82.8927 
       0.834502         247.917         81.5665 
       0.840667         243.839          80.261 
       0.846816         243.036         78.9881 
       0.852925         241.092         77.7511 
       0.859047         239.349         76.5383 
       0.865192         237.837         75.3476 
       0.871341         235.303         74.1818 
       0.877463         234.065         73.0461 
       0.883569         232.104         71.9374 
       0.889708         230.569         70.8463 
       0.895864         227.908         69.7752 
       0.902008         227.352         68.7288 
       0.908149         226.142         67.7048 
       0.914301         223.703         66.7002 
       0.920448         222.084         65.7171 
       0.926574         221.076         64.7576 
       0.932687         220.122         63.8194 
       0.938823         217.744         62.8967 
       0.944975         216.222         61.9903 
       0.951105         215.254         61.1053 
       0.957225          212.81         60.2392 
       0.963368         210.994         59.3871 
       0.969511         210.069         58.5516 
       0.975621         208.748         57.7369 
       0.981748         208.547         56.9358 
       0.987916         205.787          56.145 
        0.99406         204.771         55.3723 
        1.00019         204.207         54.6159 
        1.00632         202.302         53.8744 
        1.01246         201.115         53.1457 
        1.01859         199.651         52.4318 
        1.02471         198.748          51.732 
        1.03085         196.622         51.0427 
        1.03698         195.353         50.3675 
        1.04314         194.393         49.7018 
        1.04929         192.787         49.0498 
        1.05541         192.116         48.4123 
        1.06154         190.766         47.7846 
        1.06769         190.551         47.1671 
        1.07382         189.152         46.5628 
        1.07993         187.663         45.9705 
        1.08607         186.381         45.3861 
        1.09222         185.362         44.8114 
        1.09836         183.787         44.2474 
        1.10449         182.473         43.6938 
        1.11063         181.447         43.1492 
        1.11677         180.919         42.6142 
         1.1229         179.026         42.0892 
        1.12903         178.287         41.5727 
        1.13518         177.984         41.0645 
        1.14131         176.174         40.5652 
        1.14745         175.572         40.0745 
        1.15359         174.183         39.5919 
        1.15973         173.926         39.1172 
        1.16584         172.167         38.6524 
        1.17197          171.38         38.1946 
        1.17811         170.471         37.7429 
        1.18424         169.387         37.2998 
        1.19038         168.774         36.8626 
        1.19652         167.669         36.4327 
        1.20267         166.607         36.0097 
        1.20881         165.566         35.5936 
        1.21495         164.561         35.1847 
        1.22108         163.897         34.7824 
         1.2272          162.67         34.3874 
        1.23334         161.715         33.9976 
        1.23949          159.98          33.613 
        1.24562         159.879         33.2355 
        1.25174         158.083         32.8644 
        1.25789          157.67         32.4979 
        1.26402         156.987         32.1376 
        1.27014         155.854         31.7838 
        1.27628          155.23         31.4342 
        1.28244         154.394         31.0893 
        1.28858         153.593           30.75 
        1.29471         152.051         30.4166 
        1.30084         151.458         30.0885 
        1.30697         150.705         29.7648 
        1.31312         150.387         29.4454 
        1.31925         149.014         29.1317 
        1.32537         148.644          28.823 
        1.33151         146.972         28.5176 
        1.33765         146.614         28.2169 
        1.34378         145.552         27.9212 
        1.34992         145.339         27.6295 
        1.35606         144.265         27.3414 
         1.3622         143.393         27.0579 
        1.36833         142.588         26.7791 
        1.37445         141.563         26.5045 
        1.38059         141.391         26.2329 
        1.38675         140.174         25.9644 
        1.39288         139.662         25.7009 
        1.39901         139.057         25.4411 
        1.40515         138.315         25.1843 
         1.4113         136.693         24.9313 
        1.41742         136.666         24.6827 
        1.42355         135.586          24.437 
         1.4297          134.81          24.194 
        1.43585         133.918         23.9544 
        1.44198          133.71          23.719 
        1.44809         132.529         23.4872 
        1.45423         131.609         23.2577 
        1.46036         131.319         23.0316 
        1.46649         130.667         22.8085 
        1.47263          130.15         22.5883 
        1.47877         129.363          22.371 
        1.48491          128.37         22.1563 
        1.49104         127.674         21.9448 
        1.49718         126.868          21.736 
        1.50333         126.266         21.5296 
        1.50947         125.425         21.3263 
         1.5156         125.188          21.126 
        1.52172         124.178         20.9282 
        1.52787          123.94         20.7326 
          1.534         123.239         20.5398 
        1.54013         122.192         20.3496 
        1.54627         121.583         20.1615 
        1.55241         120.999         19.9758 
        1.55855         120.538         19.7926 
        1.56467         119.801         19.6123 
         1.5708         119.004         19.4337 
        1.57695          118.73         19.2571 
        1.58308         117.552         19.0832 
        1.58922         117.549         18.9112 
        1.59535         116.802         18.7415 
         1.6015         116.234         18.5736 
        1.60764         115.437         18.4078 
        1.61376         114.928         18.2446 
        1.61989         114.438         18.0832 
        1.62604         113.551         17.9234 
        1.63218         113.331         17.7656 
        1.63831         112.494         17.6102 
        1.64444         111.956         17.4565 
        1.65059         111.185         17.3043 
        1.65673         110.521         17.1541 
        1.66285         110.313         17.0062 
        1.66898         109.491         16.8599 
        1.67512          108.92         16.7151 
        1.68127         108.272         16.5718 
         1.6874         107.747         16.4306 
        1.69353         107.199         16.2911 
        1.69967         106.616         16.1529 
        1.70581         106.214         16.0164 
        1.71193         105.746          15.882 
        1.71806         104.824         15.7488 
        1.72421         104.594         15.6169 
        1.73035         103.819         15.4867 
        1.73649         103.338          15.358 
        1.74262         102.859         15.2309 
        1.74876         102.325         15.1051 
        1.75489         101.642         14.9811 
        1.76101         101.324         14.8584 
        1.76715         100.606          14.737 
        1.77329         100.253         14.6168 
        1.77943         99.7946         14.4979 
        1.78557         99.3068         14.3805 
        1.79171         98.6664         14.2644 
        1.79785         98.2526         14.1496 
        1.80399         97.7345          14.036 
        1.81012         97.3035         13.9238 
        1.81625         96.6454          13.813 
        1.82239         96.2344         13.7031 
        1.82853         95.9288         13.5946 
        1.83466         95.1688         13.4873 
        1.84078         94.8624         13.3813 
        1.84692         94.2402         13.2762 
        1.85306         93.7317         13.1722 
         1.8592         93.0965         13.0695 
        1.86533         92.7438         12.9679 
        1.87147         92.0563         12.8673 
        1.87761         91.7702         12.7677 
        1.88375         91.5232         12.6693 
        1.88988         90.9042          12.572 
        1.89601         90.3855         12.4757 
        1.90215         90.0334         12.3804 
        1.90829         89.5739          12.286 
        1.91442         89.0483         12.1927 
        1.92056         88.5852         12.1005 
         1.9267         88.1735          12.009 
        1.93284         87.3962         11.9185 
        1.93897         87.1901         11.8291 
        1.94509         86.5727         11.7408 
        1.95123         86.2306         11.6532 
        1.95737         86.1203         11.5665 
        1.96349         85.4755         11.4808 
        1.96964          84.849         11.3958 
        1.97578         84.6942         11.3116 
        1.98192         84.2093         11.2284 
        1.98805         83.7612          11.146 
        1.99419         83.1614         11.0645 
        2.00033         82.9622         10.9838 
        2.00647         82.5172         10.9039 
         2.0126         81.9443         10.8249 
        2.01874         81.5018         10.7466 
        2.02488         81.3323          10.669 
        2.03101         80.9158         10.5923 
        2.03714         80.2587         10.5164 
        2.04328         79.9747         10.4412 
        2.04941         79.4054         10.3668 
        2.05554         79.1092         10.2932 
        2.06167         78.9125         10.2202 
        2.06781          78.339         10.1479 
        2.07396         77.9425         10.0762 
        2.08009         77.6353         10.0053 
        2.08622         77.1787         9.93522 
        2.09237         76.8928         9.86565 
        2.09851         76.5577         9.79673 
        2.10464         76.0832         9.72858 
        2.11077         75.5786         9.66117 
        2.11691         75.3433         9.59425 
        2.12305         74.9059         9.52797 
        2.12918         74.5081         9.46247 
        2.13531         74.1578         9.39759 
        2.14145         73.7379         9.33317 
         2.1476          73.551         9.26928 
        2.15372         73.1374         9.20631 
        2.15985         72.6714         9.14386 
        2.16599         72.3312         9.08182 
        2.17213         71.9885         9.02043 
        2.17827         71.6444         8.95961 
         2.1844         71.1091         8.89942 
        2.19054         70.8596         8.83976 
        2.19666         70.5797         8.78073 
         2.2028         70.3356          8.7222 
        2.20893         69.9326         8.66417 
        2.21508         69.5404          8.6066 
        2.22122         69.3342         8.54955 
        2.22736          68.833         8.49313 
        2.23349         68.5453         8.43723 
        2.23962         68.1239         8.38181 
        2.24577         67.7606         8.32684 
         2.2519         67.5321         8.27244 
        2.25802         67.1514         8.21862 
        2.26417         66.7719         8.16513 
        2.27031         66.5521         8.11206 
        2.27644         66.0869         8.05963 
        2.28257         65.8216         8.00766 
        2.28872         65.5442         7.95605 
        2.29486         65.2459         7.90492 
        2.30099          64.884         7.85433 
        2.30712         64.6024         7.80417 
        2.31326         64.1829         7.75437 
         2.3194         63.9843         7.70503 
        2.32553           63.59          7.6562 
        2.33166         63.2099         7.60783 
         2.3378         62.8777          7.5598 
        2.34394         62.4835         7.51218 
        2.35007         62.3118         7.46503 
        2.35619         62.0462         7.41835 
        2.36233         61.8113         7.37196 
        2.36848         61.3339         7.32587 
        2.37462         61.1342         7.28027 
        2.38075          60.872         7.23511 
        2.38689         60.5742          7.1903 
        2.39303         60.3304         7.14587 
        2.39916         60.1167         7.10187 
        2.40529         59.6943         7.05824 
        2.41143         59.3777         7.01495 
        2.41757          59.121           6.972 
         2.4237         58.8166         6.92949 
        2.42983         58.4688         6.88734 
        2.43598         58.2015         6.84544 
        2.44211         57.9254         6.80395 
        2.44823         57.6761          6.7629 
        2.45437         57.3005         6.72208 
        2.46052           56.99         6.68156 
        2.46665         56.8016         6.64145 
        2.47279         56.5686         6.60168 
        2.47892         56.3402         6.56221 
        2.48507         55.9944         6.52304 
         2.4912         55.8332         6.48425 
