# k  (h/Mpc)    P(k)  (Mpc/h)^3    P_linear(k)  (Mpc/h)^3
     0.00783031         12019.3         12115.1 
       0.013688         13683.8         14014.7 
       0.019231         13241.9         13415.5 
      0.0249154         11810.6         11760.2 
      0.0312784         9636.32         9682.23 
      0.0375637         7886.27         7970.43 
      0.0433917         6840.06         6840.41 
      0.0492413         6053.17          6091.3 
      0.0555754         5561.04         5555.31 
      0.0619321         4996.53         5125.53 
       0.067871         4654.04         4705.79 
      0.0738098         4219.88         4229.71 
      0.0800417         3716.31         3697.35 
      0.0862327         3212.08         3198.07 
      0.0921407          2839.9         2801.12 
      0.0982031         2570.39         2498.07 
       0.104506         2316.02         2286.92 
       0.110769         2185.46          2150.1 
       0.116806         2107.59          2048.5 
       0.122832         1978.32         1944.08 
       0.129052         1851.78         1814.45 
       0.135211         1742.76         1664.22 
       0.141259          1575.3         1509.35 
       0.147318         1426.06         1364.83 
       0.153489         1320.52         1242.47 
       0.159709         1255.02         1149.82 
       0.165845         1156.13         1085.05 
       0.171974         1135.49         1037.58 
       0.178125         1094.01         996.308 
       0.184229         1017.42         952.849 
        0.19034         987.736         902.579 
       0.196428         944.068         846.484 
       0.202534         869.261         788.405 
       0.208729         844.153         732.971 
       0.214876         799.935         685.495 
       0.220989         749.278         647.276 
       0.227147         730.676         616.927 
        0.23329          702.93         592.177 
       0.239377         693.187         570.024 
       0.245482         656.894         547.658 
       0.251667          629.86         523.504 
       0.257832         618.559         498.014 
       0.263955         582.668         472.429 
       0.270079         559.094         447.984 
        0.27624         534.685         425.766 
       0.282372         522.244          406.53 
        0.28843          516.31         390.177 
       0.294538         489.784         375.708 
       0.300721         475.522         362.217 
        0.30691         466.232         349.106 
       0.313033          444.53         336.047 
       0.319153         436.794         322.878 
       0.325316         427.757         309.707 
        0.33145         416.263         297.092 
       0.337538         400.304         285.375 
       0.343633         388.378         274.638 
       0.349808          378.01         264.763 
       0.355968         370.489          255.74 
       0.362074         357.555         247.384 
       0.368217         354.394         239.315 
       0.374374         346.855         231.425 
       0.380519         332.455         223.683 
       0.386598         328.072         216.186 
       0.392688         319.257         208.935 
        0.39888         311.334         201.903 
       0.405048         304.481         195.306 
       0.411186         302.888          189.16 
       0.417313         297.705         183.387 
       0.423458         289.418         177.904 
       0.429607         280.981         172.656 
       0.435692         276.651         167.635 
       0.441815         271.355         162.728 
       0.447964         264.441          157.95 
       0.454126         260.994          153.32 
       0.460267         256.945         148.881 
       0.466387         251.127         144.651 
        0.47254         247.943         140.598 
       0.478662         241.583         136.747 
       0.484765         238.137         133.072 
       0.490885         235.033         129.534 
       0.497035         230.877         126.107 
       0.503198         229.345         122.784 
       0.509342         223.577         119.575 
       0.515458          219.88         116.486 
       0.521598         215.366         113.492 
       0.527764         212.962         110.594 
       0.533884         211.455         107.824 
           0.54         207.425         105.158 
       0.546137         202.657         102.581 
       0.552299         201.006         100.087 
       0.558452         197.588          97.681 
       0.564573         196.427         95.3636 
       0.570708         191.913         93.1125 
       0.576825         189.092         90.9382 
       0.582926         187.336         88.8384 
       0.589034         184.232         86.8034 
       0.595184         182.716         84.8206 
       0.601379         179.618         82.8881 
       0.607522         175.526         81.0327 
       0.613639         174.667         79.2431 
       0.619772         173.137         77.5044 
       0.625918         171.013         75.8153 
       0.632068         167.575         74.1761 
       0.638161         166.582         72.5999 
         0.6443          164.72         71.0581 
       0.650464         161.799         69.5552 
       0.656582           160.5         68.1066 
       0.662703         159.312         66.6991 
       0.668861         155.921         65.3239 
       0.675024         155.655         63.9871 
       0.681124         153.377          62.702 
       0.687237         151.942         61.4501 
       0.693381         149.584         60.2271 
       0.699536         148.517         59.0355 
       0.705665         146.905         57.8815 
       0.711789         144.858         56.7595 
       0.717957         143.497         55.6597 
        0.72409         141.654         54.5953 
       0.730186          142.02         53.5653 
       0.736317         139.849         52.5565 
       0.742472         137.706         51.5702 
       0.748622         135.768         50.6103 
        0.75476         136.215         49.6772 
       0.760888         134.374         48.7692 
       0.767043         132.033         47.8806 
       0.773185         130.776         47.0161 
       0.779291         129.418          46.178 
       0.785407         128.625         45.3593 
       0.791564         127.471         44.5554 
       0.797719         125.396         43.7716 
       0.803834         125.757         43.0117 
       0.809972          124.35         42.2672 
       0.816124           122.2         41.5389 
       0.822261         121.496         40.8298 
       0.828378         121.022         40.1394 
       0.834502         119.657         39.4646 
       0.840667         119.126          38.801 
       0.846816         117.329         38.1546 
       0.852925         116.518         37.5271 
       0.859047          115.46         36.9125 
       0.865192         114.796         36.3098 
       0.871341         113.651         35.7201 
       0.877463         112.554         35.1464 
       0.883569         112.518         34.5867 
       0.889708         111.384         34.0365 
       0.895864         110.257         33.4969 
       0.902008         109.045         32.9702 
       0.908149         107.869         32.4552 
       0.914301         107.463         31.9505 
       0.920448         107.398          31.457 
       0.926574         105.361         30.9758 
       0.932687         105.327         30.5057 
       0.938823         104.511         30.0437 
       0.944975         103.649         29.5903 
       0.951105          102.62         29.1479 
       0.957225         102.147         28.7154 
       0.963368          101.22         28.2903 
       0.969511         100.497         27.8738 
       0.975621         99.1808          27.468 
       0.981748         98.8001         27.0692 
       0.987916         98.1437         26.6759 
        0.99406         97.6957          26.292 
        1.00019         96.8207         25.9164 
        1.00632         95.9539         25.5485 
        1.01246         95.4485         25.1873 
        1.01859         94.8763         24.8336 
        1.02471         94.2416         24.4872 
        1.03085         93.3559         24.1462 
        1.03698         92.6297         23.8125 
        1.04314         92.2048         23.4837 
        1.04929         91.7785         23.1619 
        1.05541         91.0271         22.8475 
        1.06154          90.234         22.5381 
        1.06769         89.7443          22.234 
        1.07382         89.1885         21.9366 
        1.07993         88.6541         21.6453 
        1.08607         88.1201         21.3581 
        1.09222         87.4773         21.0759 
        1.09836         86.8235         20.7991 
        1.10449         86.3322         20.5276 
        1.11063         85.7255         20.2607 
        1.11677         85.2634         19.9986 
         1.1229         84.4089         19.7416 
        1.12903         83.9842          19.489 
        1.13518         83.3982         19.2406 
        1.14131         83.0029         18.9967 
        1.14745         82.6371         18.7571 
        1.15359         81.7007         18.5217 
        1.15973         81.4828         18.2902 
        1.16584         80.9398         18.0638 
        1.17197         80.5469         17.8409 
        1.17811         79.8428          17.621 
        1.18424         79.3394         17.4056 
        1.19038         79.0265         17.1931 
        1.19652         78.5999         16.9843 
        1.20267         78.0275         16.7789 
        1.20881         77.4472          16.577 
        1.21495         77.0906         16.3788 
        1.22108          76.748         16.1838 
         1.2272         76.1752         15.9925 
        1.23334         75.9338         15.8039 
        1.23949         75.3729         15.6178 
        1.24562         74.7246         15.4353 
        1.25174         74.5889          15.256 
        1.25789         74.0375          15.079 
        1.26402         73.6883         14.9051 
        1.27014         73.0988         14.7344 
        1.27628         72.7463         14.5658 
        1.28244         72.6315         14.3996 
        1.28858         71.9455         14.2362 
        1.29471         71.5318         14.0757 
        1.30084         70.9645         13.9178 
        1.30697         70.8249         13.7622 
        1.31312         70.4289         13.6087 
        1.31925          69.806          13.458 
        1.32537         69.5459         13.3097 
        1.33151         69.3898         13.1632 
        1.33765         68.8241          13.019 
        1.34378         68.4178         12.8772 
        1.34992         68.2237         12.7374 
        1.35606          67.754         12.5995 
         1.3622         67.5558         12.4638 
        1.36833         66.9894         12.3304 
        1.37445         66.6502         12.1991 
        1.38059         66.3565         12.0692 
        1.38675         65.8045          11.941 
        1.39288          65.526         11.8151 
        1.39901         65.1393         11.6912 
        1.40515         64.8216         11.5687 
         1.4113         64.4993          11.448 
        1.41742         64.1252         11.3295 
        1.42355         63.9555         11.2125 
         1.4297         63.5216         11.0968 
        1.43585         63.2611         10.9828 
        1.44198         62.7557         10.8708 
        1.44809         62.3054         10.7606 
        1.45423         62.3321         10.6515 
        1.46036         61.8946         10.5441 
        1.46649         61.4345         10.4382 
        1.47263         61.1168         10.3336 
        1.47877         60.8923         10.2305 
        1.48491         60.4557         10.1287 
        1.49104         60.1301         10.0285 
        1.49718         59.8889         9.92954 
        1.50333         59.6757         9.83178 
        1.50947         59.3819         9.73554 
         1.5156         59.1879         9.64073 
        1.52172         58.6486         9.54719 
        1.52787         58.3789         9.45471 
          1.534         58.0588         9.36356 
        1.54013         57.9729         9.27371 
        1.54627          57.412         9.18488 
        1.55241         57.3822          9.0972 
        1.55855         56.7973         9.01079 
        1.56467         56.4179         8.92574 
         1.5708         56.3756         8.84155 
        1.57695         56.0095         8.75832 
        1.58308         55.7651         8.67635 
        1.58922         55.5467         8.59538 
        1.59535         55.4435         8.51547 
         1.6015          55.079         8.43647 
        1.60764         54.7719         8.35851 
        1.61376         54.5354         8.28175 
        1.61989         54.0408         8.20589 
        1.62604          53.966         8.13082 
        1.63218         53.6675         8.05674 
        1.63831         53.4654         7.98375 
        1.64444          53.249         7.91164 
        1.65059         52.8683         7.84025 
        1.65673         52.6559         7.76982 
        1.66285          52.307         7.70045 
        1.66898         52.0004         7.63191 
        1.67512          51.745         7.56407 
        1.68127         51.7051           7.497 
         1.6874         51.3526         7.43089 
        1.69353         51.0475         7.36562 
        1.69967         50.8772         7.30097 
        1.70581         50.6039         7.23714 
        1.71193         50.2972         7.17431 
        1.71806         50.1706         7.11209 
        1.72421         49.9201         7.05049 
        1.73035         49.6671         6.98969 
        1.73649         49.3807         6.92962 
        1.74262         49.0751         6.87031 
        1.74876         49.0353         6.81165 
        1.75489         48.7246          6.7538 
        1.76101         48.5386         6.69664 
        1.76715         48.2305         6.64007 
        1.77329          47.971         6.58408 
        1.77943         47.9333         6.52871 
        1.78557         47.6067         6.47406 
        1.79171         47.3197         6.42002 
        1.79785         47.1473         6.36659 
        1.80399         46.9455         6.31379 
        1.81012         46.6676         6.26165 
        1.81625         46.4702         6.21012 
        1.82239         46.2051          6.1591 
        1.82853         46.0405         6.10867 
        1.83466         45.7909         6.05886 
        1.84078         45.5597         6.00966 
        1.84692         45.5125         5.96092 
        1.85306         45.2145         5.91267 
         1.8592         44.9388         5.86502 
        1.86533         44.7952         5.81793 
        1.87147         44.5292          5.7713 
        1.87761         44.3447         5.72516 
        1.88375         44.1709         5.67958 
        1.88988         43.8798         5.63455 
        1.89601         43.8092         5.58998 
        1.90215         43.4824         5.54586 
        1.90829         43.3465         5.50224 
        1.91442         43.0605         5.45908 
        1.92056         42.9719         5.41643 
         1.9267         42.7675         5.37418 
        1.93284         42.5927         5.33237 
        1.93897         42.2445         5.29107 
        1.94509         42.1378         5.25031 
        1.95123         41.9463         5.20986 
        1.95737         41.8579         5.16982 
        1.96349         41.6193          5.1303 
        1.96964         41.3824         5.09108 
        1.97578         41.1852         5.05226 
        1.98192         40.9276         5.01391 
        1.98805         40.7039         4.97596 
        1.99419         40.6625         4.93841 
        2.00033         40.4539         4.90122 
        2.00647         40.2299         4.86442 
         2.0126         40.0709         4.82807 
        2.01874          40.002         4.79203 
        2.02488         39.7132         4.75633 
        2.03101         39.6085         4.72106 
        2.03714         39.3676         4.68618 
        2.04328         39.2441         4.65162 
        2.04941          38.897         4.61743 
        2.05554         38.8454         4.58361 
        2.06167         38.6863         4.55008 
        2.06781         38.5364         4.51688 
        2.07396         38.2566         4.48397 
        2.08009         38.1381         4.45144 
        2.08622         38.0228         4.41927 
        2.09237         37.7933         4.38736 
        2.09851         37.5695         4.35575 
        2.10464         37.4363         4.32451 
        2.11077         37.3169         4.29362 
        2.11691         37.1111         4.26295 
        2.12305         36.9404         4.23259 
        2.12918         36.7856         4.20259 
        2.13531         36.5214         4.17289 
        2.14145         36.4425          4.1434 
         2.1476         36.4142         4.11416 
        2.15372         36.2027         4.08535 
        2.15985         35.9522         4.05679 
        2.16599         35.7851         4.02842 
        2.17213         35.6901         4.00035 
        2.17827         35.5515         3.97256 
         2.1844         35.2826         3.94505 
        2.19054         35.2845          3.9178 
        2.19666         35.0616         3.89084 
         2.2028         34.8118         3.86412 
        2.20893         34.7266         3.83763 
        2.21508         34.5677         3.81136 
        2.22122         34.4013         3.78532 
        2.22736         34.2037         3.75959 
        2.23349         34.1266         3.73409 
        2.23962         33.9902         3.70883 
        2.24577         33.8052         3.68377 
         2.2519         33.6365         3.65898 
        2.25802          33.462         3.63446 
        2.26417         33.3024         3.61009 
        2.27031         33.1858         3.58592 
        2.27644         33.1194         3.56205 
        2.28257         32.9036         3.53839 
        2.28872          32.807         3.51491 
        2.29486         32.6653         3.49164 
        2.30099         32.5025         3.46863 
        2.30712         32.3492         3.44582 
        2.31326          32.241         3.42318 
         2.3194          32.075         3.40075 
        2.32553         31.9551         3.37856 
        2.33166         31.7819         3.35658 
         2.3378         31.6273         3.33476 
        2.34394         31.5213         3.31313 
        2.35007         31.4153         3.29173 
        2.35619         31.2506         3.27054 
        2.36233         31.0871         3.24948 
        2.36848         31.0225         3.22857 
        2.37462         30.7995         3.20788 
        2.38075         30.7427          3.1874 
        2.38689         30.5786         3.16708 
        2.39303         30.4655         3.14694 
        2.39916         30.2917         3.12699 
        2.40529         30.1971         3.10722 
        2.41143         30.1039         3.08761 
        2.41757         29.9809         3.06815 
         2.4237         29.8217          3.0489 
        2.42983         29.6668         3.02982 
        2.43598         29.5757         3.01085 
        2.44211         29.3866         2.99207 
        2.44823         29.2948         2.97349 
        2.45437         29.1881         2.95503 
        2.46052         29.0145          2.9367 
        2.46665         28.9607         2.91856 
        2.47279         28.7225         2.90058 
        2.47892         28.6894         2.88274 
        2.48507         28.5835         2.86504 
         2.4912          28.404         2.84751 
