# k  (h/Mpc)    Pcb(k)  (Mpc/h)^3    Pcb_linear(k)  (Mpc/h)^3
     0.00783031         1033.22         1043.12 
       0.013688          1330.5          1332.4 
       0.019231         1380.49         1380.67 
      0.0249154         1294.92         1302.48 
      0.0312784         1150.21         1151.62 
      0.0375637         1002.48         1000.26 
      0.0433917         884.074          885.79 
      0.0492413         802.163          801.58 
      0.0555754         734.177         737.817 
      0.0619321          691.54         688.927 
       0.067871         642.667         645.265 
      0.0738098         594.137         596.963 
      0.0800417         536.457         540.476 
      0.0862327         480.984          482.63 
      0.0921407         431.208         431.405 
      0.0982031         386.288         387.373 
       0.104506         354.688         352.723 
       0.110769          329.96         328.495 
       0.116806          311.26         311.797 
       0.122832         298.725         298.021 
       0.129052         282.495         283.526 
       0.135211         265.916         266.986 
       0.141259         248.931         248.522 
       0.147318         230.628         229.077 
       0.153489         211.051         210.165 
       0.159709         195.079         193.664 
       0.165845         183.747         180.713 
       0.171974         172.504         170.967 
       0.178125         165.308         163.573 
       0.184229         159.521         157.451 
        0.19034         151.813         151.442 
       0.196428         146.413         144.858 
       0.202534         140.202         137.464 
       0.208729         131.636         129.445 
       0.214876         123.172         121.542 
       0.220989         117.373         114.312 
       0.227147          109.98          108.05 
        0.23329         104.996         102.927 
       0.239377         101.283         98.8006 
       0.245482         96.8347         95.2843 
       0.251667         94.4882         91.9845 
       0.257832         91.0278         88.6536 
       0.263955         87.5392         85.1494 
       0.270079         83.9866         81.4646 
        0.27624         81.0147         77.7105 
       0.282372         77.4163         74.1108 
        0.28843         73.8411         70.8462 
       0.294538         70.9106         67.9304 
       0.300721         68.9305         65.3669 
        0.30691         66.1021         63.1106 
       0.313033         64.1174         61.0744 
       0.319153         61.3609         59.1187 
       0.325316         60.3377         57.1537 
        0.33145         58.1156         55.1666 
       0.337538          56.339         53.1841 
       0.343633         54.2362         51.2309 
       0.349808         52.5382         49.3412 
       0.355968          50.856         47.5865 
       0.362074          49.191         45.9938 
       0.368217         47.7682          44.532 
       0.374374         46.2416         43.1775 
       0.380519         45.1202         41.9028 
       0.386598         43.9294         40.6829 
       0.392688         42.9141         39.4808 
        0.39888         41.6118         38.2738 
       0.405048         40.5546         37.0904 
       0.411186         39.5157         35.9471 
       0.417313         38.1657         34.8553 
       0.423458         37.2001         33.8182 
       0.429607         36.1455          32.843 
       0.435692         35.1051         31.9362 
       0.441815         34.4091         31.0703 
       0.447964         33.8049         30.2376 
       0.454126         32.5823         29.4311 
       0.460267         31.9225         28.6476 
       0.466387         30.9731         27.8844 
        0.47254         30.4471          27.138 
       0.478662         29.8441         26.4192 
       0.484765         28.9862         25.7289 
       0.490885         28.2973         25.0656 
       0.497035         27.9155         24.4294 
       0.503198         27.1841           23.82 
       0.509342         26.5239         23.2364 
       0.515458         25.9276         22.6759 
       0.521598         25.4586         22.1311 
       0.527764         24.8774         21.6001 
       0.533884         24.4469         21.0875 
           0.54          23.921         20.5895 
       0.546137         23.4861         20.1052 
       0.552299         23.0669         19.6353 
       0.558452         22.3656          19.183 
       0.564573         22.0702         18.7487 
       0.570708         21.6659         18.3283 
       0.576825         21.1135          17.923 
       0.582926         20.7589         17.5316 
       0.589034         20.1892         17.1516 
       0.595184         19.9081           16.78 
       0.601379         19.5088         16.4161 
       0.607522         19.2141         16.0653 
       0.613639         18.9811         15.7259 
       0.619772         18.4803         15.3958 
       0.625918         18.3369         15.0751 
       0.632068         18.0363         14.7641 
       0.638161         17.6214         14.4651 
         0.6443         17.2676         14.1726 
       0.650464         16.9401         13.8872 
       0.656582         16.8115         13.6116 
       0.662703         16.5041         13.3434 
       0.668861         16.2081         13.0809 
       0.675024         15.8979         12.8254 
       0.681124          15.628         12.5793 
       0.687237         15.3928         12.3393 
       0.693381         15.2057         12.1046 
       0.699536          14.799         11.8757 
       0.705665         14.6646         11.6538 
       0.711789         14.4142         11.4379 
       0.717957         14.1892          11.226 
        0.72409         13.9602         11.0208 
       0.730186         13.7775         10.8221 
       0.736317         13.6316         10.6272 
       0.742472         13.4156         10.4365 
       0.748622         13.2116         10.2507 
        0.75476         12.9416         10.0699 
       0.760888         12.7959          9.8938 
       0.767043         12.6428         9.72127 
       0.773185         12.3923         9.55326 
       0.779291         12.3002         9.39024 
       0.785407          12.112         9.23084 
       0.791564         11.9166         9.07419 
       0.797719         11.7163         8.92129 
       0.803834         11.6385         8.77293 
       0.809972         11.5232         8.62746 
       0.816124         11.2758         8.48501 
       0.822261         11.1265          8.3462 
       0.828378         10.9963         8.21097 
       0.834502          10.899         8.07865 
       0.840667         10.7111         7.94844 
       0.846816         10.5346          7.8215 
       0.852925         10.4434         7.69817 
       0.859047          10.315         7.57728 
       0.865192         10.2238         7.45863 
       0.871341          10.114         7.34247 
       0.877463         9.95654         7.22935 
       0.883569          9.7998         7.11893 
       0.889708         9.64595         7.01028 
       0.895864         9.57693         6.90365 
       0.902008         9.47015         6.79949 
       0.908149          9.3679         6.69757 
       0.914301          9.2368          6.5976 
       0.920448         9.10224         6.49979 
       0.926574         8.99706         6.40433 
       0.932687         8.92009         6.31101 
       0.938823         8.80123         6.21924 
       0.944975         8.68805         6.12911 
       0.951105          8.6116         6.04111 
       0.957225         8.56418         5.95501 
       0.963368         8.44661         5.87031 
       0.969511         8.35316         5.78728 
       0.975621         8.24668         5.70632 
       0.981748         8.16396         5.62672 
       0.987916         8.08874         5.54816 
        0.99406         7.96105         5.47141 
        1.00019         7.85198         5.39628 
        1.00632         7.82755         5.32264 
        1.01246         7.73893         5.25029 
        1.01859         7.63477         5.17941 
        1.02471         7.56628         5.10994 
        1.03085         7.49056         5.04151 
        1.03698         7.38972          4.9745 
        1.04314         7.33692         4.90844 
        1.04929         7.24271         4.84374 
        1.05541         7.16418         4.78048 
        1.06154         7.10608         4.71821 
        1.06769         7.06954         4.65697 
        1.07382         6.95715         4.59703 
        1.07993         6.88754         4.53829 
        1.08607         6.84608         4.48034 
        1.09222          6.7749         4.42336 
        1.09836         6.70948         4.36745 
        1.10449         6.64103         4.31258 
        1.11063         6.57943          4.2586 
        1.11677         6.52904         4.20558 
         1.1229         6.46883         4.15356 
        1.12903         6.39782         4.10238 
        1.13518         6.33396         4.05203 
        1.14131         6.25996         4.00257 
        1.14745         6.18972         3.95397 
        1.15359         6.16003         3.90617 
        1.15973         6.09541         3.85916 
        1.16584         6.03079         3.81313 
        1.17197         5.98211          3.7678 
        1.17811         5.94345         3.72308 
        1.18424         5.89783         3.67922 
        1.19038         5.85462         3.63594 
        1.19652         5.79497         3.59339 
        1.20267         5.73199         3.55152 
        1.20881           5.697         3.51034 
        1.21495         5.64917         3.46988 
        1.22108         5.59086         3.43007 
         1.2272         5.56286         3.39099 
        1.23334         5.49023         3.35243 
        1.23949         5.44328         3.31438 
        1.24562          5.4188         3.27704 
        1.25174         5.35513         3.24033 
        1.25789         5.32045         3.20408 
        1.26402         5.27531         3.16845 
        1.27014         5.22784         3.13346 
        1.27628         5.19354         3.09889 
        1.28244         5.13085         3.06478 
        1.28858         5.11451         3.03124 
        1.29471         5.05938         2.99828 
        1.30084         5.01291         2.96584 
        1.30697         5.01003         2.93384 
        1.31312         4.91723         2.90226 
        1.31925         4.89997         2.87126 
        1.32537         4.85932         2.84075 
        1.33151         4.83782         2.81057 
        1.33765         4.77531         2.78085 
        1.34378          4.7433         2.75163 
        1.34992         4.72507         2.72281 
        1.35606         4.66528         2.69434 
         1.3622         4.64764         2.66634 
        1.36833         4.61022          2.6388 
        1.37445         4.57591         2.61167 
        1.38059         4.55515         2.58485 
        1.38675         4.52216         2.55833 
        1.39288         4.48003          2.5323 
        1.39901         4.43664         2.50665 
        1.40515         4.41003          2.4813 
         1.4113         4.38164         2.45631 
        1.41742         4.35275         2.43177 
        1.42355         4.31982         2.40751 
         1.4297         4.28063         2.38352 
        1.43585         4.26566         2.35987 
        1.44198         4.24285         2.33663 
        1.44809         4.19435         2.31375 
        1.45423         4.16443         2.29109 
        1.46036          4.1338         2.26878 
        1.46649         4.10281         2.24676 
        1.47263         4.07388         2.22502 
        1.47877         4.04037         2.20358 
        1.48491         4.01615         2.18239 
        1.49104         3.99687         2.16152 
        1.49718         3.96857         2.14092 
        1.50333         3.94408         2.12055 
        1.50947         3.91592         2.10049 
         1.5156         3.88926         2.08072 
        1.52172          3.8665         2.06121 
        1.52787         3.84159         2.04191 
          1.534         3.81184         2.02289 
        1.54013         3.79204         2.00413 
        1.54627         3.75593         1.98557 
        1.55241         3.73188         1.96725 
        1.55855         3.71798         1.94919 
        1.56467         3.69318          1.9314 
         1.5708         3.66244         1.91379 
        1.57695         3.63813         1.89638 
        1.58308         3.61278         1.87922 
        1.58922         3.60109         1.86226 
        1.59535         3.57578         1.84552 
         1.6015         3.55218         1.82897 
        1.60764         3.53069         1.81263 
        1.61376         3.51025         1.79653 
        1.61989         3.48656         1.78062 
        1.62604         3.46197         1.76487 
        1.63218         3.45298         1.74931 
        1.63831         3.42251         1.73399 
        1.64444         3.40091         1.71884 
        1.65059         3.38001         1.70384 
        1.65673         3.36424         1.68904 
        1.66285          3.3368         1.67445 
        1.66898         3.32247         1.66003 
        1.67512         3.29542         1.64576 
        1.68127         3.27868         1.63164 
         1.6874         3.26803         1.61772 
        1.69353         3.23181         1.60398 
        1.69967         3.21997         1.59036 
        1.70581         3.20939          1.5769 
        1.71193         3.18628         1.56366 
        1.71806         3.17184         1.55053 
        1.72421         3.15205         1.53754 
        1.73035         3.13499         1.52471 
        1.73649         3.11264         1.51203 
        1.74262         3.09432          1.4995 
        1.74876         3.08671         1.48711 
        1.75489         3.06214         1.47489 
        1.76101         3.04079          1.4628 
        1.76715         3.02827         1.45084 
        1.77329         3.01394           1.439 
        1.77943         2.98721         1.42728 
        1.78557         2.97794         1.41572 
        1.79171         2.96425         1.40428 
        1.79785         2.94232         1.39297 
        1.80399         2.92881         1.38178 
        1.81012         2.91818         1.37073 
        1.81625         2.89616         1.35981 
        1.82239         2.87894           1.349 
        1.82853         2.85977          1.3383 
        1.83466         2.85438         1.32774 
        1.84078         2.83668          1.3173 
        1.84692         2.82434         1.30695 
        1.85306         2.80169         1.29671 
         1.8592          2.7879         1.28659 
        1.86533         2.77393         1.27659 
        1.87147         2.76478         1.26668 
        1.87761         2.74788         1.25687 
        1.88375         2.72815         1.24718 
        1.88988         2.71799          1.2376 
        1.89601         2.70299         1.22812 
        1.90215         2.68499         1.21873 
        1.90829         2.67055         1.20945 
        1.91442         2.66259         1.20026 
        1.92056         2.64497         1.19117 
         1.9267         2.63545         1.18218 
        1.93284         2.62395         1.17326 
        1.93897          2.6092         1.16446 
        1.94509         2.59073         1.15577 
        1.95123         2.57684         1.14715 
        1.95737         2.56452          1.1386 
        1.96349         2.55486         1.13017 
        1.96964          2.5472          1.1218 
        1.97578         2.52899         1.11351 
        1.98192         2.51866         1.10532 
        1.98805         2.50516         1.09722 
        1.99419         2.49439         1.08919 
        2.00033         2.48867         1.08124 
        2.00647         2.46926         1.07338 
         2.0126          2.4614          1.0656 
        2.01874         2.44216         1.05789 
        2.02488         2.43546         1.05025 
        2.03101         2.41761         1.04271 
        2.03714         2.40692         1.03524 
        2.04328         2.39912         1.02784 
        2.04941         2.38122         1.02051 
        2.05554         2.37667         1.01327 
        2.06167         2.36322         1.00608 
        2.06781         2.35618        0.998969 
        2.07396         2.34452        0.991913 
        2.08009         2.33195        0.984937 
        2.08622         2.31743        0.978037 
        2.09237         2.31317         0.97119 
        2.09851         2.30013        0.964408 
        2.10464         2.29292        0.957701 
        2.11077         2.27918        0.951068 
        2.11691         2.26778        0.944483 
        2.12305         2.26093         0.93796 
        2.12918         2.25097        0.931515 
        2.13531         2.24043         0.92513 
        2.14145         2.22788        0.918791 
         2.1476         2.21651        0.912504 
        2.15372         2.20711        0.906308 
        2.15985         2.19708        0.900163 
        2.16599         2.18893        0.894059 
        2.17213         2.17586        0.888018 
        2.17827         2.16927        0.882035 
         2.1844         2.16059        0.876112 
        2.19054         2.15276        0.870242 
        2.19666          2.1407        0.864435 
         2.2028         2.13119        0.858675 
        2.20893         2.12159        0.852966 
        2.21508         2.11446        0.847303 
        2.22122         2.10062        0.841689 
        2.22736         2.09148        0.836138 
        2.23349         2.08798        0.830639 
        2.23962         2.07445        0.825187 
        2.24577         2.06709        0.819779 
         2.2519         2.05679        0.814427 
        2.25802         2.05283        0.809132 
        2.26417         2.04207         0.80387 
        2.27031         2.03415         0.79865 
        2.27644         2.02583        0.793491 
        2.28257          2.0157        0.788379 
        2.28872         2.00755        0.783302 
        2.29486         2.00052        0.778272 
        2.30099            1.99        0.773296 
        2.30712         1.98075        0.768361 
        2.31326         1.97764        0.763462 
         2.3194         1.96646        0.758608 
        2.32553         1.96019        0.753806 
        2.33166         1.94969        0.749046 
         2.3378          1.9419        0.744322 
        2.34394         1.93332        0.739638 
        2.35007         1.92522           0.735 
        2.35619         1.92241        0.730408 
        2.36233         1.91015        0.725845 
        2.36848         1.90356        0.721311 
        2.37462          1.8971        0.716826 
        2.38075         1.88805        0.712384 
        2.38689          1.8821        0.707976 
        2.39303         1.87432        0.703606 
        2.39916         1.86579        0.699278 
        2.40529         1.85947        0.694986 
        2.41143          1.8506        0.690728 
        2.41757         1.84365        0.686504 
         2.4237         1.83936        0.682323 
        2.42983         1.82726        0.678177 
        2.43598         1.82651        0.674055 
        2.44211         1.81596        0.669975 
        2.44823         1.81001        0.665937 
        2.45437         1.80258        0.661922 
        2.46052          1.7963        0.657937 
        2.46665         1.79002        0.653992 
        2.47279         1.78177         0.65008 
        2.47892          1.7752        0.646199 
        2.48507         1.76999        0.642345 
         2.4912         1.76066        0.638531 
