# k  (h/Mpc)    Pcb(k)  (Mpc/h)^3    Pcb_linear(k)  (Mpc/h)^3
     0.00783031         13129.8         13315.9 
       0.013688         17127.4         16993.2 
       0.019231         17612.8         17602.7 
      0.0249154         16248.2         16602.7 
      0.0312784         14489.7         14677.9 
      0.0375637         12704.3         12747.9 
      0.0433917           11045         11288.5 
      0.0492413         10093.4         10214.9 
      0.0555754         9065.97         9402.14 
      0.0619321         8726.55         8778.95 
       0.067871         7936.87         8222.45 
      0.0738098         7339.81         7606.87 
      0.0800417         6567.78         6887.01 
      0.0862327         5950.58         6149.86 
      0.0921407         5421.59          5497.1 
      0.0982031          4853.2            4936 
       0.104506         4559.61         4494.46 
       0.110769         4237.03         4185.73 
       0.116806         3997.78         3972.95 
       0.122832         3824.34          3797.4 
       0.129052         3559.42          3612.7 
       0.135211         3370.51         3401.94 
       0.141259         3211.85         3166.66 
       0.147318         3014.15         2918.89 
       0.153489         2758.09         2677.91 
       0.159709         2606.86         2467.65 
       0.165845         2512.26         2302.62 
       0.171974         2375.84         2178.45 
       0.178125          2267.5         2084.23 
       0.184229         2179.16         2006.22 
        0.19034         2060.06         1929.65 
       0.196428         2020.61         1845.76 
       0.202534         1943.65         1751.55 
       0.208729         1853.12         1649.36 
       0.214876         1771.65         1548.67 
       0.220989         1712.89         1456.54 
       0.227147         1637.51         1376.75 
        0.23329         1575.84         1311.47 
       0.239377         1553.25          1258.9 
       0.245482         1458.16         1214.09 
       0.251667         1451.34         1172.05 
       0.257832         1395.95          1129.6 
       0.263955         1350.78         1084.95 
       0.270079          1305.5            1038 
        0.27624         1291.47          990.17 
       0.282372            1237         944.303 
        0.28843         1228.01         902.706 
       0.294538         1168.02         865.553 
       0.300721         1163.28          832.89 
        0.30691         1116.66          804.14 
       0.313033         1095.91         778.195 
       0.319153         1076.77         753.276 
       0.325316         1041.99         728.237 
        0.33145         1018.43         702.919 
       0.337538         1002.98         677.658 
       0.343633         979.086          652.77 
       0.349808         946.922         628.692 
       0.355968         941.311         606.335 
       0.362074         931.068          586.04 
       0.368217         903.363         567.414 
       0.374374          868.66         550.156 
       0.380519         869.498         533.914 
       0.386598         846.956          518.37 
       0.392688         844.257         503.053 
        0.39888          820.03         487.674 
       0.405048         808.867         472.596 
       0.411186         797.612         458.028 
       0.417313         781.443         444.116 
       0.423458         768.777         430.902 
       0.429607         757.856         418.477 
       0.435692         741.879         406.922 
       0.441815         737.017         395.889 
       0.447964         721.514         385.279 
       0.454126         712.571         375.003 
       0.460267         697.425          365.02 
       0.466387         689.834         355.296 
        0.47254         681.818         345.784 
       0.478662         677.824         336.625 
       0.484765         658.255         327.831 
       0.490885         653.793         319.379 
       0.497035         640.896         311.272 
       0.503198         635.971         303.508 
       0.509342         629.812         296.072 
       0.515458         625.944          288.93 
       0.521598         611.246         281.988 
       0.527764         599.415         275.223 
       0.533884         598.538          268.69 
           0.54         591.321         262.346 
       0.546137         588.056         256.174 
       0.552299         578.627         250.188 
       0.558452         575.637         244.424 
       0.564573           567.4         238.891 
       0.570708         560.934         233.533 
       0.576825         546.171         228.369 
       0.582926         547.954         223.382 
       0.589034         543.083          218.54 
       0.595184         537.916         213.805 
       0.601379         530.863         209.169 
       0.607522         523.585         204.699 
       0.613639         523.558         200.375 
       0.619772         510.816         196.168 
       0.625918          509.35         192.082 
       0.632068         502.313         188.119 
       0.638161         500.644          184.31 
         0.6443         491.474         180.582 
       0.650464         489.268         176.946 
       0.656582         486.843         173.435 
       0.662703         484.308         170.018 
       0.668861         475.829         166.673 
       0.675024         472.266         163.417 
       0.681124         469.233         160.281 
       0.687237         465.032         157.223 
       0.693381         459.285         154.233 
       0.699536          453.05         151.316 
       0.705665         451.633         148.489 
       0.711789         448.814         145.738 
       0.717957         444.845         143.039 
        0.72409         442.039         140.424 
       0.730186         436.387         137.891 
       0.736317         433.166         135.409 
       0.742472         431.506         132.979 
       0.748622          426.43         130.611 
        0.75476         421.364         128.308 
       0.760888         417.147         126.064 
       0.767043         417.977         123.865 
       0.773185         412.764         121.725 
       0.779291         407.883         119.648 
       0.785407         405.943         117.616 
       0.791564         401.146          115.62 
       0.797719         398.925         113.672 
       0.803834         395.558         111.782 
       0.809972         394.169         109.928 
       0.816124         393.499         108.113 
       0.822261         387.651         106.345 
       0.828378         385.504         104.622 
       0.834502          382.28         102.936 
       0.840667         378.614         101.276 
       0.846816         377.071         99.6591 
       0.852925         374.057         98.0877 
       0.859047         372.704         96.5473 
       0.865192         368.489         95.0355 
       0.871341         365.646         93.5555 
       0.877463         364.328         92.1141 
       0.883569         361.841         90.7072 
       0.889708         358.834         89.3228 
       0.895864          355.95         87.9642 
       0.902008         353.912          86.637 
       0.908149         351.221         85.3383 
       0.914301         347.813         84.0645 
       0.920448         345.784         82.8182 
       0.926574         341.569         81.6019 
       0.932687         342.222         80.4129 
       0.938823           338.2         79.2436 
       0.944975         337.896         78.0952 
       0.951105         334.393         76.9739 
       0.957225         332.193         75.8768 
       0.963368           328.4         74.7977 
       0.969511         327.174         73.7397 
       0.975621         324.605         72.7081 
       0.981748         324.254         71.6939 
       0.987916          321.74         70.6929 
        0.99406          316.69         69.7149 
        1.00019          316.56         68.7576 
        1.00632         314.736         67.8194 
        1.01246         312.119         66.8975 
        1.01859         312.698         65.9943 
        1.02471         307.902         65.1092 
        1.03085         305.901         64.2374 
        1.03698         305.114         63.3835 
        1.04314         302.034         62.5417 
        1.04929         299.735         61.7174 
        1.05541         300.228         60.9114 
        1.06154         295.473         60.1179 
        1.06769         294.796         59.3376 
        1.07382         292.992         58.5738 
        1.07993         290.939         57.8254 
        1.08607         290.112         57.0871 
        1.09222         287.728          56.361 
        1.09836          285.71         55.6486 
        1.10449         282.815         54.9495 
        1.11063         280.534         54.2617 
        1.11677         280.332         53.5861 
         1.1229         278.437         52.9232 
        1.12903         276.475         52.2712 
        1.13518           274.5         51.6297 
        1.14131         272.749         50.9994 
        1.14745         272.103         50.3801 
        1.15359         269.752         49.7712 
        1.15973         268.251         49.1721 
        1.16584         266.104         48.5857 
        1.17197         265.954         48.0081 
        1.17811         263.026         47.4382 
        1.18424         261.357         46.8794 
        1.19038         260.482          46.328 
        1.19652         258.465         45.7858 
        1.20267         257.877         45.2523 
        1.20881         255.693         44.7276 
        1.21495         253.954         44.2121 
        1.22108         252.627         43.7048 
         1.2272         250.883         43.2068 
        1.23334         249.571         42.7155 
        1.23949         248.216         42.2308 
        1.24562         247.016          41.755 
        1.25174         244.766         41.2872 
        1.25789         243.083         40.8253 
        1.26402          241.67         40.3714 
        1.27014           240.2         39.9255 
        1.27628         239.034          39.485 
        1.28244         238.689         39.0504 
        1.28858         236.043          38.623 
        1.29471         234.254          38.203 
        1.30084         233.414         37.7897 
        1.30697         231.858          37.382 
        1.31312         229.837         36.9797 
        1.31925          229.67         36.5846 
        1.32537         228.367         36.1958 
        1.33151         226.134         35.8113 
        1.33765         224.741         35.4327 
        1.34378         223.978         35.0603 
        1.34992         222.769         34.6931 
        1.35606         222.661         34.3304 
         1.3622         220.577         33.9736 
        1.36833         218.328         33.6227 
        1.37445         217.537         33.2771 
        1.38059         215.806         32.9352 
        1.38675         215.102         32.5974 
        1.39288         213.599         32.2658 
        1.39901         213.313         31.9389 
        1.40515         211.175         31.6159 
         1.4113         210.027         31.2975 
        1.41742         208.702         30.9847 
        1.42355         207.401         30.6757 
         1.4297         206.045           30.37 
        1.43585         205.024         30.0686 
        1.44198         203.892         29.7725 
        1.44809         203.104          29.481 
        1.45423         201.665         29.1923 
        1.46036         200.681          28.908 
        1.46649         199.116         28.6275 
        1.47263         197.808         28.3505 
        1.47877         196.928         28.0773 
        1.48491         195.287         27.8072 
        1.49104         194.871         27.5414 
        1.49718          192.87         27.2788 
        1.50333         192.279         27.0193 
        1.50947         191.384         26.7637 
         1.5156         189.673         26.5119 
        1.52172         188.883         26.2633 
        1.52787         187.361         26.0174 
          1.534         186.996         25.7749 
        1.54013         185.489         25.5359 
        1.54627         184.614         25.2995 
        1.55241         183.359          25.066 
        1.55855         182.278         24.8359 
        1.56467         181.069         24.6093 
         1.5708         180.584         24.3849 
        1.57695         179.219          24.163 
        1.58308          178.49         23.9443 
        1.58922         177.128         23.7283 
        1.59535         175.824          23.515 
         1.6015         175.484         23.3041 
        1.60764         174.175         23.0958 
        1.61376         172.993         22.8908 
        1.61989         172.185          22.688 
        1.62604         171.167         22.4873 
        1.63218         170.342         22.2892 
        1.63831          169.22         22.0939 
        1.64444         168.552         21.9009 
        1.65059         167.278         21.7097 
        1.65673         166.109         21.5211 
        1.66285         165.651         21.3353 
        1.66898         164.394         21.1516 
        1.67512         164.145         20.9697 
        1.68127         162.366         20.7898 
         1.6874         161.359         20.6125 
        1.69353         160.974         20.4373 
        1.69967         159.713         20.2638 
        1.70581         158.974         20.0923 
        1.71193         157.805         19.9235 
        1.71806         157.395         19.7563 
        1.72421         156.237         19.5908 
        1.73035         155.899         19.4273 
        1.73649          154.86         19.2657 
        1.74262         153.641         19.1061 
        1.74876         153.076         18.9482 
        1.75489         151.904         18.7925 
        1.76101         151.003         18.6385 
        1.76715         150.533         18.4861 
        1.77329         149.946         18.3352 
        1.77943         148.669          18.186 
        1.78557         148.003         18.0386 
        1.79171         147.201         17.8928 
        1.79785         146.142         17.7487 
        1.80399         145.388         17.6062 
        1.81012         144.595         17.4654 
        1.81625         143.943         17.3263 
        1.82239         143.225         17.1884 
        1.82853         142.537         17.0522 
        1.83466         141.521         16.9176 
        1.84078         140.998         16.7845 
        1.84692         139.632         16.6527 
        1.85306         139.507         16.5222 
         1.8592         138.405         16.3933 
        1.86533          137.43         16.2658 
        1.87147         136.669         16.1395 
        1.87761         136.248         16.0146 
        1.88375         134.934         15.8911 
        1.88988         134.467         15.7691 
        1.89601         133.639         15.6483 
        1.90215         132.999         15.5287 
        1.90829         132.406         15.4103 
        1.91442         131.657         15.2933 
        1.92056         130.871         15.1775 
         1.9267         130.362         15.0629 
        1.93284         129.603         14.9493 
        1.93897         128.672         14.8372 
        1.94509         128.204         14.7264 
        1.95123         127.529         14.6165 
        1.95737         126.925         14.5077 
        1.96349         126.158         14.4002 
        1.96964         125.108         14.2936 
        1.97578          124.41         14.1879 
        1.98192         124.135         14.0836 
        1.98805         123.078         13.9803 
        1.99419         122.665         13.8781 
        2.00033         121.891         13.7768 
        2.00647         121.462         13.6766 
         2.0126         120.416         13.5775 
        2.01874         119.947         13.4793 
        2.02488         119.471         13.3819 
        2.03101          118.46         13.2858 
        2.03714          117.94         13.1906 
        2.04328         117.386         13.0963 
        2.04941         116.663          13.003 
        2.05554         115.906         12.9107 
        2.06167         115.623         12.8192 
        2.06781         114.908         12.7285 
        2.07396         114.052         12.6386 
        2.08009         113.618         12.5497 
        2.08622         113.082         12.4618 
        2.09237         112.197         12.3745 
        2.09851         111.758         12.2881 
        2.10464          111.19         12.2027 
        2.11077         110.737         12.1181 
        2.11691         110.166         12.0342 
        2.12305         109.148         11.9511 
        2.12918         108.683          11.869 
        2.13531         108.235         11.7877 
        2.14145         107.441         11.7069 
         2.1476         106.758         11.6268 
        2.15372         106.426         11.5478 
        2.15985         106.022         11.4695 
        2.16599         105.359         11.3918 
        2.17213         104.621         11.3148 
        2.17827         104.309         11.2385 
         2.1844         103.483         11.1631 
        2.19054         103.147         11.0883 
        2.19666         102.666         11.0143 
         2.2028         102.027         10.9409 
        2.20893          101.47         10.8682 
        2.21508         100.843          10.796 
        2.22122         100.359         10.7245 
        2.22736         99.9519         10.6538 
        2.23349         99.4574         10.5837 
        2.23962         98.7242         10.5142 
        2.24577         98.4278         10.4453 
         2.2519         98.0105         10.3771 
        2.25802         97.0673         10.3097 
        2.26417         96.7943         10.2426 
        2.27031         96.2578         10.1761 
        2.27644         95.7183         10.1104 
        2.28257         95.1747         10.0452 
        2.28872         94.7287         9.98053 
        2.29486          94.172         9.91644 
        2.30099         93.7996         9.85303 
        2.30712         93.3034         9.79016 
        2.31326         92.7424         9.72774 
         2.3194         92.1743         9.66589 
        2.32553         91.8339          9.6047 
        2.33166         91.2977         9.54406 
         2.3378          90.796         9.48386 
        2.34394         90.4019         9.42417 
        2.35007         89.8796         9.36508 
        2.35619         89.4702         9.30657 
        2.36233         88.9504         9.24843 
        2.36848         88.3795         9.19067 
        2.37462         87.9623         9.13352 
        2.38075         87.6162         9.07692 
        2.38689         87.0896         9.02075 
        2.39303          86.477         8.96507 
        2.39916         86.1433         8.90992 
        2.40529         85.8423         8.85524 
        2.41143          85.274         8.80099 
        2.41757         84.9095         8.74716 
         2.4237          84.494         8.69389 
        2.42983         83.9524         8.64107 
        2.43598         83.5589         8.58855 
        2.44211         83.2882         8.53655 
        2.44823         82.7622         8.48511 
        2.45437         82.1353         8.43395 
        2.46052          81.737         8.38317 
        2.46665         81.4771          8.3329 
        2.47279         80.9916         8.28307 
        2.47892         80.6656         8.23361 
        2.48507         80.1411         8.18451 
         2.4912         79.8633          8.1359 
