# k  (h/Mpc)    Pcb(k)  (Mpc/h)^3    Pcb_linear(k)  (Mpc/h)^3
     0.00783031         9145.43          9265.1 
       0.013688         10294.5         10242.2 
       0.019231         9315.83          9285.1 
      0.0249154         7502.73         7585.29 
      0.0312784            5688         5688.99 
      0.0375637         4311.32         4269.63 
      0.0433917         3431.45         3431.16 
      0.0492413         2979.21         2961.07 
      0.0555754         2685.19         2714.01 
      0.0619321         2603.28         2574.52 
       0.067871         2402.31         2425.09 
      0.0738098         2183.76         2201.59 
      0.0800417         1875.24         1895.42 
      0.0862327         1577.96         1572.62 
      0.0921407         1330.89         1302.88 
      0.0982031         1119.46         1098.66 
       0.104506         1013.37         969.985 
       0.110769          945.33         909.837 
       0.116806         912.864         888.957 
       0.122832         898.006         875.845 
       0.129052         851.411         846.059 
       0.135211         797.178         788.937 
       0.141259         732.545         710.299 
       0.147318          654.82         623.379 
       0.153489         573.405         542.674 
       0.159709         518.821          480.49 
       0.165845         484.503          441.21 
       0.171974          457.63         420.666 
       0.178125         445.668         411.678 
       0.184229         435.356         405.832 
        0.19034         413.486         395.782 
       0.196428         401.974         377.712 
       0.202534           382.5         351.845 
       0.208729         352.342         321.417 
       0.214876         324.436         291.972 
       0.220989         304.121         267.353 
       0.227147         285.755         249.162 
        0.23329         272.642         237.418 
       0.239377         266.583         230.333 
       0.245482         251.162         225.254 
       0.251667         249.356         219.716 
       0.257832         241.041          212.13 
       0.263955          230.79         202.112 
       0.270079         218.907         190.352 
        0.27624         211.971         178.113 
       0.282372         202.423         166.902 
        0.28843         192.734          157.69 
       0.294538         183.411          150.53 
       0.300721         180.471         145.178 
        0.30691         172.515         140.987 
       0.313033         168.434         137.207 
       0.319153         161.442         133.109 
       0.325316         157.891         128.352 
        0.33145         151.337         122.985 
       0.337538         147.933         117.374 
       0.343633         141.846         111.867 
       0.349808         136.734         106.785 
       0.355968         133.693         102.426 
       0.362074         129.851         98.8116 
       0.368217         125.886         95.7504 
       0.374374         121.614         93.0017 
       0.380519         119.434         90.3529 
       0.386598         116.161         87.6503 
       0.392688         113.849          84.788 
        0.39888         110.698         81.7762 
       0.405048         107.419         78.7651 
       0.411186         104.799         75.8866 
       0.417313         102.071         73.2411 
       0.423458         99.5324         70.8424 
       0.429607         97.1463         68.6921 
       0.435692         93.7274         66.7623 
       0.441815         92.7667         64.9327 
       0.447964         90.9059         63.1377 
       0.454126         86.8699         61.3491 
       0.460267         85.7599         59.5567 
       0.466387         84.2261         57.7701 
        0.47254         82.2054         56.0138 
       0.478662         81.4063         54.3446 
       0.484765         78.6243         52.7745 
       0.490885         77.1677            51.3 
       0.497035         76.1286         49.9184 
       0.503198         73.8725         48.6172 
       0.509342         72.3938         47.3731 
       0.515458         71.1374          46.165 
       0.521598         69.8198         44.9742 
       0.527764         68.7781         43.8022 
       0.533884         67.7272         42.6636 
           0.54         66.0917          41.556 
       0.546137         65.3801         40.4832 
       0.552299         64.2237         39.4535 
       0.558452         62.6563         38.4776 
       0.564573          61.542         37.5516 
       0.570708         60.4974         36.6601 
       0.576825         59.6833         35.7999 
       0.582926         58.2448         34.9655 
       0.589034         57.2205         34.1527 
       0.595184         56.3823         33.3566 
       0.601379         55.3787         32.5769 
       0.607522         54.1973         31.8257 
       0.613639         53.8722         31.1004 
       0.619772         52.7083         30.3971 
       0.625918         51.9466          29.717 
       0.632068          51.295         29.0615 
       0.638161         50.6165         28.4346 
         0.6443         49.8671         27.8232 
       0.650464         49.1972         27.2275 
       0.656582         48.3939         26.6517 
       0.662703         47.4602         26.0903 
       0.668861         46.7811         25.5402 
       0.675024         46.2513         25.0047 
       0.681124         45.5628         24.4899 
       0.687237         44.6457         23.9895 
       0.693381          44.167          23.502 
       0.699536         43.5326         23.0283 
       0.705665         43.4972         22.5705 
       0.711789          42.441         22.1259 
       0.717957         41.9523         21.6903 
        0.72409         41.2913         21.2685 
       0.730186         40.6566           20.86 
       0.736317         40.4872         20.4597 
       0.742472         39.9226         20.0681 
       0.748622           39.34         19.6871 
        0.75476         38.9208         19.3169 
       0.760888         38.3157         18.9569 
       0.767043         37.8638         18.6049 
       0.773185         37.3791         18.2629 
       0.779291         37.0625         17.9317 
       0.785407         36.6976         17.6083 
       0.791564         36.2931         17.2911 
       0.797719         35.5387         16.9818 
       0.803834         35.3867         16.6821 
       0.809972         34.7371         16.3886 
       0.816124          34.425         16.1014 
       0.822261         34.1025         15.8219 
       0.828378         33.8904         15.5499 
       0.834502         33.4147          15.284 
       0.840667         33.0528         15.0226 
       0.846816         32.5198         14.7681 
       0.852925         32.2831         14.5212 
       0.859047         31.8349         14.2794 
       0.865192         31.5699         14.0423 
       0.871341         31.3964         13.8105 
       0.877463         30.7907         13.5851 
       0.883569          30.545         13.3652 
       0.889708         30.2833         13.1492 
       0.895864         29.9638         12.9374 
       0.902008         29.6861         12.7307 
       0.908149         29.3999         12.5287 
       0.914301         29.1928         12.3308 
       0.920448         28.9153         12.1373 
       0.926574         28.5167         11.9487 
       0.932687         28.3307         11.7646 
       0.938823         27.9312         11.5836 
       0.944975         27.7335         11.4061 
       0.951105          27.461          11.233 
       0.957225         27.1077         11.0638 
       0.963368         27.1156         10.8975 
       0.969511         26.7667         10.7346 
       0.975621         26.6166         10.5759 
       0.981748         26.2205         10.4201 
       0.987916         25.9936         10.2665 
        0.99406         25.8294         10.1165 
        1.00019         25.5568         9.96983 
        1.00632         25.3625         9.82623 
        1.01246         25.2385         9.68525 
        1.01859         24.8489         9.54728 
        1.02471         24.7579         9.41218 
        1.03085         24.5394         9.27924 
        1.03698         24.2133         9.14916 
        1.04314         24.0819         9.02103 
        1.04929         23.8447         8.89566 
        1.05541         23.6076         8.77318 
        1.06154         23.5424         8.65272 
        1.06769         23.2944         8.53434 
        1.07382         23.1514         8.41858 
        1.07993         22.9913         8.30523 
        1.08607         22.7504         8.19351 
        1.09222         22.5932         8.08374 
        1.09836         22.3846         7.97611 
        1.10449         22.2359         7.87058 
        1.11063         21.9466         7.76685 
        1.11677         21.8487         7.66503 
         1.1229         21.6877         7.56521 
        1.12903         21.4431         7.46709 
        1.13518         21.4481         7.37064 
        1.14131         21.2658         7.27594 
        1.14745         20.9794         7.18297 
        1.15359         20.9415         7.09161 
        1.15973         20.6865         7.00181 
        1.16584         20.5487         6.91397 
        1.17197         20.4459         6.82752 
        1.17811         20.2714         6.74229 
        1.18424         20.1006         6.65877 
        1.19038         20.0115         6.57642 
        1.19652         19.9395         6.49551 
        1.20267          19.765         6.41596 
        1.20881         19.5849         6.33776 
        1.21495         19.4543           6.261 
        1.22108         19.3172         6.18552 
         1.2272         19.1412         6.11147 
        1.23334         19.0701         6.03846 
        1.23949         18.9776         5.96648 
        1.24562         18.7695         5.89588 
        1.25174         18.7048         5.82653 
        1.25789         18.5504         5.75808 
        1.26402         18.4018         5.69086 
        1.27014         18.2406         5.62488 
        1.27628         18.1457         5.55976 
        1.28244          18.071         5.49553 
        1.28858         17.9547         5.43242 
        1.29471         17.8459         5.37043 
        1.30084         17.7201         5.30947 
        1.30697         17.6303         5.24936 
        1.31312         17.4826          5.1901 
        1.31925          17.359         5.13195 
        1.32537           17.25         5.07474 
        1.33151         17.1568          5.0182 
        1.33765         17.0796         4.96256 
        1.34378         16.9298         4.90788 
        1.34992         16.8089         4.85398 
        1.35606         16.7387         4.80078 
         1.3622         16.6669         4.74847 
        1.36833         16.5024         4.69707 
        1.37445         16.4746         4.64645 
        1.38059         16.3196         4.59643 
        1.38675          16.147         4.54703 
        1.39288         16.1312         4.49855 
        1.39901         16.0169          4.4508 
        1.40515         15.9375         4.40364 
         1.4113         15.8341         4.35718 
        1.41742         15.7284         4.31157 
        1.42355         15.6911         4.26653 
         1.4297         15.5938           4.222 
        1.43585         15.5203         4.17812 
        1.44198         15.3877         4.13504 
        1.44809         15.2911         4.09264 
        1.45423         15.2097         4.05069 
        1.46036         15.1742          4.0094 
        1.46649          15.062         3.96867 
        1.47263         14.9524         3.92847 
        1.47877         14.9079         3.88886 
        1.48491         14.8854         3.84972 
        1.49104         14.7382         3.81121 
        1.49718         14.6327          3.7732 
        1.50333         14.5952         3.73564 
        1.50947         14.5012         3.69868 
         1.5156         14.4431         3.66227 
        1.52172         14.3614         3.62635 
        1.52787         14.2628         3.59084 
          1.534         14.1798         3.55585 
        1.54013         14.0944         3.52136 
        1.54627         14.0441         3.48727 
        1.55241         13.9205         3.45362 
        1.55855         13.8739         3.42047 
        1.56467         13.7874         3.38785 
         1.5708         13.7679         3.35556 
        1.57695          13.652         3.32364 
        1.58308         13.5942         3.29221 
        1.58922         13.5396         3.26116 
        1.59535         13.4488         3.23053 
         1.6015         13.3842         3.20025 
        1.60764         13.3505         3.17037 
        1.61376         13.1978         3.14095 
        1.61989         13.1676         3.11189 
        1.62604         13.1413         3.08313 
        1.63218         13.0627         3.05475 
        1.63831         13.0012         3.02679 
        1.64444         12.9151         2.99917 
        1.65059         12.8469         2.97183 
        1.65673         12.7646         2.94486 
        1.66285         12.7615         2.91831 
        1.66898         12.6975         2.89207 
        1.67512         12.6236          2.8661 
        1.68127         12.5656         2.84043 
         1.6874         12.4867         2.81513 
        1.69353         12.4269         2.79016 
        1.69967          12.368         2.76543 
        1.70581         12.2995         2.74101 
        1.71193         12.2653         2.71698 
        1.71806         12.1818         2.69318 
        1.72421         12.1302         2.66962 
        1.73035         12.0514         2.64638 
        1.73649         12.0519         2.62341 
        1.74262         11.9823         2.60073 
        1.74876          11.942         2.57831 
        1.75489         11.8589          2.5562 
        1.76101         11.7962         2.53436 
        1.76715         11.7491         2.51274 
        1.77329         11.7171         2.49134 
        1.77943         11.6468         2.47019 
        1.78557         11.6113         2.44931 
        1.79171         11.5354         2.42867 
        1.79785         11.4664         2.40827 
        1.80399         11.4448          2.3881 
        1.81012         11.4054          2.3682 
        1.81625         11.3531         2.34852 
        1.82239         11.2913         2.32905 
        1.82853         11.2193          2.3098 
        1.83466         11.1717         2.29079 
        1.84078         11.1165         2.27201 
        1.84692         11.1022         2.25342 
        1.85306         11.0303         2.23501 
         1.8592         10.9828         2.21683 
        1.86533         10.9403         2.19886 
        1.87147         10.8989         2.18108 
        1.87761         10.8608         2.16348 
        1.88375         10.8076          2.1461 
        1.88988         10.7435         2.12893 
        1.89601         10.7006         2.11193 
        1.90215         10.6682         2.09511 
        1.90829         10.6114         2.07848 
        1.91442         10.5706         2.06203 
        1.92056         10.5298         2.04577 
         1.9267         10.4686         2.02967 
        1.93284         10.4235         2.01373 
        1.93897         10.3954           1.998 
        1.94509         10.3496         1.98247 
        1.95123         10.3179         1.96706 
        1.95737         10.2644         1.95181 
        1.96349         10.2189         1.93675 
        1.96964         10.1743         1.92181 
        1.97578         10.1282         1.90703 
        1.98192         10.0847         1.89243 
        1.98805         10.0573         1.87798 
        1.99419         10.0122         1.86368 
        2.00033         9.92866         1.84952 
        2.00647         9.90488         1.83551 
         2.0126         9.88977         1.82167 
        2.01874          9.8369         1.80796 
        2.02488         9.79797         1.79437 
        2.03101         9.75838         1.78095 
        2.03714         9.73206         1.76767 
        2.04328         9.66493         1.75452 
        2.04941         9.63325         1.74151 
        2.05554         9.60804         1.72865 
        2.06167         9.56915         1.71589 
        2.06781         9.53064         1.70326 
        2.07396         9.50077         1.69075 
        2.08009         9.47393         1.67838 
        2.08622         9.39319         1.66614 
        2.09237         9.38944         1.65401 
        2.09851         9.34113         1.64199 
        2.10464         9.28987         1.63012 
        2.11077         9.27111         1.61837 
        2.11691         9.22871         1.60672 
        2.12305         9.21752         1.59518 
        2.12918         9.15012         1.58378 
        2.13531         9.11736         1.57249 
        2.14145         9.08822         1.56128 
         2.1476         9.06662         1.55017 
        2.15372         9.01775         1.53923 
        2.15985         8.97686         1.52838 
        2.16599         8.95832          1.5176 
        2.17213          8.9071         1.50694 
        2.17827         8.87883         1.49638 
         2.1844         8.84172         1.48594 
        2.19054         8.83345         1.47559 
        2.19666         8.80452         1.46535 
         2.2028         8.75375          1.4552 
        2.20893         8.71574         1.44514 
        2.21508         8.67039         1.43517 
        2.22122         8.62958         1.42529 
        2.22736         8.62394         1.41552 
        2.23349         8.58219         1.40584 
        2.23962         8.55209         1.39625 
        2.24577         8.52171         1.38674 
         2.2519         8.48438         1.37733 
        2.25802         8.47054         1.36803 
        2.26417         8.43604         1.35879 
        2.27031          8.3763         1.34962 
        2.27644         8.37166         1.34056 
        2.28257         8.33706         1.33159 
        2.28872         8.31047         1.32268 
        2.29486         8.27855         1.31385 
        2.30099         8.25788         1.30513 
        2.30712         8.22248         1.29648 
        2.31326         8.18293         1.28789 
         2.3194         8.15939         1.27939 
        2.32553         8.13447         1.27097 
        2.33166         8.08868         1.26264 
         2.3378         8.06473         1.25437 
        2.34394         8.04212         1.24617 
        2.35007         8.00176         1.23805 
        2.35619         7.96576         1.23002 
        2.36233         7.94998         1.22204 
        2.36848           7.937         1.21411 
        2.37462         7.90235         1.20627 
        2.38075         7.85627         1.19851 
        2.38689         7.85131         1.19081 
        2.39303         7.80988         1.18318 
        2.39916         7.78793         1.17562 
        2.40529         7.76526         1.16813 
        2.41143         7.73526          1.1607 
        2.41757          7.7059         1.15333 
         2.4237         7.68673         1.14604 
        2.42983         7.65204         1.13881 
        2.43598         7.63278         1.13163 
        2.44211         7.60355         1.12452 
        2.44823         7.57327         1.11749 
        2.45437         7.55878         1.11049 
        2.46052         7.51799         1.10355 
        2.46665         7.49492         1.09669 
        2.47279         7.45779         1.08988 
        2.47892         7.43624         1.08313 
        2.48507         7.41222         1.07642 
         2.4912         7.40195         1.06979 
