# k  (h/Mpc)    Pcb(k)  (Mpc/h)^3    Pcb_linear(k)  (Mpc/h)^3
     0.00783031         1172.29         1182.89 
       0.013688         1549.11          1550.3 
       0.019231         1650.63         1650.91 
      0.0249154         1591.32         1601.85 
      0.0312784         1454.15         1457.27 
      0.0375637         1294.89         1292.98 
      0.0433917         1154.41          1158.2 
      0.0492413         1052.44         1052.47 
      0.0555754         963.029         968.988 
      0.0619321         909.378         906.089 
       0.067871          849.55         853.935 
      0.0738098         794.407         799.323 
      0.0800417         728.437         735.569 
      0.0862327         663.774         667.608 
      0.0921407         601.982         603.594 
      0.0982031         541.598         544.423 
       0.104506         496.092         494.016 
       0.110769         457.914         456.226 
       0.116806         428.548         429.707 
       0.122832         410.423         409.592 
       0.129052         389.593           391.5 
       0.135211         370.746         372.908 
       0.141259         352.142         352.267 
       0.147318         330.761         329.265 
       0.153489         305.237         304.883 
       0.159709         282.856         281.412 
       0.165845         265.426         261.112 
       0.171974         246.881         244.604 
       0.178125         234.559         231.792 
       0.184229          225.45         221.988 
        0.19034         214.551         213.845 
       0.196428         208.683         206.141 
       0.202534         202.067         197.896 
       0.208729         191.791         188.597 
       0.214876         180.765         178.614 
       0.220989          173.15           168.5 
       0.227147         161.672         158.821 
        0.23329         153.572         150.232 
       0.239377         147.354         143.044 
       0.245482          139.97         137.122 
       0.251667         136.646         132.139 
       0.257832          132.06         127.754 
       0.263955          127.72         123.555 
       0.270079          123.47         119.205 
        0.27624         120.041         114.559 
       0.282372         115.102         109.735 
        0.28843         109.921         104.949 
       0.294538         105.406         100.334 
       0.300721         102.275         96.0607 
        0.30691         97.6975         92.2846 
       0.313033         94.6376         89.0298 
       0.319153         90.5109         86.1614 
       0.325316         89.2164         83.5162 
        0.33145         86.2418         80.9857 
       0.337538           84.07         78.4671 
       0.343633         81.2534         75.8999 
       0.349808         78.8592          73.261 
       0.355968          76.416         70.6522 
       0.362074         73.8912          68.158 
       0.368217         71.7121         65.8066 
       0.374374         69.3862         63.6421 
       0.380519         67.6482         61.6731 
       0.386598         65.8911         59.8883 
       0.392688         64.5119         58.2135 
        0.39888         62.7161         56.5804 
       0.405048         61.2995         54.9858 
       0.411186         59.8978         53.4078 
       0.417313         57.8856         51.8454 
       0.423458          56.482         50.3044 
       0.429607         54.9019         48.8092 
       0.435692         53.2556         47.3991 
       0.441815         52.3159         46.0611 
       0.447964         51.4414         44.7985 
       0.454126          49.535         43.6105 
       0.460267         48.6156          42.488 
       0.466387         47.2553          41.412 
        0.47254         46.5683         40.3599 
       0.478662         45.7119         39.3366 
       0.484765         44.4611         38.3351 
       0.490885         43.4283         37.3519 
       0.497035         42.8604         36.3925 
       0.503198         41.7685          35.467 
       0.509342         40.7291         34.5829 
       0.515458         39.8914         33.7412 
       0.521598         39.2295         32.9342 
       0.527764         38.4027         32.1584 
       0.533884         37.7466         31.4161 
           0.54         37.0061          30.696 
       0.546137         36.3835         29.9918 
       0.552299         35.7956         29.3028 
       0.558452         34.7007         28.6331 
       0.564573          34.262         27.9847 
       0.570708         33.7028          27.354 
       0.576825         32.8514         26.7458 
       0.582926         32.3137         26.1607 
       0.589034         31.4487         25.5963 
       0.595184         31.0481         25.0475 
       0.601379         30.4964         24.5123 
       0.607522         29.9996         23.9967 
       0.613639         29.7018         23.4972 
       0.619772         28.9376         23.0098 
       0.625918         28.7765         22.5346 
       0.632068         28.2985         22.0719 
       0.638161         27.7006          21.626 
         0.6443         27.1559         21.1891 
       0.650464         26.6809         20.7631 
       0.656582         26.5089         20.3525 
       0.662703         26.0301          19.954 
       0.668861         25.5714         19.5647 
       0.675024         25.1205         19.1862 
       0.681124         24.7047         18.8217 
       0.687237         24.3287         18.4657 
       0.693381         24.0916         18.1169 
       0.699536         23.4675         17.7761 
       0.705665         23.3249         17.4453 
       0.711789         22.9018         17.1232 
       0.717957         22.5857         16.8071 
        0.72409         22.2386         16.5011 
       0.730186         21.9594         16.2049 
       0.736317         21.7343         15.9148 
       0.742472         21.3853         15.6309 
       0.748622         21.1184         15.3544 
        0.75476         20.7116         15.0852 
       0.760888         20.4916         14.8229 
       0.767043         20.2513         14.5657 
       0.773185         19.8681         14.3151 
       0.779291         19.7496         14.0718 
       0.785407         19.4726         13.8338 
       0.791564         19.1437         13.5999 
       0.797719         18.8184         13.3715 
       0.803834         18.7321           13.15 
       0.809972         18.5742         12.9328 
       0.816124         18.1551         12.7201 
       0.822261          17.988         12.5129 
       0.828378         17.7751         12.3111 
       0.834502           17.61         12.1135 
       0.840667         17.3595         11.9191 
       0.846816         17.0726         11.7295 
       0.852925          16.924         11.5453 
       0.859047         16.7336         11.3647 
       0.865192         16.5969         11.1874 
       0.871341         16.4437         11.0138 
       0.877463         16.1766         10.8447 
       0.883569         15.9479         10.6796 
       0.889708         15.7116         10.5171 
       0.895864         15.6282         10.3576 
       0.902008         15.4793         10.2018 
       0.908149         15.3124         10.0494 
       0.914301         15.1479         9.89982 
       0.920448         14.8951         9.75348 
       0.926574         14.7579         9.61064 
       0.932687         14.6348         9.47101 
       0.938823         14.4377         9.33367 
       0.944975         14.2632         9.19877 
       0.951105         14.1573         9.06705 
       0.957225         14.0571         8.93816 
       0.963368         13.8908         8.81135 
       0.969511         13.7668         8.68703 
       0.975621         13.6157          8.5658 
       0.981748         13.4709         8.44659 
       0.987916          13.367         8.32892 
        0.99406         13.1746         8.21396 
        1.00019         12.9817         8.10141 
        1.00632         12.9808          7.9911 
        1.01246         12.8324         7.88269 
        1.01859          12.652         7.77649 
        1.02471         12.5703         7.67239 
        1.03085         12.4582         7.56986 
        1.03698         12.2824         7.46943 
        1.04314         12.2106         7.37042 
        1.04929         12.0498         7.27344 
        1.05541          11.932         7.17862 
        1.06154         11.8391         7.08527 
        1.06769         11.7911         6.99346 
        1.07382         11.6132         6.90359 
        1.07993         11.5277         6.81551 
        1.08607         11.4383         6.72863 
        1.09222          11.337         6.64318 
        1.09836         11.2208         6.55933 
        1.10449         11.1248         6.47704 
        1.11063         11.0364         6.39609 
        1.11677         10.9622         6.31656 
         1.1229          10.877         6.23853 
        1.12903          10.766         6.16176 
        1.13518         10.6446         6.08623 
        1.14131         10.5501         6.01202 
        1.14745         10.4521         5.93911 
        1.15359         10.3945         5.86739 
        1.15973         10.3123         5.79685 
        1.16584         10.1728         5.72778 
        1.17197         10.1092         5.65976 
        1.17811         10.0578         5.59264 
        1.18424         9.98211         5.52681 
        1.19038         9.92531         5.46186 
        1.19652         9.82436         5.39798 
        1.20267         9.71141         5.33513 
        1.20881         9.68941         5.27331 
        1.21495         9.60501         5.21257 
        1.22108          9.4984          5.1528 
         1.2272         9.45578         5.09412 
        1.23334         9.33913         5.03623 
        1.23949         9.27386          4.9791 
        1.24562         9.23687         4.92303 
        1.25174         9.14424          4.8679 
        1.25789         9.08636         4.81346 
        1.26402         9.02987         4.75996 
        1.27014         8.95395          4.7074 
        1.27628         8.87296         4.65549 
        1.28244         8.78353         4.60426 
        1.28858         8.77025         4.55388 
        1.29471         8.68013         4.50437 
        1.30084         8.60066         4.45565 
        1.30697         8.60678         4.40758 
        1.31312         8.45267         4.36015 
        1.31925          8.4235         4.31358 
        1.32537         8.36245         4.26774 
        1.33151         8.33048          4.2224 
        1.33765         8.23497         4.17776 
        1.34378         8.17548         4.13385 
        1.34992         8.13691         4.09055 
        1.35606         8.06728         4.04778 
         1.3622         8.02848          4.0057 
        1.36833         7.97145         3.96433 
        1.37445         7.92187         3.92356 
        1.38059          7.8905         3.88325 
        1.38675         7.82307         3.84341 
        1.39288         7.76841          3.8043 
        1.39901           7.692         3.76575 
        1.40515         7.66012         3.72765 
         1.4113         7.61445         3.69009 
        1.41742         7.56433          3.6532 
        1.42355          7.5001         3.61675 
         1.4297          7.4444         3.58069 
        1.43585          7.4232         3.54514 
        1.44198         7.39686         3.51021 
        1.44809         7.31509         3.47582 
        1.45423         7.26511         3.44176 
        1.46036          7.2219         3.40823 
        1.46649         7.16599         3.37513 
        1.47263          7.1181         3.34245 
        1.47877          7.0733         3.31021 
        1.48491         7.03301         3.27836 
        1.49104         6.99867         3.24699 
        1.49718         6.95564         3.21601 
        1.50333         6.91517         3.18539 
        1.50947         6.86828         3.15523 
         1.5156         6.82862         3.12552 
        1.52172         6.79315         3.09618 
        1.52787         6.75357         3.06717 
          1.534         6.70181         3.03856 
        1.54013         6.67819         3.01035 
        1.54627         6.61458         2.98245 
        1.55241          6.5828          2.9549 
        1.55855         6.55783         2.92775 
        1.56467         6.51046           2.901 
         1.5708         6.47719         2.87452 
        1.57695         6.42281         2.84833 
        1.58308         6.38542         2.82254 
        1.58922         6.36978         2.79704 
        1.59535         6.33313         2.77187 
         1.6015         6.28888         2.74698 
        1.60764         6.24975          2.7224 
        1.61376         6.21708          2.6982 
        1.61989         6.18925         2.67427 
        1.62604         6.14302         2.65058 
        1.63218         6.12868          2.6272 
        1.63831         6.09233         2.60415 
        1.64444           6.058         2.58137 
        1.65059         5.99911         2.55881 
        1.65673         5.98746         2.53655 
        1.66285         5.93598         2.51461 
        1.66898         5.91808         2.49293 
        1.67512         5.87959         2.47147 
        1.68127         5.85043         2.45023 
         1.6874         5.82743          2.4293 
        1.69353         5.78008         2.40862 
        1.69967          5.7582         2.38814 
        1.70581         5.72792          2.3679 
        1.71193         5.70268         2.34798 
        1.71806         5.67628         2.32825 
        1.72421         5.63805          2.3087 
        1.73035         5.62016          2.2894 
        1.73649           5.584         2.27033 
        1.74262         5.54448         2.25149 
        1.74876         5.53803         2.23285 
        1.75489         5.50993         2.21446 
        1.76101         5.46301         2.19629 
        1.76715         5.44541          2.1783 
        1.77329         5.42226         2.16049 
        1.77943         5.37288         2.14287 
        1.78557         5.36706         2.12547 
        1.79171         5.32922         2.10827 
        1.79785         5.30515         2.09125 
        1.80399         5.27779         2.07442 
        1.81012         5.26037         2.05781 
        1.81625         5.22407         2.04138 
        1.82239          5.2017         2.02511 
        1.82853         5.17784         2.00903 
        1.83466         5.16346         1.99313 
        1.84078         5.13362         1.97743 
        1.84692         5.11717         1.96187 
        1.85306         5.07489         1.94646 
         1.8592         5.04899         1.93124 
        1.86533         5.03156         1.91619 
        1.87147         5.01311         1.90129 
        1.87761         4.98488         1.88654 
        1.88375          4.9587         1.87196 
        1.88988         4.93019         1.85756 
        1.89601         4.91842          1.8433 
        1.90215         4.89543         1.82917 
        1.90829         4.86483         1.81521 
        1.91442         4.84931         1.80139 
        1.92056         4.81599         1.78772 
         1.9267         4.80406         1.77419 
        1.93284          4.7818         1.76078 
        1.93897         4.75798         1.74754 
        1.94509         4.72378         1.73447 
        1.95123         4.70724          1.7215 
        1.95737         4.68218         1.70865 
        1.96349         4.66858         1.69596 
        1.96964         4.65773         1.68337 
        1.97578         4.62408          1.6709 
        1.98192         4.61105         1.65859 
        1.98805         4.59184         1.64639 
        1.99419         4.57081         1.63432 
        2.00033         4.55676         1.62236 
        2.00647         4.53022         1.61053 
         2.0126         4.51484         1.59884 
        2.01874           4.481         1.58724 
        2.02488         4.47163         1.57575 
        2.03101         4.44124          1.5644 
        2.03714         4.42682         1.55317 
        2.04328         4.40895         1.54204 
        2.04941         4.37761         1.53102 
        2.05554         4.37088         1.52012 
        2.06167         4.35558         1.50932 
        2.06781          4.3366         1.49861 
        2.07396         4.32351           1.488 
        2.08009         4.30018         1.47751 
        2.08622         4.27496         1.46713 
        2.09237         4.27112         1.45683 
        2.09851         4.24508         1.44663 
        2.10464         4.22897         1.43654 
        2.11077         4.20915         1.42657 
        2.11691          4.1951         1.41666 
        2.12305         4.17987         1.40685 
        2.12918         4.17064         1.39716 
        2.13531         4.14707         1.38755 
        2.14145         4.13073         1.37802 
         2.1476         4.10666         1.36856 
        2.15372         4.09457         1.35924 
        2.15985         4.07854            1.35 
        2.16599         4.06173         1.34082 
        2.17213         4.04208         1.33174 
        2.17827         4.02937         1.32274 
         2.1844         4.01179         1.31383 
        2.19054          4.0033           1.305 
        2.19666         3.98049         1.29627 
         2.2028         3.96336         1.28761 
        2.20893         3.95167         1.27902 
        2.21508         3.92936          1.2705 
        2.22122         3.91678         1.26206 
        2.22736         3.90032         1.25371 
        2.23349         3.89409         1.24544 
        2.23962         3.87133         1.23724 
        2.24577         3.85591         1.22911 
         2.2519         3.84628         1.22106 
        2.25802         3.83058          1.2131 
        2.26417         3.81558         1.20518 
        2.27031         3.79798         1.19733 
        2.27644         3.78815         1.18958 
        2.28257         3.76887         1.18189 
        2.28872         3.75894         1.17425 
        2.29486         3.74256         1.16669 
        2.30099         3.72876         1.15921 
        2.30712          3.7106         1.15179 
        2.31326         3.69959         1.14442 
         2.3194         3.68651         1.13712 
        2.32553         3.66786          1.1299 
        2.33166         3.66178         1.12274 
         2.3378         3.64614         1.11564 
        2.34394         3.63383         1.10859 
        2.35007          3.6172         1.10162 
        2.35619         3.61213         1.09471 
        2.36233         3.59877         1.08785 
        2.36848         3.57807         1.08104 
        2.37462         3.56956         1.07429 
        2.38075         3.55609         1.06761 
        2.38689         3.54257         1.06098 
        2.39303         3.53246         1.05441 
        2.39916         3.51738         1.04791 
        2.40529         3.50433         1.04145 
        2.41143         3.49345         1.03505 
        2.41757         3.47953          1.0287 
         2.4237         3.46844         1.02241 
        2.42983         3.44177         1.01618 
        2.43598         3.44985         1.00998 
        2.44211         3.42666         1.00385 
        2.44823         3.42177        0.997779 
        2.45437         3.40354        0.991742 
        2.46052         3.39429        0.985751 
        2.46665         3.38583        0.979819 
        2.47279         3.37226        0.973939 
        2.47892         3.36174        0.968103 
        2.48507         3.35207         0.96231 
         2.4912         3.33127        0.956575 
