# k  (h/Mpc)    Pcb(k)  (Mpc/h)^3    Pcb_linear(k)  (Mpc/h)^3
     0.00783031         13112.4         13291.2 
       0.013688         16215.8           16090 
       0.019231         16005.3         15971.4 
      0.0249154         14175.2         14438.2 
      0.0312784         12053.6         12157.5 
      0.0375637         10084.2         10062.4 
      0.0433917         8449.36          8558.1 
      0.0492413         7488.83         7507.14 
      0.0555754         6613.97         6776.85 
      0.0619321         6329.42         6291.88 
       0.067871         5778.62         5907.05 
      0.0738098         5366.05         5485.16 
      0.0800417          4810.2         4962.96 
      0.0862327         4316.71         4389.99 
      0.0921407         3863.79         3852.15 
      0.0982031          3373.9         3369.24 
       0.104506         3089.96         2979.88 
       0.110769         2818.97         2712.44 
       0.116806         2637.26         2546.71 
       0.122832         2523.75         2436.98 
       0.129052         2367.61         2342.78 
       0.135211         2263.05         2236.45 
       0.141259         2165.74         2103.55 
       0.147318         2029.55         1943.92 
       0.153489          1844.9         1769.26 
       0.159709         1718.63         1601.39 
       0.165845         1622.14         1460.33 
       0.171974         1515.15         1351.81 
       0.178125         1436.88         1274.55 
       0.184229         1376.02         1221.69 
        0.19034         1299.31         1181.58 
       0.196428         1279.17          1143.4 
       0.202534         1237.81         1098.86 
       0.208729         1177.46         1043.96 
       0.214876         1118.81         981.544 
       0.220989          1074.9         916.703 
       0.227147         1020.22         854.643 
        0.23329         973.351         800.724 
       0.239377         950.171         757.402 
       0.245482         886.698         723.726 
       0.251667         880.732         697.203 
       0.257832          848.13         674.877 
       0.263955         821.249         653.441 
       0.270079         791.185         630.333 
        0.27624          782.07         604.464 
       0.282372         749.406         576.659 
        0.28843         734.358         548.573 
       0.294538         696.406          521.42 
       0.300721         691.406         496.554 
        0.30691         660.817         475.091 
       0.313033         647.759         457.168 
       0.319153         629.923         441.874 
       0.325316         611.266         428.082 
        0.33145         594.732         414.945 
       0.337538         585.837         401.707 
       0.343633         568.579          387.96 
       0.349808         548.722         373.582 
       0.355968         544.182         359.219 
       0.362074         535.545         345.438 
       0.368217         520.069         332.506 
       0.374374          498.29         320.723 
       0.380519         496.088         310.156 
       0.386598          483.11         300.723 
       0.392688         480.595         291.971 
        0.39888         466.443         283.487 
       0.405048         457.566         275.198 
       0.411186         449.887         266.948 
       0.417313         440.989         258.737 
       0.423458         432.723         250.598 
       0.429607         425.328         242.684 
       0.435692          415.13         235.229 
       0.441815         411.579          228.18 
       0.447964         402.929         221.566 
       0.454126           393.6         215.384 
       0.460267         386.667         209.577 
       0.466387         382.062         204.033 
        0.47254         375.243         198.627 
       0.478662         373.925         193.371 
       0.484765         361.164         188.224 
       0.490885         357.881         183.165 
       0.497035         351.231         178.228 
       0.503198         346.334         173.467 
       0.509342         343.738         168.923 
       0.515458         339.665         164.606 
       0.521598         331.785         160.481 
       0.527764         326.696         156.526 
       0.533884         324.243         152.751 
           0.54         319.626         149.097 
       0.546137         318.322         145.531 
       0.552299         311.786         142.048 
       0.558452         309.904         138.663 
       0.564573         305.345         135.386 
       0.570708         299.742         132.201 
       0.576825         294.404         129.133 
       0.582926         292.167         126.186 
       0.589034         289.591         123.346 
       0.595184         286.914         120.587 
       0.601379         282.937           117.9 
       0.607522         278.594         115.317 
       0.613639         277.249         112.819 
       0.619772         271.228         110.387 
       0.625918         270.125         108.017 
       0.632068         265.896         105.711 
       0.638161         264.799         103.489 
         0.6443         260.533         101.314 
       0.650464         257.979         99.1952 
       0.656582          255.92         97.1563 
       0.662703         254.935         95.1793 
       0.668861         250.322         93.2506 
       0.675024         247.472         91.3761 
       0.681124         246.195         89.5726 
       0.687237          243.41         87.8131 
       0.693381         239.695         86.0904 
       0.699536         237.654         84.4094 
       0.705665         235.913         82.7799 
       0.711789         233.768         81.1949 
       0.717957         232.701         79.6416 
        0.72409         230.018          78.139 
       0.730186         227.433         76.6856 
       0.736317         224.871         75.2625 
       0.742472         223.682          73.871 
       0.748622         221.882         72.5164 
        0.75476          219.94         71.1987 
       0.760888         217.231         69.9157 
       0.767043         217.184         68.6591 
       0.773185          214.64         67.4361 
       0.779291         210.787         66.2499 
       0.785407         210.446         65.0908 
       0.791564         208.357         63.9525 
       0.797719         205.658         62.8424 
       0.803834         204.531         61.7661 
       0.809972         203.521         60.7117 
       0.816124         203.075           59.68 
       0.822261         200.658         58.6753 
       0.828378         198.764          57.697 
       0.834502         198.098         56.7404 
       0.840667         195.495         55.7995 
       0.846816         194.067         54.8826 
       0.852925         193.337         53.9922 
       0.859047         191.482         53.1198 
       0.865192         189.469         52.2639 
       0.871341         188.014         51.4265 
       0.877463         186.707         50.6113 
       0.883569         186.206          49.816 
       0.889708         184.204         49.0338 
       0.895864         182.132         48.2665 
       0.902008         181.352         47.5175 
       0.908149         180.783         46.7849 
       0.914301         178.474         46.0666 
       0.920448         177.334         45.3643 
       0.926574         176.255         44.6792 
       0.932687          176.16         44.0098 
       0.938823         173.886         43.3518 
       0.944975         172.503         42.7058 
       0.951105         171.776         42.0755 
       0.957225         170.289          41.459 
       0.963368         168.181         40.8529 
       0.969511         167.735          40.259 
       0.975621         166.425         39.6802 
       0.981748         166.241         39.1114 
       0.987916         164.482         38.5502 
        0.99406         163.067         38.0023 
        1.00019         163.096         37.4661 
        1.00632         161.432         36.9409 
        1.01246         160.449         36.4251 
        1.01859         159.966           35.92 
        1.02471         157.993         35.4252 
        1.03085         156.639         34.9381 
        1.03698         156.141         34.4612 
        1.04314          154.65         33.9913 
        1.04929         153.805         33.5313 
        1.05541         153.478         33.0818 
        1.06154         152.184         32.6394 
        1.06769         152.051         32.2045 
        1.07382         150.649         31.7791 
        1.07993         149.482         31.3623 
        1.08607         148.743         30.9513 
        1.09222         148.158         30.5473 
        1.09836         146.921         30.1511 
        1.10449         145.484         29.7623 
        1.11063         144.457         29.3801 
        1.11677         144.147         29.0047 
         1.1229         142.984         28.6366 
        1.12903         142.371         28.2746 
        1.13518         141.894         27.9185 
        1.14131         140.442         27.5689 
        1.14745         140.108         27.2254 
        1.15359         139.127         26.8878 
        1.15973         138.476         26.5558 
        1.16584         137.107         26.2309 
        1.17197         136.588          25.911 
        1.17811         135.851         25.5955 
        1.18424         135.252         25.2862 
        1.19038         134.951         24.9811 
        1.19652         133.845         24.6812 
        1.20267         133.032         24.3863 
        1.20881         132.032         24.0963 
        1.21495         131.401         23.8114 
        1.22108         130.727         23.5313 
         1.2272         129.616         23.2564 
        1.23334         129.186         22.9852 
        1.23949         128.332         22.7177 
        1.24562          127.59         22.4553 
        1.25174         126.681         22.1975 
        1.25789         126.087         21.9429 
        1.26402         125.122         21.6928 
        1.27014         124.502         21.4472 
        1.27628          124.07         21.2047 
        1.28244         123.622         20.9656 
        1.28858         122.984         20.7304 
        1.29471         121.686         20.4994 
        1.30084         121.587         20.2722 
        1.30697         120.507         20.0481 
        1.31312         120.092         19.8271 
        1.31925         119.185         19.6101 
        1.32537         118.726         19.3966 
        1.33151         117.645         19.1855 
        1.33765         117.337         18.9777 
        1.34378         116.745         18.7734 
        1.34992         116.382          18.572 
        1.35606         115.764         18.3731 
         1.3622         114.722         18.1774 
        1.36833         114.186         17.9852 
        1.37445         113.613         17.7958 
        1.38059         112.968         17.6085 
        1.38675         112.281         17.4235 
        1.39288         111.994          17.242 
        1.39901         111.537         17.0631 
        1.40515         110.655         16.8863 
         1.4113         109.985         16.7121 
        1.41742         109.594         16.5411 
        1.42355         108.834         16.3722 
         1.4297         108.457         16.2051 
        1.43585         107.613         16.0404 
        1.44198         107.237         15.8786 
        1.44809         106.647         15.7194 
        1.45423         106.118         15.5618 
        1.46036         105.731         15.4067 
        1.46649         104.928         15.2536 
        1.47263         104.311         15.1025 
        1.47877         104.072         14.9535 
        1.48491         103.101         14.8063 
        1.49104         102.974         14.6614 
        1.49718         102.216         14.5183 
        1.50333          101.77          14.377 
        1.50947         101.333         14.2378 
         1.5156         100.698         14.1006 
        1.52172         100.182         13.9653 
        1.52787         99.7034         13.8315 
          1.534         99.0849         13.6996 
        1.54013         98.5729         13.5696 
        1.54627         98.2539          13.441 
        1.55241          97.527         13.3141 
        1.55855         97.0967          13.189 
        1.56467         96.8901         13.0659 
         1.5708         96.0903          12.944 
        1.57695         96.0046         12.8235 
        1.58308         95.1256         12.7048 
        1.58922         95.0098         12.5875 
        1.59535         94.4552         12.4717 
         1.6015         93.8595         12.3573 
        1.60764         93.4212         12.2443 
        1.61376         93.1976         12.1331 
        1.61989         92.5325         12.0232 
        1.62604          92.265         11.9144 
        1.63218         91.8107          11.807 
        1.63831         90.9199         11.7012 
        1.64444         90.7197         11.5966 
        1.65059         90.2696         11.4931 
        1.65673         89.5354          11.391 
        1.66285         89.3291         11.2904 
        1.66898         88.9316         11.1909 
        1.67512         88.3776         11.0925 
        1.68127         88.0559         10.9952 
         1.6874         87.4782         10.8993 
        1.69353         87.0451         10.8046 
        1.69967         86.6226         10.7107 
        1.70581         86.3578         10.6181 
        1.71193         85.9878         10.5269 
        1.71806         85.4881         10.4365 
        1.72421         84.9128         10.3471 
        1.73035         84.6223         10.2588 
        1.73649         84.2009         10.1715 
        1.74262         83.7083         10.0854 
        1.74876         83.4181         10.0002 
        1.75489         82.7407         9.91614 
        1.76101         82.5104         9.83309 
        1.76715         81.9482         9.75088 
        1.77329         81.7429         9.66952 
        1.77943         81.1581         9.58905 
        1.78557         81.0494         9.50961 
        1.79171         80.3054         9.43107 
        1.79785         79.9998          9.3534 
        1.80399         79.7204         9.27662 
        1.81012         79.4502         9.20081 
        1.81625         78.9466         9.12588 
        1.82239          78.662         9.05168 
        1.82853         78.3226         8.97834 
        1.83466          77.848         8.90589 
        1.84078         77.5576         8.83432 
        1.84692         77.0724         8.76342 
        1.85306         76.6747         8.69322 
         1.8592         76.3892         8.62389 
        1.86533         75.9621         8.55537 
        1.87147         75.4763         8.48751 
        1.87761         75.2861         8.42036 
        1.88375         74.9044         8.35402 
        1.88988         74.5174         8.28847 
        1.89601         74.1025         8.22358 
        1.90215         73.7661         8.15934 
        1.90829         73.4121         8.09582 
        1.91442          73.106         8.03297 
        1.92056         72.6149         7.97085 
         1.9267         72.4131         7.90932 
        1.93284         71.9696         7.84841 
        1.93897          71.613         7.78825 
        1.94509         71.4069         7.72886 
        1.95123         70.9747         7.66993 
        1.95737         70.6391         7.61158 
        1.96349         70.1764         7.55399 
        1.96964         69.9395         7.49683 
        1.97578         69.6116         7.44023 
        1.98192         69.4204         7.38434 
        1.98805         68.9459         7.32902 
        1.99419         68.5862         7.27426 
        2.00033         68.3863         7.22003 
        2.00647         67.9871         7.16638 
         2.0126         67.5781         7.11336 
        2.01874         67.1723          7.0608 
        2.02488         66.9937         7.00873 
        2.03101         66.7025         6.95728 
        2.03714          66.274         6.90639 
        2.04328         66.0618         6.85596 
        2.04941         65.7795         6.80607 
        2.05554         65.5421         6.75672 
        2.06167         65.1541         6.70779 
        2.06781         64.7506         6.65934 
        2.07396         64.4469          6.6113 
        2.08009         64.2266         6.56381 
        2.08622         63.9235         6.51685 
        2.09237         63.5829         6.47026 
        2.09851         63.4206         6.42412 
        2.10464         63.0144          6.3785 
        2.11077         62.6726         6.33338 
        2.11691         62.3911          6.2886 
        2.12305         62.1287         6.24425 
        2.12918          61.867         6.20044 
        2.13531         61.4534         6.15704 
        2.14145         61.2427         6.11397 
         2.1476         60.9283         6.07125 
        2.15372         60.6737         6.02916 
        2.15985         60.3779         5.98743 
        2.16599         60.0819         5.94597 
        2.17213         59.8743         5.90495 
        2.17827         59.5207         5.86433 
         2.1844         59.2086         5.82413 
        2.19054         58.9902         5.78429 
        2.19666          58.648         5.74488 
         2.2028         58.5898         5.70581 
        2.20893         58.2281         5.66707 
        2.21508         57.9473         5.62866 
        2.22122         57.6893         5.59059 
        2.22736         57.4325         5.55295 
        2.23349         57.1002         5.51567 
        2.23962         56.7602         5.47871 
        2.24577         56.5107         5.44206 
         2.2519         56.2774          5.4058 
        2.25802          56.115         5.36992 
        2.26417         55.6673         5.33427 
        2.27031         55.4937         5.29892 
        2.27644         55.3477         5.26398 
        2.28257         54.9993         5.22937 
        2.28872         54.6955           5.195 
        2.29486         54.4653         5.16095 
        2.30099         54.2202         5.12727 
        2.30712         54.0651         5.09388 
        2.31326         53.7262         5.06073 
         2.3194         53.4118          5.0279 
        2.32553         53.2051         4.99541 
        2.33166         52.8847         4.96323 
         2.3378         52.6653         4.93128 
        2.34394         52.4397         4.89961 
        2.35007         52.1927         4.86826 
        2.35619         51.9482         4.83722 
        2.36233         51.7574         4.80638 
        2.36848         51.5172         4.77575 
        2.37462         51.2481         4.74545 
        2.38075         51.1063         4.71544 
        2.38689         50.8298         4.68566 
        2.39303         50.5852         4.65615 
        2.39916         50.3726         4.62692 
        2.40529          50.162         4.59795 
        2.41143         49.9449          4.5692 
        2.41757         49.6351         4.54069 
         2.4237         49.4965         4.51247 
        2.42983         49.1929          4.4845 
        2.43598          48.983         4.45669 
        2.44211         48.8113         4.42916 
        2.44823         48.5601         4.40193 
        2.45437         48.3023         4.37485 
        2.46052         48.0588         4.34798 
        2.46665         47.8964         4.32138 
        2.47279         47.6458         4.29501 
        2.47892         47.4863         4.26885 
        2.48507         47.2076         4.24288 
         2.4912         47.0953         4.21718 
