# k  (h/Mpc)    P(k)  (Mpc/h)^3    P_linear(k)  (Mpc/h)^3
     0.00783031         2710.33         2733.21 
       0.013688         3364.74         3415.09 
       0.019231         3452.12         3477.09 
      0.0249154         3217.74         3215.21 
      0.0312784         2763.83         2769.99 
      0.0375637         2329.24          2340.6 
      0.0433917         2027.69         2024.49 
      0.0492413         1794.99         1799.69 
      0.0555754         1644.66         1639.74 
      0.0619321         1509.18         1528.68 
       0.067871         1430.01         1436.02 
      0.0738098         1329.72         1332.63 
      0.0800417         1207.33         1205.95 
      0.0862327         1067.95         1069.67 
      0.0921407         944.402         944.312 
      0.0982031         840.606          833.89 
       0.104506         746.199         746.458 
       0.110769         688.727         687.149 
       0.116806         658.001         650.023 
       0.122832         625.487         623.762 
       0.129052         602.107         598.594 
       0.135211         575.816         568.696 
       0.141259         535.515         532.038 
       0.147318         490.199         489.835 
       0.153489          450.16         445.738 
       0.159709          414.58         405.249 
       0.165845         376.663          372.69 
       0.171974         360.556         348.621 
       0.178125          343.51         331.888 
       0.184229         327.087         320.116 
        0.19034         319.858         310.106 
       0.196428          308.72         299.261 
       0.202534         290.315         285.984 
       0.208729         279.249         269.947 
       0.214876         264.448         252.584 
       0.220989         243.804         235.546 
       0.227147         233.704         220.176 
        0.23329         222.195         207.581 
       0.239377         214.179         197.953 
       0.245482         204.674         190.624 
       0.251667          196.84         184.634 
       0.257832         194.181         179.046 
       0.263955         184.697          173.05 
       0.270079         177.672         166.227 
        0.27624         169.284         158.598 
       0.282372         162.585         150.675 
        0.28843         158.745         143.085 
       0.294538         150.807         136.152 
       0.300721         143.787         130.166 
        0.30691          140.82         125.213 
       0.313033         135.295         121.147 
       0.319153         133.109         117.562 
       0.325316         127.955         114.099 
        0.33145         123.956         110.521 
       0.337538         120.085         106.744 
       0.343633         116.376         102.758 
       0.349808         112.226         98.6748 
       0.355968         108.607         94.7394 
       0.362074         106.191          91.135 
       0.368217         103.104         87.9066 
       0.374374         100.654         85.0551 
       0.380519         96.4697         82.5352 
       0.386598         94.0761         80.2384 
       0.392688         91.3874         78.0172 
        0.39888         89.7447         75.7605 
       0.405048         87.6054         73.4608 
       0.411186         85.4373         71.1419 
       0.417313         82.9933         68.8443 
       0.423458         80.6441         66.6121 
       0.429607         79.1065         64.5091 
       0.435692         77.7369         62.5907 
       0.441815         74.9127         60.8127 
       0.447964         72.6922         59.1639 
       0.454126         71.4237         57.6118 
       0.460267          70.775         56.1191 
       0.466387         68.8762          54.652 
        0.47254         67.9364         53.1903 
       0.478662         65.6332         51.7479 
       0.484765         64.3928         50.3305 
       0.490885         62.5955         48.9521 
       0.497035         61.8355         47.6309 
       0.503198         60.3683         46.3794 
       0.509342         58.7759         45.1995 
       0.515458         58.0458         44.0879 
       0.521598         56.6425         43.0251 
       0.527764         55.9101          41.996 
       0.533884         54.9522         40.9986 
           0.54          53.711         40.0183 
       0.546137         52.1779         39.0542 
       0.552299         51.3047         38.1101 
       0.558452         50.2604         37.1955 
       0.564573         49.9065          36.316 
       0.570708         48.4771         35.4677 
       0.576825         47.9299         34.6572 
       0.582926          47.194         33.8838 
       0.589034         46.2686         33.1388 
       0.595184         45.6706         32.4128 
       0.601379         44.4547         31.7006 
       0.607522          43.775         31.0102 
       0.613639         43.2069         30.3393 
       0.619772         42.4189         29.6845 
       0.625918         41.6749         29.0473 
       0.632068         41.2941         28.4293 
       0.638161         40.4559         27.8361 
         0.6443           39.93         27.2567 
       0.650464         38.9722         26.6932 
       0.656582         38.7528          26.151 
       0.662703         38.2691          25.625 
       0.668861          37.301         25.1111 
       0.675024         36.9517          24.611 
       0.681124         36.6396         24.1292 
       0.687237         35.8969         23.6584 
       0.693381          35.287          23.197 
       0.699536         35.0781         22.7463 
       0.705665         34.4472         22.3094 
       0.711789         33.8826         21.8844 
       0.717957         33.2622         21.4681 
        0.72409         32.9495         21.0658 
       0.730186         32.7926         20.6769 
       0.736317         32.1409         20.2963 
       0.742472         31.7578         19.9241 
       0.748622         31.2738         19.5618 
        0.75476         30.5758         19.2092 
       0.760888         30.5188         18.8656 
       0.767043         29.9811         18.5289 
       0.773185         29.6764         18.2008 
       0.779291         29.3247         17.8825 
       0.785407         28.8799         17.5713 
       0.791564         28.7668         17.2656 
       0.797719         28.1586         16.9674 
       0.803834         28.0173         16.6783 
       0.809972          27.523          16.395 
       0.816124         27.2447         16.1178 
       0.822261         26.9463         15.8479 
       0.828378         26.7028         15.5851 
       0.834502         26.4265         15.3281 
       0.840667         26.1515         15.0754 
       0.846816         25.6123          14.829 
       0.852925         25.5476         14.5898 
       0.859047         25.2973         14.3554 
       0.865192          24.927         14.1253 
       0.871341         24.6236         13.9002 
       0.877463         24.3739         13.6811 
       0.883569         24.2476         13.4673 
       0.889708         23.8885         13.2569 
       0.895864         23.5931         13.0506 
       0.902008         23.3385         12.8491 
       0.908149         23.0781          12.652 
       0.914301         22.9545         12.4588 
       0.920448         22.6351         12.2698 
       0.926574          22.435         12.0854 
       0.932687         22.1748         11.9053 
       0.938823         21.8986         11.7281 
       0.944975         21.7426         11.5542 
       0.951105         21.5396         11.3845 
       0.957225         21.3966         11.2185 
       0.963368         21.0797         11.0552 
       0.969511         20.8929         10.8952 
       0.975621         20.7167         10.7393 
       0.981748         20.4663          10.586 
       0.987916         20.3453         10.4348 
        0.99406          20.086         10.2871 
        1.00019         19.9632         10.1426 
        1.00632         19.8013          10.001 
        1.01246         19.6128         9.86192 
        1.01859         19.3927         9.72571 
        1.02471         19.2159         9.59227 
        1.03085         19.1325         9.46088 
        1.03698         18.9716         9.33224 
        1.04314         18.7377         9.20546 
        1.04929         18.5286         9.08135 
        1.05541         18.4558         8.96004 
        1.06154         18.3094         8.84066 
        1.06769         18.1134         8.72328 
        1.07382         17.9075         8.60844 
        1.07993         17.7651         8.49594 
        1.08607         17.6754           8.385 
        1.09222         17.4811         8.27594 
        1.09836          17.358         8.16896 
        1.10449         17.2164         8.06401 
        1.11063         17.1134         7.96079 
        1.11677         17.0259         7.85943 
         1.1229         16.8473         7.76002 
        1.12903         16.7098         7.66226 
        1.13518         16.5483          7.5661 
        1.14131         16.4585         7.47166 
        1.14745         16.2374         7.37889 
        1.15359         16.1054         7.28769 
        1.15973         15.9968           7.198 
        1.16584         15.8674         7.11023 
        1.17197         15.7214         7.02381 
        1.17811         15.6303         6.93856 
        1.18424          15.517         6.85498 
        1.19038         15.4436         6.77254 
        1.19652         15.2814         6.69149 
        1.20267         15.2031         6.61178 
        1.20881         15.0311         6.53339 
        1.21495         14.9407         6.45639 
        1.22108         14.8866         6.38065 
         1.2272         14.7627         6.30632 
        1.23334         14.6737           6.233 
        1.23949         14.5457         6.16067 
        1.24562         14.4104          6.0897 
        1.25174         14.3562         6.01996 
        1.25789          14.226         5.95111 
        1.26402         14.1624         5.88345 
        1.27014         14.0891         5.81702 
        1.27628         13.9164         5.75142 
        1.28244         13.9139         5.68671 
        1.28858         13.7593         5.62308 
        1.29471         13.6034         5.56057 
        1.30084         13.5298         5.49908 
        1.30697         13.5073         5.43842 
        1.31312          13.374          5.3786 
        1.31925         13.3082         5.31987 
        1.32537         13.2028         5.26207 
        1.33151         13.1206         5.20494 
        1.33765         13.0449         5.14869 
        1.34378         12.9992         5.09338 
        1.34992         12.8806         5.03886 
        1.35606         12.7564         4.98501 
         1.3622         12.6729         4.93205 
        1.36833         12.6474            4.88 
        1.37445         12.5681         4.82872 
        1.38059         12.4826         4.77802 
        1.38675         12.4061         4.72794 
        1.39288           12.29         4.67877 
        1.39901          12.232         4.63033 
        1.40515         12.1543         4.58247 
         1.4113         12.0716          4.5353 
        1.41742         12.0266         4.48898 
        1.42355         11.9136         4.44323 
         1.4297         11.8609         4.39797 
        1.43585         11.8036         4.35337 
        1.44198         11.7508         4.30956 
        1.44809         11.6619         4.26643 
        1.45423           11.58         4.22374 
        1.46036          11.515          4.1817 
        1.46649         11.4439         4.14023 
        1.47263          11.398         4.09929 
        1.47877         11.3199         4.05892 
        1.48491         11.2667         4.01903 
        1.49104         11.1821         3.97976 
        1.49718         11.1398         3.94099 
        1.50333         11.0754         3.90268 
        1.50947         11.0105         3.86495 
         1.5156         10.9619         3.82778 
        1.52172         10.8823          3.7911 
        1.52787         10.8457         3.75483 
          1.534         10.7771         3.71908 
        1.54013         10.7259         3.68383 
        1.54627         10.6472         3.64898 
        1.55241          10.567         3.61457 
        1.55855          10.548         3.58066 
        1.56467         10.4964         3.54728 
         1.5708          10.441         3.51423 
        1.57695         10.3676         3.48155 
        1.58308         10.3016         3.44936 
        1.58922         10.2663         3.41756 
        1.59535         10.2099         3.38618 
         1.6015         10.1131         3.35514 
        1.60764         10.0818         3.32451 
        1.61376         10.0535         3.29435 
        1.61989         9.96966         3.26454 
        1.62604         9.95132         3.23504 
        1.63218         9.90291         3.20591 
        1.63831         9.82879         3.17722 
        1.64444          9.7586         3.14886 
        1.65059         9.71285         3.12078 
        1.65673         9.69264         3.09308 
        1.66285         9.62844          3.0658 
        1.66898         9.60339         3.03883 
        1.67512         9.55027         3.01213 
        1.68127         9.46429         2.98574 
         1.6874         9.45072         2.95972 
        1.69353         9.37282         2.93402 
        1.69967         9.34912         2.90857 
        1.70581          9.2968         2.88343 
        1.71193         9.26081         2.85869 
        1.71806         9.21373         2.83418 
        1.72421         9.15786         2.80991 
        1.73035         9.12682         2.78596 
        1.73649         9.09241         2.76228 
        1.74262         8.99736         2.73891 
        1.74876         9.00758         2.71579 
        1.75489         8.95758         2.69298 
        1.76101         8.88451         2.67044 
        1.76715         8.87446         2.64814 
        1.77329         8.82503         2.62605 
        1.77943         8.75985         2.60422 
        1.78557         8.76294         2.58266 
        1.79171         8.70457         2.56134 
        1.79785         8.67814         2.54026 
        1.80399         8.60712         2.51943 
        1.81012         8.58432         2.49885 
        1.81625         8.52441         2.47851 
        1.82239         8.49674         2.45837 
        1.82853         8.44218         2.43847 
        1.83466         8.39097          2.4188 
        1.84078         8.37783         2.39937 
        1.84692         8.34865         2.38013 
        1.85306         8.30984         2.36107 
         1.8592         8.27803         2.34225 
        1.86533          8.2371         2.32365 
        1.87147         8.19658         2.30523 
        1.87761         8.16842           2.287 
        1.88375         8.12467         2.26899 
        1.88988         8.08218         2.25119 
        1.89601         8.06251         2.23358 
        1.90215          8.0097         2.21614 
        1.90829         7.98174         2.19889 
        1.91442         7.93934         2.18183 
        1.92056         7.94003         2.16496 
         1.9267         7.87781         2.14826 
        1.93284         7.86577         2.13172 
        1.93897          7.8099         2.11539 
        1.94509         7.76499         2.09926 
        1.95123         7.75785         2.08326 
        1.95737         7.72787         2.06742 
        1.96349         7.66615         2.05178 
        1.96964         7.63702         2.03626 
        1.97578         7.61772         2.02089 
        1.98192         7.58147         2.00571 
        1.98805         7.55438         1.99069 
        1.99419         7.52919         1.97582 
        2.00033         7.48886         1.96109 
        2.00647         7.46673         1.94652 
         2.0126         7.43767         1.93213 
        2.01874         7.38784         1.91785 
        2.02488         7.37262         1.90371 
        2.03101          7.3384         1.88974 
        2.03714         7.29722         1.87592 
        2.04328         7.26833         1.86222 
        2.04941         7.23594         1.84867 
        2.05554         7.22224         1.83527 
        2.06167         7.19965         1.82198 
        2.06781         7.15591         1.80882 
        2.07396         7.13195         1.79577 
        2.08009         7.08784         1.78287 
        2.08622         7.08842         1.77012 
        2.09237         7.05918         1.75746 
        2.09851         7.01035         1.74493 
        2.10464         6.99858         1.73254 
        2.11077         6.95531         1.72028 
        2.11691         6.94877         1.70812 
        2.12305         6.90798         1.69607 
        2.12918         6.87962         1.68417 
        2.13531         6.85836         1.67238 
        2.14145         6.83101         1.66068 
         2.1476         6.81052         1.64908 
        2.15372         6.77464         1.63764 
        2.15985         6.75538          1.6263 
        2.16599         6.73328         1.61504 
        2.17213         6.72547          1.6039 
        2.17827         6.67754         1.59286 
         2.1844         6.66131         1.58194 
        2.19054         6.64062         1.57112 
        2.19666         6.60728         1.56041 
         2.2028         6.57809         1.54979 
        2.20893         6.56106         1.53927 
        2.21508         6.53602         1.52884 
        2.22122         6.49208         1.51849 
        2.22736         6.47586         1.50827 
        2.23349         6.45442         1.49814 
        2.23962         6.44031          1.4881 
        2.24577         6.41099         1.47814 
         2.2519         6.40755         1.46829 
        2.25802         6.33668         1.45854 
        2.26417         6.33863         1.44885 
        2.27031         6.31392         1.43925 
        2.27644         6.29449         1.42975 
        2.28257         6.25785         1.42035 
        2.28872          6.2467         1.41101 
        2.29486         6.22212         1.40176 
        2.30099         6.20992         1.39261 
        2.30712           6.174         1.38353 
        2.31326         6.15375         1.37452 
         2.3194         6.12923          1.3656 
        2.32553         6.10619         1.35678 
        2.33166         6.08564         1.34803 
         2.3378         6.06927         1.33935 
        2.34394         6.04549         1.33074 
        2.35007          6.0197         1.32222 
        2.35619         6.00915         1.31379 
        2.36233         5.97331         1.30541 
        2.36848         5.96075         1.29708 
        2.37462         5.94058         1.28885 
        2.38075         5.92549         1.28069 
        2.38689         5.90929          1.2726 
        2.39303         5.87051         1.26458 
        2.39916         5.86282         1.25664 
        2.40529         5.83564         1.24877 
        2.41143         5.82142         1.24096 
        2.41757         5.79657         1.23321 
         2.4237         5.78128         1.22554 
        2.42983         5.76419         1.21794 
        2.43598         5.74664         1.21038 
        2.44211          5.7244          1.2029 
        2.44823         5.69339          1.1955 
        2.45437         5.68078         1.18814 
        2.46052         5.66915         1.18084 
        2.46665         5.64779         1.17361 
        2.47279         5.62725         1.16644 
        2.47892         5.60026         1.15933 
        2.48507         5.58715         1.15227 
         2.4912         5.56715         1.14529 
