# k  (h/Mpc)    Pcb(k)  (Mpc/h)^3    Pcb_linear(k)  (Mpc/h)^3
     0.00783031         659.808         666.003 
       0.013688         842.238         844.109 
       0.019231         870.464         870.775 
      0.0249154         815.531         819.496 
      0.0312784         723.736         724.296 
      0.0375637         631.328          629.99 
      0.0433917          558.37         558.978 
      0.0492413             507         506.543 
      0.0555754         464.519         466.164 
      0.0619321         435.708         434.292 
       0.067871         404.214         405.377 
      0.0738098          372.36         373.658 
      0.0800417         335.474         337.322 
      0.0862327         300.269         300.941 
      0.0921407         269.322         269.343 
      0.0982031         242.087         242.578 
       0.104506         222.643          221.67 
       0.110769           207.6         206.922 
       0.116806         196.024         196.396 
       0.122832         187.557          187.27 
       0.129052         176.889         177.428 
       0.135211         165.776          166.35 
       0.141259         154.513         154.352 
       0.147318         142.858         142.115 
       0.153489          130.95         130.549 
       0.159709         121.251          120.68 
       0.165845          114.39         113.022 
       0.171974         107.757         107.212 
       0.178125         103.289         102.639 
       0.184229         99.4813         98.6357 
        0.19034         94.6042         94.5617 
       0.196428         90.7135         90.1103 
       0.202534         86.4718         85.2455 
       0.208729         81.0723         80.1499 
       0.214876         75.9067         75.2905 
       0.220989         72.2878         70.9583 
       0.227147         67.9669         67.2605 
        0.23329         64.9784         64.2262 
       0.239377         62.6391         61.7202 
       0.245482         60.0261         59.4954 
       0.251667         58.3232          57.325 
       0.257832         56.0088         55.1029 
       0.263955         53.7482         52.7956 
       0.270079         51.4514          50.429 
        0.27624         49.4792         48.0882 
       0.282372         47.2871         45.8999 
        0.28843         45.1404         43.9464 
       0.294538         43.3959         42.2096 
       0.300721         42.1192         40.6623 
        0.30691         40.4393         39.2685 
       0.313033          39.171         37.9723 
       0.319153          37.498         36.7057 
       0.325316         36.7515         35.4269 
        0.33145           35.37         34.1514 
       0.337538         34.1814         32.9004 
       0.343633         32.8844         31.6932 
       0.349808         31.8414          30.543 
       0.355968         30.8027         29.4826 
       0.362074         29.7933         28.5189 
       0.368217          28.918         27.6227 
       0.374374         27.9552         26.7803 
       0.380519         27.2575         25.9742 
       0.386598         26.5129         25.1964 
       0.392688         25.8407         24.4317 
        0.39888         25.0218         23.6683 
       0.405048         24.3446         22.9299 
       0.411186         23.6842         22.2248 
       0.417313         22.8839         21.5554 
       0.423458         22.2995         20.9224 
       0.429607         21.6433         20.3255 
       0.435692          21.041         19.7651 
       0.441815         20.5586         19.2261 
       0.447964         20.1607         18.7045 
       0.454126         19.4664         18.1966 
       0.460267         19.0199          17.704 
       0.466387         18.4501         17.2274 
        0.47254         18.0868         16.7636 
       0.478662         17.6976          16.319 
       0.484765         17.1895          15.894 
       0.490885         16.7724         15.4866 
       0.497035         16.5232         15.0943 
       0.503198          16.078         14.7168 
       0.509342         15.7017         14.3541 
       0.515458         15.3164         14.0051 
       0.521598         15.0104         13.6654 
       0.527764         14.6399         13.3339 
       0.533884          14.381         13.0149 
           0.54         14.0526         12.7063 
       0.546137         13.7765         12.4071 
       0.552299         13.5019          12.117 
       0.558452          13.107         11.8374 
       0.564573         12.9145         11.5688 
       0.570708         12.6542         11.3086 
       0.576825          12.334         11.0576 
       0.582926         12.1249         10.8148 
       0.589034         11.7822         10.5787 
       0.595184         11.5963         10.3478 
       0.601379         11.3494          10.122 
       0.607522          11.181         9.90472 
       0.613639         11.0235         9.69497 
       0.619772         10.7279         9.49108 
       0.625918         10.6038         9.29291 
       0.632068         10.4319         9.10048 
       0.638161         10.1823         8.91535 
         0.6443         9.97631         8.73412 
       0.650464         9.76978         8.55733 
       0.656582         9.67073         8.38675 
       0.662703         9.49174         8.22081 
       0.668861         9.33003         8.05845 
       0.675024         9.13637         7.90037 
       0.681124         8.97036         7.74817 
       0.687237         8.84051         7.59972 
       0.693381         8.70562         7.45453 
       0.699536         8.47313         7.31294 
       0.705665         8.36651         7.17573 
       0.711789         8.23488         7.04224 
       0.717957         8.08942          6.9113 
        0.72409         7.95434         6.78447 
       0.730186         7.83816         6.66164 
       0.736317         7.75656         6.54122 
       0.742472         7.62939         6.42336 
       0.748622         7.49222         6.30854 
        0.75476         7.33345         6.19681 
       0.760888         7.24291         6.08797 
       0.767043         7.15764         5.98136 
       0.773185         7.00985         5.87754 
       0.779291         6.93907         5.77682 
       0.785407         6.82515         5.67834 
       0.791564          6.7207         5.58157 
       0.797719          6.6198         5.48714 
       0.803834         6.54927         5.39552 
       0.809972         6.46662         5.30569 
       0.816124         6.33807         5.21774 
       0.822261         6.23521         5.13204 
       0.828378         6.16229         5.04855 
       0.834502         6.10239         4.96687 
       0.840667         5.98021         4.88649 
       0.846816         5.88822         4.80814 
       0.852925          5.8369         4.73203 
       0.859047         5.75583         4.65742 
       0.865192         5.69105         4.58419 
       0.871341         5.62117         4.51251 
       0.877463         5.54448         4.44271 
       0.883569         5.44685         4.37458 
       0.889708         5.36248         4.30754 
       0.895864         5.30993         4.24176 
       0.902008         5.23477          4.1775 
       0.908149          5.1776         4.11463 
       0.914301         5.08757         4.05296 
       0.920448          5.0241         3.99263 
       0.926574         4.95572         3.93376 
       0.932687         4.90832         3.87621 
       0.938823         4.85083         3.81962 
       0.944975         4.78465         3.76404 
       0.951105         4.73462         3.70978 
       0.957225         4.70537          3.6567 
       0.963368         4.63502         3.60448 
       0.969511         4.57214          3.5533 
       0.975621         4.50578         3.50339 
       0.981748         4.46487         3.45433 
       0.987916         4.41215         3.40591 
        0.99406         4.34053          3.3586 
        1.00019          4.2939          3.3123 
        1.00632         4.25384         3.26692 
        1.01246         4.20673         3.22233 
        1.01859         4.15691         3.17866 
        1.02471         4.10645         3.13585 
        1.03085         4.06325          3.0937 
        1.03698         4.00922         3.05242 
        1.04314         3.97386         3.01172 
        1.04929         3.92225         2.97187 
        1.05541         3.88019          2.9329 
        1.06154         3.84115         2.89455 
        1.06769          3.8103         2.85683 
        1.07382         3.75629         2.81991 
        1.07993          3.7066         2.78374 
        1.08607         3.68733         2.74805 
        1.09222         3.64159         2.71297 
        1.09836         3.61278         2.67854 
        1.10449         3.57085         2.64475 
        1.11063         3.52791         2.61152 
        1.11677         3.49347         2.57888 
         1.1229         3.45662         2.54685 
        1.12903         3.41673         2.51535 
        1.13518         3.38968         2.48436 
        1.14131         3.34188         2.45392 
        1.14745         3.29426           2.424 
        1.15359         3.28038         2.39459 
        1.15973          3.2345         2.36565 
        1.16584         3.21774         2.33733 
        1.17197         3.18217         2.30944 
        1.17811         3.15315         2.28192 
        1.18424         3.13123         2.25493 
        1.19038         3.09574         2.22831 
        1.19652         3.06476         2.20213 
        1.20267         3.03816         2.17637 
        1.20881         3.00227         2.15103 
        1.21495         2.98086         2.12615 
        1.22108         2.95183         2.10166 
         1.2272         2.93375         2.07762 
        1.23334         2.89505          2.0539 
        1.23949         2.86525          2.0305 
        1.24562         2.84938         2.00753 
        1.25174         2.81423         1.98496 
        1.25789         2.79314         1.96266 
        1.26402         2.75967         1.94076 
        1.27014         2.73458         1.91924 
        1.27628         2.72375         1.89798 
        1.28244         2.68619         1.87701 
        1.28858         2.66923         1.85639 
        1.29471         2.64201         1.83613 
        1.30084         2.61633         1.81619 
        1.30697         2.60355         1.79652 
        1.31312         2.56119         1.77711 
        1.31925         2.55165         1.75805 
        1.32537         2.52937          1.7393 
        1.33151         2.51126         1.72075 
        1.33765         2.48093         1.70249 
        1.34378         2.45879         1.68453 
        1.34992         2.45076         1.66682 
        1.35606         2.41621         1.64932 
         1.3622         2.40514         1.63211 
        1.36833         2.38303         1.61519 
        1.37445         2.35986         1.59852 
        1.38059         2.34423         1.58204 
        1.38675         2.33462         1.56575 
        1.39288          2.3043         1.54976 
        1.39901         2.28403           1.534 
        1.40515         2.26818         1.51843 
         1.4113         2.25033         1.50308 
        1.41742         2.23313           1.488 
        1.42355         2.22322          1.4731 
         1.4297         2.19459         1.45836 
        1.43585         2.18356         1.44384 
        1.44198         2.17118         1.42956 
        1.44809          2.1426         1.41551 
        1.45423         2.12821          1.4016 
        1.46036         2.11232          1.3879 
        1.46649         2.09429         1.37438 
        1.47263         2.07714         1.36103 
        1.47877         2.05799         1.34786 
        1.48491         2.04369         1.33485 
        1.49104           2.032         1.32204 
        1.49718         2.01907         1.30939 
        1.50333         2.00031         1.29689 
        1.50947         1.98898         1.28458 
         1.5156         1.97234         1.27244 
        1.52172         1.95745         1.26047 
        1.52787         1.94108         1.24862 
          1.534         1.93086         1.23694 
        1.54013         1.91201         1.22543 
        1.54627         1.89562         1.21404 
        1.55241         1.88193         1.20279 
        1.55855         1.87175         1.19171 
        1.56467          1.8594         1.18079 
         1.5708         1.83902         1.16998 
        1.57695         1.83247          1.1593 
        1.58308         1.81842         1.14877 
        1.58922         1.80646         1.13836 
        1.59535         1.79324         1.12809 
         1.6015         1.78095         1.11793 
        1.60764         1.77063         1.10791 
        1.61376         1.75672         1.09803 
        1.61989         1.74374         1.08827 
        1.62604         1.73032         1.07861 
        1.63218         1.72466         1.06907 
        1.63831         1.70545         1.05966 
        1.64444         1.69408         1.05037 
        1.65059         1.68654         1.04117 
        1.65673         1.67308         1.03209 
        1.66285         1.65998         1.02314 
        1.66898         1.65314          1.0143 
        1.67512           1.637         1.00555 
        1.68127          1.6274         0.99689 
         1.6874         1.62033        0.988354 
        1.69353         1.60335        0.979923 
        1.69967         1.59363        0.971572 
        1.70581         1.58905        0.963322 
        1.71193         1.57486          0.9552 
        1.71806         1.56824        0.947155 
        1.72421           1.556        0.939188 
        1.73035         1.54429        0.931321 
        1.73649         1.53619        0.923547 
        1.74262         1.52627        0.915868 
        1.74876         1.51705        0.908272 
        1.75489         1.50347        0.900779 
        1.76101         1.49509        0.893372 
        1.76715         1.48661        0.886039 
        1.77329         1.47782         0.87878 
        1.77943         1.46626          0.8716 
        1.78557         1.45699        0.864511 
        1.79171          1.4521        0.857499 
        1.79785         1.44032        0.850565 
        1.80399         1.43261        0.843709 
        1.81012         1.42608        0.836939 
        1.81625         1.41359        0.830246 
        1.82239         1.40583        0.823617 
        1.82853         1.39206        0.817064 
        1.83466         1.38804        0.810589 
        1.84078         1.37856        0.804191 
        1.84692         1.37314        0.797852 
        1.85306         1.36255        0.791575 
         1.8592         1.35633        0.785375 
        1.86533         1.34656        0.779246 
        1.87147         1.34015        0.773175 
        1.87761         1.33194        0.767167 
        1.88375         1.31974         0.76123 
        1.88988          1.3168        0.755363 
        1.89601         1.30664        0.749554 
        1.90215         1.29844        0.743803 
        1.90829         1.29021        0.738114 
        1.91442         1.28296        0.732486 
        1.92056         1.27675        0.726921 
         1.9267         1.26918        0.721409 
        1.93284         1.26433        0.715951 
        1.93897         1.25576         0.71056 
        1.94509         1.24747        0.705236 
        1.95123         1.23911        0.699954 
        1.95737         1.23329        0.694723 
        1.96349         1.22498        0.689559 
        1.96964         1.21966        0.684432 
        1.97578         1.21245        0.679356 
        1.98192         1.20796        0.674342 
        1.98805         1.19762        0.669379 
        1.99419         1.19369        0.664465 
        2.00033         1.18974        0.659598 
        2.00647         1.17861        0.654782 
         2.0126         1.17457        0.650023 
        2.01874         1.16706        0.645303 
        2.02488         1.16157        0.640627 
        2.03101         1.15252        0.636006 
        2.03714         1.14469        0.631435 
        2.04328         1.14295        0.626904 
        2.04941         1.13456        0.622421 
        2.05554         1.12925        0.617986 
        2.06167           1.122        0.613588 
        2.06781         1.11639        0.609232 
        2.07396          1.1091        0.604913 
        2.08009         1.10469        0.600643 
        2.08622         1.09706         0.59642 
        2.09237         1.09581        0.592229 
        2.09851         1.08927        0.588078 
        2.10464         1.08405        0.583974 
        2.11077         1.07637        0.579914 
        2.11691         1.06964        0.575884 
        2.12305         1.06585        0.571892 
        2.12918         1.05955        0.567948 
        2.13531         1.05493        0.564042 
        2.14145         1.04823        0.560163 
         2.1476         1.04247        0.556316 
        2.15372         1.03869        0.552524 
        2.15985         1.03187        0.548765 
        2.16599         1.02617         0.54503 
        2.17213         1.02156        0.541334 
        2.17827          1.0187        0.537673 
         2.1844         1.01323        0.534049 
        2.19054         1.00937        0.530458 
        2.19666         1.00241        0.526905 
         2.2028         0.99767        0.523382 
        2.20893        0.991455        0.519889 
        2.21508        0.989176        0.516424 
        2.22122        0.980642         0.51299 
        2.22736        0.975854        0.509594 
        2.23349         0.97579         0.50623 
        2.23962        0.967914        0.502895 
        2.24577        0.962365        0.499587 
         2.2519        0.957886        0.496314 
        2.25802        0.954758        0.493076 
        2.26417          0.9474        0.489857 
        2.27031        0.944639        0.486664 
        2.27644        0.940097         0.48351 
        2.28257        0.936194        0.480383 
        2.28872        0.930718        0.477279 
        2.29486        0.927136        0.474202 
        2.30099        0.921447        0.471159 
        2.30712        0.918142        0.468142 
        2.31326        0.914489        0.465146 
         2.3194        0.910888        0.462179 
        2.32553        0.906434        0.459242 
        2.33166        0.901244        0.456332 
         2.3378        0.896464        0.453443 
        2.34394        0.890892        0.450579 
        2.35007        0.887649        0.447744 
        2.35619        0.885145        0.444936 
        2.36233        0.878645        0.442146 
        2.36848        0.876287        0.439375 
        2.37462        0.871446        0.436633 
        2.38075        0.869389        0.433917 
        2.38689        0.864071        0.431222 
        2.39303        0.861493        0.428551 
        2.39916        0.854805        0.425905 
        2.40529        0.853686        0.423282 
        2.41143        0.849243        0.420679 
        2.41757        0.845021        0.418097 
         2.4237        0.841853        0.415541 
        2.42983        0.838048        0.413008 
        2.43598        0.834266        0.410488 
        2.44211        0.830932        0.407994 
        2.44823        0.826868        0.405527 
        2.45437        0.823456        0.403073 
        2.46052         0.82175        0.400638 
        2.46665        0.816847        0.398227 
        2.47279         0.81286        0.395836 
        2.47892        0.808233        0.393464 
        2.48507        0.805587         0.39111 
         2.4912        0.801973        0.388779 
