# k  (h/Mpc)    P(k)  (Mpc/h)^3    P_linear(k)  (Mpc/h)^3
     0.00783031          130.09         131.262 
       0.013688         165.695         166.325 
       0.019231         171.469         171.565 
      0.0249154         161.049         161.456 
      0.0312784         142.764         142.697 
      0.0375637         124.407         124.115 
      0.0433917         110.254         110.124 
      0.0492413         99.9854         99.7934 
      0.0555754         91.8265         91.8379 
      0.0619321         85.7682         85.5586 
       0.067871         79.8273         79.8619 
      0.0738098          73.554         73.6129 
      0.0800417         66.3549         66.4544 
      0.0862327         59.2946         59.2873 
      0.0921407          53.117         53.0622 
      0.0982031         47.8046         47.7894 
       0.104506         43.7993         43.6702 
       0.110769         40.8548         40.7648 
       0.116806         38.6688          38.691 
       0.122832         36.9264         36.8931 
       0.129052         34.9124         34.9543 
       0.135211         32.7174         32.7719 
       0.141259         30.4168         30.4082 
       0.147318         28.0632         27.9974 
       0.153489         25.7535         25.7189 
       0.159709         23.8113         23.7746 
       0.165845         22.3741         22.2658 
       0.171974          21.142         21.1213 
       0.178125          20.248         20.2204 
       0.184229          19.479         19.4317 
        0.19034         18.6084         18.6291 
       0.196428         17.7698         17.7522 
       0.202534         16.8707         16.7938 
       0.208729         15.8315         15.7899 
       0.214876         14.8438         14.8326 
       0.220989         14.0578         13.9791 
       0.227147         13.2659         13.2506 
        0.23329         12.6685         12.6529 
       0.239377         12.1817         12.1592 
       0.245482         11.7235         11.7209 
       0.251667         11.3324         11.2933 
       0.257832          10.877         10.8555 
       0.263955         10.4318          10.401 
       0.270079         9.97179         9.93475 
        0.27624         9.53949         9.47361 
       0.282372         9.10656         9.04248 
        0.28843         8.69853         8.65763 
       0.294538         8.35856         8.31549 
       0.300721         8.07617         8.01066 
        0.30691          7.7745         7.73607 
       0.313033         7.52285         7.48071 
       0.319153         7.23526         7.23121 
       0.325316          7.0373         6.97926 
        0.33145         6.77832           6.728 
       0.337538         6.52941         6.48153 
       0.343633         6.28217         6.24371 
       0.349808         6.06648         6.01711 
       0.355968         5.86002          5.8082 
       0.362074         5.66418         5.61835 
       0.368217         5.48908          5.4418 
       0.374374          5.3067         5.27584 
       0.380519         5.16285         5.11703 
       0.386598         5.01485         4.96381 
       0.392688         4.87189         4.81317 
        0.39888          4.7146         4.66276 
       0.405048         4.57172          4.5173 
       0.411186         4.43649         4.37838 
       0.417313         4.29475         4.24651 
       0.423458         4.17843         4.12182 
       0.429607         4.05094         4.00421 
       0.435692         3.94009         3.89381 
       0.441815         3.83586         3.78763 
       0.447964         3.74531         3.68487 
       0.454126         3.63106         3.58481 
       0.460267         3.53302         3.48776 
       0.466387         3.43474         3.39387 
        0.47254         3.34762          3.3025 
       0.478662         3.26397         3.21491 
       0.484765         3.17455         3.13119 
       0.490885          3.0961         3.05093 
       0.497035         3.03216         2.97365 
       0.503198         2.95015         2.89927 
       0.509342         2.88268         2.82782 
       0.515458         2.80778         2.75908 
       0.521598         2.74237         2.69214 
       0.527764         2.67066         2.62685 
       0.533884         2.61748         2.56399 
           0.54         2.55393          2.5032 
       0.546137         2.49781         2.44425 
       0.552299         2.43902         2.38711 
       0.558452         2.37759         2.33203 
       0.564573         2.32935         2.27911 
       0.570708         2.27807         2.22785 
       0.576825         2.22479         2.17839 
       0.582926         2.18236         2.13057 
       0.589034         2.12419         2.08406 
       0.595184         2.08173         2.03856 
       0.601379         2.03732         1.99407 
       0.607522         1.99935         1.95128 
       0.613639         1.96343         1.90995 
       0.619772         1.91425         1.86979 
       0.625918         1.87808         1.83075 
       0.632068          1.8438         1.79284 
       0.638161         1.80303         1.75636 
         0.6443         1.76653         1.72066 
       0.650464         1.72777         1.68583 
       0.656582         1.69812         1.65223 
       0.662703         1.66583         1.61954 
       0.668861         1.63799         1.58755 
       0.675024         1.60247         1.55641 
       0.681124         1.56837         1.52642 
       0.687237         1.54415         1.49718 
       0.693381           1.516         1.46858 
       0.699536         1.47992         1.44068 
       0.705665         1.45483         1.41365 
       0.711789         1.43141         1.38735 
       0.717957         1.40249         1.36156 
        0.72409         1.37863         1.33657 
       0.730186         1.35303         1.31237 
       0.736317         1.33481         1.28865 
       0.742472         1.30975         1.26543 
       0.748622         1.28516         1.24281 
        0.75476         1.26005          1.2208 
       0.760888         1.23813         1.19936 
       0.767043         1.22378         1.17835 
       0.773185         1.19865          1.1579 
       0.779291         1.17899         1.13806 
       0.785407         1.15995         1.11866 
       0.791564         1.14125          1.0996 
       0.797719         1.12404         1.08099 
       0.803834         1.10597         1.06294 
       0.809972         1.08711         1.04525 
       0.816124         1.06834         1.02792 
       0.822261         1.04959         1.01104 
       0.828378         1.03546        0.994588 
       0.834502         1.02096        0.978497 
       0.840667         1.00107        0.962662 
       0.846816        0.985971        0.947226 
       0.852925        0.974207        0.932231 
       0.859047        0.958901        0.917533 
       0.865192        0.942519        0.903107 
       0.871341        0.928004        0.888986 
       0.877463        0.917331        0.875234 
       0.883569        0.901111        0.861812 
       0.889708        0.887665        0.848605 
       0.895864        0.874533        0.835645 
       0.902008         0.86059        0.822986 
       0.908149        0.848121          0.8106 
       0.914301        0.832667        0.798452 
       0.920448        0.822306        0.786567 
       0.926574        0.810097        0.774968 
       0.932687        0.798403        0.763631 
       0.938823        0.790338        0.752482 
       0.944975        0.778137        0.741533 
       0.951105         0.76789        0.730844 
       0.957225        0.758846        0.720386 
       0.963368         0.74735          0.7101 
       0.969511        0.735536        0.700016 
       0.975621        0.724712        0.690184 
       0.981748         0.71782        0.680519 
       0.987916        0.707077        0.670979 
        0.99406        0.696874         0.66166 
        1.00019        0.689455        0.652538 
        1.00632        0.677631        0.643598 
        1.01246        0.668821        0.634814 
        1.01859        0.661335         0.62621 
        1.02471        0.652048        0.617778 
        1.03085        0.645717        0.609473 
        1.03698          0.6356         0.60134 
        1.04314        0.628034        0.593323 
        1.04929        0.619015        0.585472 
        1.05541        0.612483        0.577796 
        1.06154        0.603746         0.57024 
        1.06769        0.595446        0.562809 
        1.07382        0.588842        0.555536 
        1.07993        0.580338        0.548409 
        1.08607        0.575681        0.541379 
        1.09222         0.56693        0.534467 
        1.09836         0.56222        0.527684 
        1.10449        0.554848        0.521029 
        1.11063        0.546605        0.514482 
        1.11677        0.539147        0.508051 
         1.1229        0.533966        0.501742 
        1.12903        0.526739        0.495536 
        1.13518        0.521689        0.489431 
        1.14131        0.514659        0.483433 
        1.14745        0.506531        0.477539 
        1.15359        0.502571        0.471745 
        1.15973         0.49514        0.466044 
        1.16584        0.491781        0.460465 
        1.17197        0.485414         0.45497 
        1.17811        0.480505        0.449548 
        1.18424        0.476062        0.444232 
        1.19038        0.469227        0.438986 
        1.19652          0.4627        0.433829 
        1.20267        0.459405        0.428755 
        1.20881        0.453464        0.423764 
        1.21495        0.449574        0.418861 
        1.22108        0.444219        0.414037 
         1.2272        0.439798          0.4093 
        1.23334        0.434271        0.404628 
        1.23949        0.429665        0.400018 
        1.24562        0.425067        0.395493 
        1.25174        0.420858        0.391046 
        1.25789        0.416756        0.386654 
        1.26402        0.410811        0.382338 
        1.27014        0.406979        0.378099 
        1.27628        0.403551        0.373911 
        1.28244        0.397534         0.36978 
        1.28858        0.394225        0.365718 
        1.29471        0.391257        0.361726 
        1.30084        0.386112        0.357797 
        1.30697        0.382205        0.353922 
        1.31312        0.376946        0.350099 
        1.31925        0.373791        0.346345 
        1.32537        0.370632         0.34265 
        1.33151        0.367311        0.338996 
        1.33765        0.363435        0.335398 
        1.34378        0.358781         0.33186 
        1.34992        0.355807         0.32837 
        1.35606        0.352113        0.324924 
         1.3622        0.348681        0.321534 
        1.36833        0.345029        0.318201 
        1.37445        0.340699        0.314917 
        1.38059        0.337722        0.311669 
        1.38675         0.33614        0.308461 
        1.39288        0.332008         0.30531 
        1.39901         0.32891        0.302205 
        1.40515         0.32607        0.299137 
         1.4113        0.322044        0.296113 
        1.41742        0.319078        0.293143 
        1.42355        0.316941        0.290208 
         1.4297        0.313035        0.287304 
        1.43585        0.310555        0.284442 
        1.44198        0.308255         0.28163 
        1.44809        0.304557        0.278862 
        1.45423        0.302011        0.276121 
        1.46036        0.298989        0.273422 
        1.46649        0.296939        0.270759 
        1.47263        0.293722        0.268129 
        1.47877        0.290432        0.265535 
        1.48491        0.288357        0.262972 
        1.49104        0.285008        0.260449 
        1.49718        0.282683        0.257957 
        1.50333        0.280825        0.255493 
        1.50947        0.277911        0.253068 
         1.5156        0.275193        0.250677 
        1.52172        0.272969        0.248318 
        1.52787        0.270497        0.245984 
          1.534        0.267821        0.243683 
        1.54013        0.265313        0.241415 
        1.54627        0.263598        0.239171 
        1.55241        0.260815        0.236956 
        1.55855        0.258148        0.234772 
        1.56467        0.257142        0.232621 
         1.5708        0.254276        0.230492 
        1.57695        0.252147        0.228387 
        1.58308         0.24983        0.226312 
        1.58922        0.247926        0.224263 
        1.59535        0.245703        0.222239 
         1.6015         0.24339        0.220238 
        1.60764        0.241649        0.218263 
        1.61376        0.239014        0.216317 
        1.61989        0.237332        0.214394 
        1.62604        0.235641         0.21249 
        1.63218        0.233701        0.210611 
        1.63831        0.231793        0.208759 
        1.64444        0.229854        0.206928 
        1.65059        0.227906        0.205116 
        1.65673        0.226145        0.203327 
        1.66285        0.224602        0.201564 
        1.66898        0.222623        0.199822 
        1.67512         0.22041        0.198098 
        1.68127        0.218523        0.196392 
         1.6874         0.21734         0.19471 
        1.69353        0.214975        0.193049 
        1.69967        0.214041        0.191404 
        1.70581        0.211577        0.189779 
        1.71193        0.210135        0.188179 
        1.71806        0.208182        0.186594 
        1.72421        0.207207        0.185024 
        1.73035         0.20515        0.183475 
        1.73649        0.203924        0.181943 
        1.74262        0.202164         0.18043 
        1.74876        0.200502        0.178934 
        1.75489        0.199193        0.177458 
        1.76101        0.197219        0.175999 
        1.76715        0.195809        0.174554 
        1.77329        0.194061        0.173124 
        1.77943        0.192758        0.171709 
        1.78557        0.191626        0.170313 
        1.79171        0.190126        0.168931 
        1.79785        0.188613        0.167565 
        1.80399        0.187132        0.166215 
        1.81012        0.185858        0.164881 
        1.81625        0.184355        0.163562 
        1.82239        0.183066        0.162256 
        1.82853        0.181418        0.160965 
        1.83466        0.180342         0.15969 
        1.84078        0.178964        0.158429 
        1.84692         0.17754        0.157181 
        1.85306        0.176533        0.155944 
         1.8592        0.174916        0.154723 
        1.86533        0.173947        0.153515 
        1.87147        0.172632        0.152319 
        1.87761         0.17158        0.151135 
        1.88375        0.169989        0.149966 
        1.88988        0.168859         0.14881 
        1.89601        0.167503        0.147666 
        1.90215        0.166535        0.146533 
        1.90829        0.165065        0.145412 
        1.91442        0.164351        0.144303 
        1.92056        0.162898        0.143207 
         1.9267        0.161625        0.142121 
        1.93284        0.160538        0.141046 
        1.93897        0.159379        0.139984 
        1.94509        0.158576        0.138935 
        1.95123        0.157319        0.137894 
        1.95737        0.156399        0.136864 
        1.96349        0.155128        0.135846 
        1.96964        0.153962        0.134836 
        1.97578        0.152955        0.133836 
        1.98192        0.152135        0.132849 
        1.98805        0.151179        0.131871 
        1.99419        0.149773        0.130903 
        2.00033        0.148799        0.129944 
        2.00647         0.14815        0.128995 
         2.0126        0.146811        0.128058 
        2.01874        0.146104        0.127128 
        2.02488        0.145063        0.126207 
        2.03101        0.144135        0.125296 
        2.03714        0.142974        0.124396 
        2.04328         0.14228        0.123503 
        2.04941        0.141082         0.12262 
        2.05554        0.140365        0.121746 
        2.06167        0.139673         0.12088 
        2.06781        0.138386        0.120022 
        2.07396        0.137519        0.119171 
        2.08009        0.136655         0.11833 
        2.08622        0.135896        0.117498 
        2.09237        0.135078        0.116672 
        2.09851        0.134229        0.115854 
        2.10464        0.133408        0.115046 
        2.11077        0.132344        0.114246 
        2.11691        0.131612        0.113452 
        2.12305        0.130697        0.112666 
        2.12918        0.130076        0.111889 
        2.13531         0.12905        0.111119 
        2.14145         0.12809        0.110355 
         2.1476        0.127462        0.109597 
        2.15372        0.126926         0.10885 
        2.15985        0.125921        0.108109 
        2.16599        0.125086        0.107373 
        2.17213        0.124397        0.106645 
        2.17827        0.123483        0.105924 
         2.1844        0.122944         0.10521 
        2.19054        0.122107        0.104503 
        2.19666        0.121155        0.103803 
         2.2028        0.120569        0.103109 
        2.20893        0.120063        0.102421 
        2.21508        0.118987        0.101738 
        2.22122        0.118242        0.101061 
        2.22736        0.117835        0.100392 
        2.23349        0.117003       0.0997298 
        2.23962        0.116451       0.0990728 
        2.24577        0.115549       0.0984211 
         2.2519        0.115002       0.0977762 
        2.25802         0.11423       0.0971382 
        2.26417        0.113642       0.0965042 
        2.27031        0.112853       0.0958752 
        2.27644        0.112215       0.0952537 
        2.28257        0.111551       0.0946378 
        2.28872           0.111       0.0940262 
        2.29486        0.110531       0.0934201 
        2.30099        0.109616       0.0928207 
        2.30712        0.109067       0.0922262 
        2.31326        0.108233        0.091636 
         2.3194         0.10806       0.0910514 
        2.32553        0.107282       0.0904728 
        2.33166        0.106843       0.0898996 
         2.3378        0.106097       0.0893305 
        2.34394        0.105443       0.0887662 
        2.35007        0.104827       0.0882076 
        2.35619        0.104089       0.0876546 
        2.36233        0.103649        0.087105 
        2.36848        0.103207       0.0865589 
        2.37462        0.102397       0.0860188 
        2.38075        0.102014       0.0854837 
        2.38689        0.101478       0.0849528 
        2.39303           0.101       0.0844266 
        2.39916        0.100231       0.0839053 
        2.40529       0.0997768       0.0833885 
        2.41143       0.0991438       0.0828758 
        2.41757       0.0986247       0.0823671 
         2.4237       0.0982165       0.0818636 
        2.42983       0.0976339       0.0813645 
        2.43598        0.097282       0.0808682 
        2.44211       0.0965315       0.0803768 
        2.44823       0.0962045       0.0798907 
        2.45437       0.0954637       0.0794073 
        2.46052       0.0951185       0.0789275 
        2.46665       0.0944806       0.0784526 
        2.47279       0.0939523       0.0779817 
        2.47892       0.0933253       0.0775144 
        2.48507       0.0928988       0.0770505 
         2.4912       0.0924894       0.0765913 
