# k  (h/Mpc)    P(k)  (Mpc/h)^3    P_linear(k)  (Mpc/h)^3
     0.00783031         1525.71         1540.65 
       0.013688          1786.6         1808.99 
       0.019231         1741.38          1750.6 
      0.0249154         1552.83         1550.29 
      0.0312784         1291.96         1291.48 
      0.0375637          1074.4         1076.19 
      0.0433917         935.917         933.374 
      0.0492413         837.234         837.715 
      0.0555754         769.482         767.108 
      0.0619321          701.88         707.582 
       0.067871         647.156         648.072 
      0.0738098          581.52         581.201 
      0.0800417         510.254         508.121 
      0.0862327         442.373          441.34 
      0.0921407         390.614           389.5 
      0.0982031         353.353         350.651 
       0.104506          323.44         323.659 
       0.110769         305.532         305.429 
       0.116806         292.508         290.605 
       0.122832         274.609         274.459 
       0.129052          255.93         254.607 
       0.135211         235.118          232.54 
       0.141259         212.589         210.837 
       0.147318         192.328         191.452 
       0.153489         177.383         175.648 
       0.159709         166.442         163.958 
       0.165845         156.211          155.69 
       0.171974         151.711         149.184 
       0.178125          145.11         142.929 
       0.184229         137.265         136.015 
        0.19034         130.527          128.14 
       0.196428         122.226         119.742 
       0.202534         112.766         111.487 
       0.208729         106.636         103.985 
       0.214876         101.034         97.8013 
       0.220989         94.8118         92.9063 
       0.227147         91.9928         88.9406 
        0.23329         88.5453         85.5035 
       0.239377         85.4643         82.1978 
       0.245482         81.6086         78.7212 
       0.251667         77.4224         74.9802 
       0.257832         74.6346         71.1597 
       0.263955         70.2349          67.481 
       0.270079         66.8676         64.1074 
        0.27624         63.6068         61.1315 
       0.282372         61.1857         58.5802 
        0.28843         59.7282         56.3804 
       0.294538          57.389         54.3552 
       0.300721         54.9461         52.3842 
        0.30691         53.5153         50.4083 
       0.313033         51.2953         48.4358 
       0.319153         49.9165         46.4751 
       0.325316         47.4057          44.569 
        0.33145         45.5559         42.7899 
       0.337538         44.0182         41.1736 
       0.343633         42.7097          39.701 
       0.349808         41.1824         38.3373 
       0.355968         39.8314         37.0651 
       0.362074         38.9522         35.8569 
       0.368217         37.6605          34.671 
       0.374374         36.7218         33.5017 
       0.380519          35.188         32.3627 
       0.386598         34.0117         31.2743 
       0.392688         32.8874         30.2362 
        0.39888         32.1364         29.2439 
       0.405048         31.2682         28.3171 
       0.411186         30.3297         27.4505 
       0.417313         29.4504         26.6305 
       0.423458         28.5093         25.8415 
       0.429607         27.9793         25.0778 
       0.435692         27.3986          24.345 
       0.441815          26.357         23.6289 
       0.447964         25.4958         22.9346 
       0.454126         25.0165         22.2672 
       0.460267          24.623         21.6323 
       0.466387          23.876         21.0286 
        0.47254         23.4298         20.4493 
       0.478662         22.6992          19.898 
       0.484765         22.1677         19.3693 
       0.490885         21.5034          18.857 
       0.497035         21.0326         18.3587 
       0.503198          20.614         17.8759 
       0.509342         19.9901         17.4108 
       0.515458         19.6732          16.964 
       0.521598         19.2119         16.5317 
       0.527764         18.8852         16.1141 
       0.533884         18.3428         15.7156 
           0.54         18.0032         15.3318 
       0.546137         17.4536         14.9598 
       0.552299           17.13         14.5985 
       0.558452         16.7373         14.2493 
       0.564573         16.4937         13.9131 
       0.570708          16.102         13.5867 
       0.576825         15.8144         13.2717 
       0.582926         15.4806         12.9677 
       0.589034         15.1699         12.6729 
       0.595184         14.9629         12.3858 
       0.601379         14.5497          12.106 
       0.607522          14.274         11.8374 
       0.613639         13.9871         11.5783 
       0.619772         13.7513         11.3263 
       0.625918         13.4624         11.0812 
       0.632068         13.2961         10.8431 
       0.638161         13.0158         10.6141 
         0.6443         12.7707         10.3902 
       0.650464         12.4591          10.172 
       0.656582         12.3519         9.96176 
       0.662703         12.1643         9.75757 
       0.668861         11.8337         9.55805 
       0.675024         11.6391         9.36404 
       0.681124         11.6024         9.17742 
       0.687237         11.3332         8.99553 
       0.693381         11.0499         8.81774 
       0.699536          10.976         8.64446 
       0.705665         10.7596         8.47662 
       0.711789         10.5431         8.31342 
       0.717957         10.3233         8.15344 
        0.72409         10.2188         7.99862 
       0.730186         10.1444          7.8488 
       0.736317         9.90509         7.70206 
       0.742472         9.78152         7.55856 
       0.748622         9.62288         7.41889 
        0.75476         9.37257         7.28308 
       0.760888         9.31151          7.1509 
       0.767043         9.11673          7.0215 
       0.773185         9.00108         6.89559 
       0.779291         8.93754          6.7735 
       0.785407         8.76043         6.65421 
       0.791564         8.65077         6.53707 
       0.797719         8.47765         6.42282 
       0.803834          8.4102         6.31206 
       0.809972         8.24589         6.20353 
       0.816124         8.14323         6.09733 
       0.822261         8.03863         5.99393 
       0.828378         7.92712         5.89326 
       0.834502         7.82641         5.79483 
       0.840667         7.73942         5.69804 
       0.846816         7.57073         5.60374 
       0.852925         7.51144          5.5122 
       0.859047         7.40276         5.42252 
       0.865192         7.29698         5.33456 
       0.871341         7.19663          5.2485 
       0.877463         7.09584         5.16475 
       0.883569         7.03443         5.08306 
       0.889708         6.92056         5.00273 
       0.895864         6.83061         4.92394 
       0.902008         6.73579         4.84703 
       0.908149         6.64166         4.77182 
       0.914301         6.57885         4.69809 
       0.920448         6.49761           4.626 
       0.926574         6.45197         4.55569 
       0.932687         6.33771           4.487 
       0.938823          6.2379         4.41949 
       0.944975         6.20039         4.35323 
       0.951105         6.09086         4.28857 
       0.957225         6.05522         4.22534 
       0.963368         5.97047         4.16318 
       0.969511         5.90066         4.10228 
       0.975621         5.82705         4.04293 
       0.981748          5.7347          3.9846 
       0.987916          5.6833         3.92707 
        0.99406         5.63671          3.8709 
        1.00019         5.57651         3.81594 
        1.00632         5.52342          3.7621 
        1.01246         5.44299         3.70923 
        1.01859         5.38223         3.65747 
        1.02471         5.30143         3.60676 
        1.03085         5.27264         3.55685 
        1.03698         5.21322         3.50799 
        1.04314         5.15436         3.45985 
        1.04929         5.08279         3.41273 
        1.05541         5.03282         3.36668 
        1.06154         4.98864         3.32136 
        1.06769         4.96031         3.27682 
        1.07382         4.87216         3.23325 
        1.07993         4.81865         3.19057 
        1.08607         4.79136          3.1485 
        1.09222         4.72447         3.10714 
        1.09836         4.71086         3.06658 
        1.10449         4.61289         3.02679 
        1.11063         4.59321         2.98767 
        1.11677         4.55126         2.94926 
         1.1229         4.50203          2.9116 
        1.12903         4.46697         2.87456 
        1.13518         4.40072         2.83815 
        1.14131         4.35922         2.80238 
        1.14745         4.30664         2.76726 
        1.15359         4.26716         2.73274 
        1.15973         4.22305         2.69879 
        1.16584         4.19266         2.66558 
        1.17197          4.1452         2.63288 
        1.17811         4.10452         2.60063 
        1.18424         4.06635         2.56902 
        1.19038         4.03455         2.53785 
        1.19652         4.00123          2.5072 
        1.20267         3.96606         2.47707 
        1.20881         3.92143         2.44744 
        1.21495          3.8881         2.41834 
        1.22108         3.85202         2.38972 
         1.2272         3.80507         2.36163 
        1.23334         3.79688         2.33393 
        1.23949          3.7449         2.30661 
        1.24562         3.71938         2.27981 
        1.25174         3.69501         2.25347 
        1.25789          3.6374         2.22747 
        1.26402         3.61509         2.20193 
        1.27014         3.58594         2.17686 
        1.27628         3.54795          2.1521 
        1.28244          3.5268         2.12768 
        1.28858         3.50146         2.10367 
        1.29471         3.45368         2.08009 
        1.30084         3.42335          2.0569 
        1.30697         3.40929         2.03402 
        1.31312         3.37425         2.01146 
        1.31925         3.34382         1.98931 
        1.32537          3.3221         1.96753 
        1.33151          3.2878         1.94599 
        1.33765          3.2621         1.92478 
        1.34378         3.24765         1.90394 
        1.34992         3.21555         1.88339 
        1.35606         3.19192          1.8631 
         1.3622         3.16398         1.84315 
        1.36833         3.13152         1.82354 
        1.37445         3.10218         1.80423 
        1.38059         3.07778         1.78514 
        1.38675         3.05551         1.76628 
        1.39288         3.04118         1.74776 
        1.39901         3.00406         1.72953 
        1.40515         2.98759         1.71151 
         1.4113         2.96467         1.69376 
        1.41742         2.93842         1.67633 
        1.42355         2.91479         1.65911 
         1.4297          2.8958         1.64208 
        1.43585         2.87679          1.6253 
        1.44198          2.8496         1.60882 
        1.44809           2.834          1.5926 
        1.45423         2.81024         1.57654 
        1.46036         2.79138         1.56073 
        1.46649         2.76297         1.54514 
        1.47263         2.75347         1.52975 
        1.47877         2.73298         1.51457 
        1.48491         2.70744         1.49958 
        1.49104         2.68863         1.48482 
        1.49718         2.67294         1.47025 
        1.50333         2.64809         1.45586 
        1.50947         2.62716         1.44168 
         1.5156         2.61229         1.42772 
        1.52172         2.59434         1.41394 
        1.52787         2.57653         1.40031 
          1.534         2.55987         1.38689 
        1.54013         2.54139         1.37365 
        1.54627         2.51978         1.36056 
        1.55241         2.49928         1.34764 
        1.55855         2.48784         1.33491 
        1.56467           2.472         1.32238 
         1.5708         2.45232         1.30997 
        1.57695         2.42943          1.2977 
        1.58308          2.4113         1.28562 
        1.58922         2.40457         1.27369 
        1.59535         2.38335         1.26191 
         1.6015         2.36462         1.25027 
        1.60764          2.3557         1.23878 
        1.61376         2.33245         1.22746 
        1.61989         2.31554         1.21628 
        1.62604         2.30007         1.20521 
        1.63218          2.2917         1.19429 
        1.63831         2.27936         1.18353 
        1.64444         2.25954         1.17289 
        1.65059         2.25019         1.16237 
        1.65673         2.22796         1.15198 
        1.66285         2.21522         1.14175 
        1.66898         2.20089         1.13164 
        1.67512         2.18421         1.12164 
        1.68127         2.17083         1.11174 
         1.6874         2.16292         1.10199 
        1.69353         2.14173         1.09236 
        1.69967         2.12894         1.08283 
        1.70581         2.12106         1.07341 
        1.71193         2.09643         1.06414 
        1.71806         2.09091         1.05496 
        1.72421         2.08026         1.04587 
        1.73035          2.0626          1.0369 
        1.73649          2.0529         1.02803 
        1.74262         2.04032         1.01928 
        1.74876          2.0282         1.01062 
        1.75489         2.01335         1.00208 
        1.76101         1.99919        0.993644 
        1.76715         1.99328        0.985292 
        1.77329         1.97727        0.977026 
        1.77943         1.96563        0.968852 
        1.78557           1.955        0.960783 
        1.79171         1.94415        0.952805 
        1.79785         1.93431        0.944916 
        1.80399         1.91993        0.937118 
        1.81012         1.90953        0.929419 
        1.81625         1.89374         0.92181 
        1.82239         1.88734        0.914275 
        1.82853         1.87571        0.906828 
        1.83466         1.85945        0.899471 
        1.84078          1.8497        0.892204 
        1.84692         1.84005        0.885006 
        1.85306         1.83119        0.877878 
         1.8592         1.81911         0.87084 
        1.86533          1.8109        0.863883 
        1.87147         1.80133        0.856995 
        1.87761         1.79242        0.850179 
        1.88375         1.77958        0.843445 
        1.88988         1.76962        0.836791 
        1.89601         1.75691        0.830206 
        1.90215         1.74748        0.823686 
        1.90829         1.74257         0.81724 
        1.91442          1.7285        0.810862 
        1.92056         1.72359        0.804558 
         1.9267          1.7136        0.798315 
        1.93284         1.70236        0.792135 
        1.93897         1.69059        0.786032 
        1.94509         1.68203        0.780006 
        1.95123         1.67439        0.774028 
        1.95737         1.66778        0.768109 
        1.96349         1.65576        0.762268 
        1.96964         1.64994         0.75647 
        1.97578         1.63807         0.75073 
        1.98192           1.625        0.745061 
        1.98805         1.62096         0.73945 
        1.99419         1.61054        0.733897 
        2.00033         1.60021        0.728399 
        2.00647         1.59733        0.722958 
         2.0126         1.58874        0.717582 
        2.01874         1.57928        0.712252 
        2.02488         1.57061        0.706972 
        2.03101         1.56094        0.701756 
        2.03714         1.55562        0.696597 
        2.04328          1.5467        0.691484 
        2.04941         1.53843        0.686426 
        2.05554         1.52967        0.681423 
        2.06167         1.52122        0.676463 
        2.06781         1.51456        0.671552 
        2.07396         1.50721        0.666683 
        2.08009         1.50168         0.66187 
        2.08622         1.49189        0.657111 
        2.09237         1.48767        0.652389 
        2.09851         1.47575        0.647713 
        2.10464         1.47012         0.64309 
        2.11077         1.46507        0.638518 
        2.11691          1.4543        0.633981 
        2.12305         1.44712        0.629487 
        2.12918         1.43885        0.625048 
        2.13531         1.43446        0.620651 
        2.14145         1.42731        0.616287 
         2.1476         1.41604        0.611959 
        2.15372         1.41181        0.607695 
        2.15985         1.40435        0.603467 
        2.16599         1.39961        0.599268 
        2.17213         1.39348        0.595113 
        2.17827         1.38448        0.590998 
         2.1844         1.37788        0.586926 
        2.19054         1.37098        0.582891 
        2.19666         1.36583        0.578899 
         2.2028         1.35763        0.574942 
        2.20893         1.35321        0.571019 
        2.21508         1.34573        0.567129 
        2.22122         1.33929        0.563274 
        2.22736         1.33169        0.559463 
        2.23349         1.32516        0.555688 
        2.23962         1.32311        0.551946 
        2.24577          1.3144        0.548235 
         2.2519         1.30769        0.544563 
        2.25802         1.30343        0.540931 
        2.26417         1.29681        0.537322 
        2.27031         1.29084        0.533743 
        2.27644         1.28437        0.530206 
        2.28257         1.27733        0.526703 
        2.28872         1.27407        0.523224 
        2.29486         1.26685        0.519777 
        2.30099         1.26007        0.516368 
        2.30712         1.25757        0.512989 
        2.31326         1.25058        0.509634 
         2.3194         1.24288        0.506311 
        2.32553         1.23914        0.503023 
        2.33166         1.23486        0.499766 
         2.3378         1.22932        0.496533 
        2.34394         1.22185        0.493328 
        2.35007         1.21457        0.490156 
        2.35619         1.21215        0.487015 
        2.36233         1.20689        0.483895 
        2.36848         1.20164        0.480795 
        2.37462         1.19593         0.47773 
        2.38075         1.19132        0.474694 
        2.38689         1.18767        0.471681 
        2.39303         1.18133        0.468696 
        2.39916         1.17607        0.465739 
        2.40529         1.17025        0.462809 
        2.41143         1.16456        0.459901 
        2.41757         1.16115        0.457017 
         2.4237         1.15487        0.454163 
        2.42983         1.14985        0.451334 
        2.43598         1.14674        0.448522 
        2.44211          1.1406        0.445738 
        2.44823         1.13648        0.442984 
        2.45437         1.13153        0.440246 
        2.46052         1.12758        0.437528 
        2.46665         1.12313        0.434839 
        2.47279         1.11763        0.432173 
        2.47892         1.11328        0.429527 
        2.48507          1.1086        0.426902 
         2.4912         1.10414        0.424303 
