# k  (h/Mpc)    P(k)  (Mpc/h)^3    P_linear(k)  (Mpc/h)^3
     0.00783031         4418.67         4476.63 
       0.013688         5640.08         5628.01 
       0.019231         5825.55         5824.26 
      0.0249154         5458.53          5523.1 
      0.0312784         4905.95         4930.64 
      0.0375637         4328.11         4324.39 
      0.0433917          3819.3         3853.27 
      0.0492413         3482.58         3493.64 
      0.0555754         3159.01         3208.08 
      0.0619321         2990.64         2981.43 
       0.067871         2745.51         2781.68 
      0.0738098          2533.8         2569.56 
      0.0800417         2283.47         2330.36 
      0.0862327         2064.37         2090.31 
      0.0921407         1870.56         1878.59 
      0.0982031         1680.28         1694.82 
       0.104506         1561.46         1546.58 
       0.110769         1449.82          1438.5 
       0.116806         1359.86         1360.22 
       0.122832         1301.38         1294.04 
       0.129052         1217.76         1226.15 
       0.135211         1146.95         1152.37 
       0.141259         1081.75         1073.15 
       0.147318         1008.86         991.537 
       0.153489         924.722         912.714 
       0.159709         864.817         843.515 
       0.165845         822.715         788.146 
       0.171974         772.185         745.115 
       0.178125         738.322         711.146 
       0.184229         711.307         682.284 
        0.19034         668.126         654.208 
       0.196428         651.057         624.445 
       0.202534         626.762         592.115 
       0.208729         590.878         557.857 
       0.214876         555.068         524.482 
       0.220989         534.984         493.978 
       0.227147          502.98         467.335 
        0.23329         482.375         445.151 
       0.239377          469.68         426.855 
       0.245482         441.781         410.956 
       0.251667         435.469         395.945 
       0.257832         420.446         380.939 
       0.263955         404.779         365.463 
       0.270079         389.615         349.468 
        0.27624         381.257         333.365 
       0.282372         364.984         318.021 
        0.28843         351.595         304.081 
       0.294538         336.593         291.568 
       0.300721         332.151         280.432 
        0.30691         317.216          270.53 
       0.313033         309.436         261.512 
       0.319153         297.082         252.856 
       0.325316         290.281         244.191 
        0.33145         280.529         235.525 
       0.337538         275.862         226.934 
       0.343633         266.425         218.534 
       0.349808         258.104         210.422 
       0.355968         253.146         202.892 
       0.362074         246.105         196.033 
       0.368217         239.566         189.704 
       0.374374         232.181         183.821 
       0.380519         227.573         178.257 
       0.386598         221.767         172.939 
       0.392688         218.465         167.711 
        0.39888         212.627         162.474 
       0.405048         207.876          157.37 
       0.411186         203.227         152.448 
       0.417313         198.552         147.751 
       0.423458         194.371         143.301 
       0.429607         189.615         139.106 
       0.435692         183.809         135.195 
       0.441815         182.455         131.463 
       0.447964         179.387         127.868 
       0.454126         171.693         124.379 
       0.460267         169.723         120.999 
       0.466387         167.054         117.714 
        0.47254         163.869         114.501 
       0.478662         161.941          111.41 
       0.484765         157.584         108.451 
       0.490885         154.937          105.61 
       0.497035         152.915         102.878 
       0.503198         148.763         100.262 
       0.509342         146.153         97.7597 
       0.515458         144.112         95.3567 
       0.521598         142.257         93.0174 
       0.527764         139.946         90.7361 
       0.533884         137.555         88.5385 
           0.54         135.271         86.4084 
       0.546137         134.072         84.3371 
       0.552299         131.973         82.3264 
       0.558452         129.025         80.3902 
       0.564573         126.693         78.5346 
       0.570708         125.184         76.7405 
       0.576825         123.255         75.0112 
       0.582926         121.123         73.3398 
       0.589034         118.845         71.7151 
       0.595184         117.594         70.1269 
       0.601379         116.353         68.5744 
       0.607522         113.454           67.08 
       0.613639         113.322         65.6356 
       0.619772         110.647         64.2303 
       0.625918          109.69         62.8643 
       0.632068         108.379         61.5389 
       0.638161         107.051         60.2658 
         0.6443         105.562         59.0213 
       0.650464         104.212         57.8085 
       0.656582         103.026         56.6388 
       0.662703         101.071         55.5005 
       0.668861         100.087         54.3861 
       0.675024         98.8583         53.3007 
       0.681124         97.6444         52.2555 
       0.687237         95.9625         51.2364 
       0.693381         95.0184         50.2402 
       0.699536         93.7399         49.2695 
       0.705665         94.1713         48.3295 
       0.711789         91.5979         47.4154 
       0.717957         91.0831          46.519 
        0.72409         89.7581          45.651 
       0.730186         88.3016         44.8104 
       0.736317         88.1063         43.9862 
       0.742472         86.9491         43.1796 
       0.748622         86.2531         42.3939 
        0.75476         85.2496         41.6295 
       0.760888         84.0837         40.8851 
       0.767043         83.2632         40.1561 
       0.773185         82.2989         39.4467 
       0.779291         81.7429         38.7586 
       0.785407         81.0072         38.0861 
       0.791564         79.8826         37.4255 
       0.797719         78.7966          36.781 
       0.803834         78.5385          36.156 
       0.809972          77.195         35.5433 
       0.816124           76.53         34.9435 
       0.822261         76.0214         34.3593 
       0.828378         75.3375         33.7902 
       0.834502          74.544         33.2335 
       0.840667         73.9227         32.6859 
       0.846816         73.0204         32.1523 
       0.852925         72.3625         31.6339 
       0.859047         71.4249          31.126 
       0.865192         71.1624         30.6277 
       0.871341         70.6913           30.14 
       0.877463         69.4316         29.6652 
       0.883569         69.0446         29.2018 
       0.889708         68.6824         28.7461 
       0.895864         68.0147          28.299 
       0.902008         67.4531         27.8624 
       0.908149         66.9278         27.4353 
       0.914301         66.3598         27.0165 
       0.920448         65.6652         26.6069 
       0.926574         65.2125         26.2072 
       0.932687         64.7165         25.8166 
       0.938823          63.762         25.4327 
       0.944975         63.6412         25.0557 
       0.951105         62.9934         24.6877 
       0.957225         62.2254         24.3278 
       0.963368         62.0866         23.9738 
       0.969511         61.6417         23.6269 
       0.975621         61.1465         23.2888 
       0.981748         60.4571         22.9564 
       0.987916         60.1411         22.6285 
        0.99406         59.7984         22.3082 
        1.00019         58.9878         21.9948 
        1.00632         58.7923         21.6877 
        1.01246         58.2469          21.386 
        1.01859         57.5678         21.0905 
        1.02471         57.7203         20.8011 
        1.03085         57.0481         20.5161 
        1.03698         56.4658          20.237 
        1.04314         55.9213          19.962 
        1.04929         55.7451         19.6927 
        1.05541         55.1431         19.4296 
        1.06154         55.0339         19.1706 
        1.06769         54.5115         18.9159 
        1.07382         54.1969         18.6667 
        1.07993         54.0026         18.4226 
        1.08607          53.383         18.1819 
        1.09222          53.197         17.9452 
        1.09836         52.7359         17.7131 
        1.10449         52.3838         17.4853 
        1.11063          51.758         17.2613 
        1.11677         51.5436         17.0414 
         1.1229         51.3742         16.8256 
        1.12903         50.6427         16.6134 
        1.13518         50.6384         16.4048 
        1.14131         50.4632         16.1998 
        1.14745         49.8096         15.9984 
        1.15359          49.696         15.8005 
        1.15973         49.1419         15.6058 
        1.16584         48.8179         15.4153 
        1.17197         48.7104         15.2277 
        1.17811         48.2939         15.0427 
        1.18424         47.8406         14.8612 
        1.19038          47.802         14.6823 
        1.19652         47.4981         14.5064 
        1.20267         47.1473         14.3333 
        1.20881         46.8022         14.1631 
        1.21495         46.4739          13.996 
        1.22108         46.1844         13.8316 
         1.2272         45.7158         13.6702 
        1.23334           45.59          13.511 
        1.23949         45.4264          13.354 
        1.24562         45.1409         13.1999 
        1.25174         44.9046         13.0485 
        1.25789         44.6161          12.899 
        1.26402         44.3214         12.7521 
        1.27014         43.9248         12.6079 
        1.27628         43.7735         12.4654 
        1.28244         43.4461          12.325 
        1.28858         43.2962         12.1868 
        1.29471         43.1005         12.0511 
        1.30084         42.8276         11.9176 
        1.30697         42.4667         11.7859 
        1.31312         42.1421          11.656 
        1.31925         42.0501         11.5285 
        1.32537         41.8319          11.403 
        1.33151         41.5296          11.279 
        1.33765         41.4717         11.1568 
        1.34378         41.2342         11.0367 
        1.34992         40.6603         10.9184 
        1.35606          40.529         10.8014 
         1.3622          40.307         10.6865 
        1.36833         40.1295         10.5734 
        1.37445         40.0873         10.4621 
        1.38059         39.8619          10.352 
        1.38675         39.5059         10.2433 
        1.39288         39.3574         10.1365 
        1.39901         39.0218         10.0313 
        1.40515         38.8623         9.92741 
         1.4113         38.7603           9.825 
        1.41742         38.3387         9.72442 
        1.42355         38.2882         9.62506 
         1.4297         38.0134         9.52679 
        1.43585         37.9729         9.42994 
        1.44198         37.6244          9.3348 
        1.44809         37.4603         9.24116 
        1.45423         37.3452         9.14845 
        1.46036         37.1681         9.05719 
        1.46649         36.8972         8.96714 
        1.47263         36.7267         8.87824 
        1.47877         36.5853         8.79059 
        1.48491         36.3598         8.70398 
        1.49104         36.2328         8.61873 
        1.49718         35.9039         8.53455 
        1.50333         35.8255         8.45136 
        1.50947         35.6331         8.36945 
         1.5156         35.4129         8.28875 
        1.52172         35.1699         8.20912 
        1.52787         35.1955         8.13037 
          1.534         34.8805         8.05275 
        1.54013         34.6626         7.97622 
        1.54627         34.6234         7.90055 
        1.55241         34.3937         7.82585 
        1.55855         34.1999         7.75222 
        1.56467         34.0157         7.67974 
         1.5708         33.9228         7.60799 
        1.57695         33.6036         7.53705 
        1.58308         33.6763         7.46717 
        1.58922         33.4323         7.39813 
        1.59535         33.1896         7.32999 
         1.6015         33.0631         7.26261 
        1.60764          32.975         7.19612 
        1.61376         32.7755         7.13064 
        1.61989         32.4968         7.06592 
        1.62604         32.4605         7.00185 
        1.63218          32.214         6.93863 
        1.63831         32.1464         6.87633 
        1.64444         31.9948         6.81477 
        1.65059         31.7489         6.75382 
        1.65673         31.6649         6.69367 
        1.66285         31.5163         6.63444 
        1.66898           31.34         6.57589 
        1.67512         31.2491         6.51794 
        1.68127         31.0023         6.46064 
         1.6874           30.92         6.40415 
        1.69353         30.8059         6.34838 
        1.69967         30.6186         6.29313 
        1.70581         30.4809         6.23857 
        1.71193         30.3059         6.18486 
        1.71806         30.2057         6.13166 
        1.72421         30.0263         6.07899 
        1.73035         29.9336           6.027 
        1.73649         29.7748         5.97562 
        1.74262         29.6236         5.92488 
        1.74876         29.5583          5.8747 
        1.75489         29.3515         5.82521 
        1.76101         29.2465         5.77629 
        1.76715         29.1094         5.72787 
        1.77329         29.0226         5.67995 
        1.77943         28.8714         5.63256 
        1.78557          28.724         5.58577 
        1.79171         28.6103         5.53951 
        1.79785         28.4717         5.49376 
        1.80399         28.3423         5.44854 
        1.81012         28.2784         5.40389 
        1.81625         28.1227         5.35976 
        1.82239         28.0466         5.31605 
        1.82853         27.7952         5.27285 
        1.83466          27.685         5.23018 
        1.84078         27.4995         5.18802 
        1.84692         27.5002         5.14626 
        1.85306         27.3133         5.10491 
         1.8592         27.2084         5.06407 
        1.86533         27.0656         5.02371 
        1.87147         26.9729         4.98373 
        1.87761         26.9508         4.94418 
        1.88375         26.7426          4.9051 
        1.88988         26.7043         4.86648 
        1.89601         26.4998         4.82826 
        1.90215         26.4243         4.79041 
        1.90829         26.3441         4.75299 
        1.91442         26.1752         4.71597 
        1.92056         26.0979         4.67938 
         1.9267         25.9784         4.64313 
        1.93284         25.8428         4.60725 
        1.93897          25.771         4.57181 
        1.94509         25.6534         4.53682 
        1.95123         25.4963         4.50212 
        1.95737         25.4089         4.46774 
        1.96349         25.3016         4.43382 
        1.96964          25.161         4.40015 
        1.97578         25.1213         4.36681 
        1.98192           24.93         4.33389 
        1.98805         24.8917          4.3013 
        1.99419         24.7608         4.26904 
        2.00033         24.6298          4.2371 
        2.00647         24.5394          4.2055 
         2.0126         24.3775         4.17427 
        2.01874         24.3395         4.14331 
        2.02488         24.3126         4.11263 
        2.03101         24.1863         4.08232 
        2.03714         24.0281         4.05235 
        2.04328         23.9187         4.02264 
        2.04941         23.8348         3.99325 
        2.05554          23.782         3.96418 
        2.06167         23.6703         3.93536 
        2.06781         23.5667         3.90682 
        2.07396         23.4603         3.87853 
        2.08009         23.4078         3.85056 
        2.08622         23.2825          3.8229 
        2.09237         23.1987         3.79545 
        2.09851         23.0589         3.76827 
        2.10464         23.0065          3.7414 
        2.11077         22.8535         3.71483 
        2.11691         22.8525         3.68845 
        2.12305         22.6937         3.66233 
        2.12918         22.6311         3.63653 
        2.13531         22.5414         3.61097 
        2.14145           22.44          3.5856 
         2.1476         22.3154         3.56044 
        2.15372          22.258         3.53565 
        2.15985         22.1245         3.51106 
        2.16599          22.081         3.48665 
        2.17213         22.0013         3.46249 
        2.17827         21.8773         3.43856 
         2.1844         21.7761         3.41488 
        2.19054         21.7185         3.39142 
        2.19666         21.6383         3.36821 
         2.2028          21.575         3.34519 
        2.20893         21.4222         3.32238 
        2.21508         21.3787         3.29976 
        2.22122          21.238         3.27734 
        2.22736          21.198         3.25517 
        2.23349         21.1106         3.23321 
        2.23962         21.0188         3.21145 
        2.24577         20.9021         3.18986 
         2.2519         20.8497         3.16851 
        2.25802         20.7972         3.14738 
        2.26417         20.7002         3.12638 
        2.27031          20.621         3.10556 
        2.27644          20.551         3.08499 
        2.28257         20.4506         3.06461 
        2.28872         20.3408         3.04437 
        2.29486         20.2997         3.02431 
        2.30099         20.2034         3.00448 
        2.30712         20.1733         2.98482 
        2.31326         20.0665          2.9653 
         2.3194         19.9544         2.94597 
        2.32553         19.8868         2.92684 
        2.33166         19.7848         2.90788 
         2.3378         19.7111         2.88907 
        2.34394         19.6406         2.87042 
        2.35007         19.5624         2.85196 
        2.35619          19.463         2.83369 
        2.36233         19.4031         2.81553 
        2.36848         19.3352         2.79749 
        2.37462          19.296         2.77965 
        2.38075         19.2032         2.76198 
        2.38689         19.1512         2.74445 
        2.39303         19.0377         2.72707 
        2.39916         18.9614         2.70986 
        2.40529          18.888         2.69281 
        2.41143         18.8375         2.67588 
        2.41757         18.7687          2.6591 
         2.4237          18.668         2.64249 
        2.42983         18.6182         2.62602 
        2.43598         18.5427         2.60965 
        2.44211         18.4332         2.59344 
        2.44823         18.3697         2.57741 
        2.45437         18.3307         2.56147 
        2.46052         18.2659         2.54565 
        2.46665         18.2053            2.53 
        2.47279         18.1198         2.51448 
        2.47892         18.0498         2.49907 
        2.48507         17.9875         2.48379 
         2.4912         17.9175         2.46866 
