#  k  (h/Mpc)          P(k)  (Mpc/h)^3     P_linear(k) (Mpc/h)^3
     0.00783031         8374.43         8482.75 
       0.013688           10074         10019.9 
       0.019231         9712.07         9687.02 
      0.0249154         8391.84         8501.08 
      0.0312784         6909.61         6934.06 
      0.0375637         5639.46         5608.92 
      0.0433917         4702.77         4728.56 
      0.0492413         4165.58         4159.79 
      0.0555754         3735.34         3790.17 
      0.0619321         3567.79         3538.54 
       0.067871         3266.57          3306.7 
      0.0738098         2988.05         3024.09 
      0.0800417          2626.8         2671.99 
      0.0862327         2295.47         2306.56 
      0.0921407         2012.52         1991.23 
      0.0982031         1748.13         1735.45 
       0.104506         1603.81         1552.98 
       0.110769         1486.15         1443.72 
       0.116806         1409.29         1381.59 
       0.122832         1362.86         1333.93 
       0.129052         1280.22          1275.3 
       0.135211         1203.69         1194.98 
       0.141259         1124.84         1096.05 
       0.147318         1029.97         988.638 
       0.153489         924.027         885.783 
       0.159709         852.026         800.706 
       0.165845         803.358         739.852 
       0.171974         755.827         699.989 
       0.178125          726.71         674.352 
       0.184229         703.055         654.642 
        0.19034         662.445          632.95 
       0.196428         646.522         604.787 
       0.202534         619.829         569.388 
       0.208729         579.258         529.101 
       0.214876         540.672         489.391 
       0.220989         514.693         454.335 
       0.227147         485.019         425.958 
        0.23329         463.701         404.894 
       0.239377          452.36         389.676 
       0.245482         424.237         377.576 
       0.251667         420.078         365.914 
       0.257832         405.519         352.899 
       0.263955         390.019         337.804 
       0.270079          372.95         320.976 
        0.27624         364.493         303.494 
       0.282372          348.75         286.969 
        0.28843         335.426         272.564 
       0.294538         319.261         260.441 
       0.300721         315.394         250.491 
        0.30691         300.997          242.19 
       0.313033         294.126         234.798 
       0.319153         282.819         227.443 
       0.325316          275.82         219.622 
        0.33145         265.968         211.297 
       0.337538         261.247         202.752 
       0.343633          251.74         194.294 
       0.349808         243.039         186.239 
       0.355968         238.832         179.005 
       0.362074         232.643         172.691 
       0.368217         226.022         167.113 
       0.374374         217.894         162.049 
       0.380519         214.602         157.274 
       0.386598         208.849         152.608 
       0.392688         205.721         147.867 
        0.39888         200.208         142.992 
       0.405048         195.008         138.151 
       0.411186         190.624         133.474 
       0.417313         186.463          129.07 
       0.423458         182.284         124.972 
       0.429607         178.122         121.199 
       0.435692         172.584         117.759 
       0.441815         171.084           114.5 
       0.447964         167.754         111.352 
       0.454126         160.727         108.272 
       0.460267         158.784         105.242 
       0.466387         156.576         102.253 
        0.47254         152.952         99.3151 
       0.478662         151.835         96.4964 
       0.484765          146.91         93.8125 
       0.490885         144.608          91.258 
       0.497035         142.563         88.8356 
       0.503198         138.726         86.5385 
       0.509342         136.573         84.3469 
       0.515458         134.539         82.2365 
       0.521598         132.196         80.1737 
       0.527764         130.354          78.155 
       0.533884         128.352         76.2001 
           0.54         125.959         74.2978 
       0.546137         124.821         72.4483 
       0.552299         122.554         70.6618 
       0.558452         120.347         68.9541 
       0.564573          118.29         67.3255 
       0.570708         116.194         65.7547 
       0.576825         114.777         64.2415 
       0.582926         112.493          62.779 
       0.589034         110.889         61.3575 
       0.595184         109.417         59.9672 
       0.601379         107.953         58.6059 
       0.607522         105.611         57.2932 
       0.613639         105.107          56.024 
       0.619772         102.852         54.7907 
       0.625918          101.59         53.5953 
       0.632068         100.442         52.4399 
       0.638161         99.3654         51.3329 
         0.6443         98.0338         50.2523 
       0.650464         96.9219         49.1992 
       0.656582         95.3724         48.1825 
       0.662703         93.9174          47.192 
       0.668861         92.5812          46.222 
       0.675024         91.5531         45.2778 
       0.681124         90.6672         44.3695 
       0.687237         88.9411         43.4851 
       0.693381         87.8157         42.6222 
       0.699536          86.995         41.7823 
       0.705665         87.0382         40.9695 
       0.711789          84.829         40.1796 
       0.717957         84.3828         39.4052 
        0.72409         83.0638         38.6554 
       0.730186         81.7305         37.9293 
       0.736317         81.4309         37.2176 
       0.742472           80.61         36.5216 
       0.748622         79.6722          35.844 
        0.75476         78.8528         35.1852 
       0.760888         77.7182         34.5442 
       0.767043         77.1076          33.917 
       0.773185         76.1818          33.307 
       0.779291         75.3527         32.7158 
       0.785407         74.7906         32.1383 
       0.791564         74.0552         31.5712 
       0.797719         72.7544         31.0183 
       0.803834          72.435         30.4821 
       0.809972         71.2684         29.9568 
       0.816124         70.8794         29.4426 
       0.822261         70.2794          28.942 
       0.828378         69.7103         28.4546 
       0.834502         69.0342          27.978 
       0.840667         68.2459         27.5093 
       0.846816          67.348         27.0528 
       0.852925         66.8703         26.6096 
       0.859047         65.9854         26.1754 
       0.865192         65.6028         25.7496 
       0.871341         65.1658         25.3331 
       0.877463         64.1317         24.9278 
       0.883569         63.7617         24.5324 
       0.889708         63.3021         24.1437 
       0.895864         62.7877         23.7625 
       0.902008         62.1712         23.3903 
       0.908149         61.7427         23.0264 
       0.914301         61.1344         22.6697 
       0.920448         60.6703          22.321 
       0.926574         60.0374         21.9809 
       0.932687         59.8658         21.6486 
       0.938823         58.8953          21.322 
       0.944975         58.4896         21.0015 
       0.951105         58.0088         20.6888 
       0.957225         57.3274          20.383 
       0.963368         57.1875         20.0824 
       0.969511         56.8032         19.7879 
       0.975621         56.4329         19.5009 
       0.981748         55.7929         19.2189 
       0.987916         55.3293         18.9408 
        0.99406         55.0005         18.6692 
        1.00019          54.451         18.4035 
        1.00632         54.1327         18.1433 
        1.01246         53.7237         17.8878 
        1.01859         52.9944         17.6376 
        1.02471         52.9822         17.3925 
        1.03085         52.4619         17.1513 
        1.03698         52.0592         16.9152 
        1.04314           51.61         16.6825 
        1.04929         51.2428         16.4548 
        1.05541         50.7187         16.2323 
        1.06154           50.71         16.0133 
        1.06769         50.2214         15.7981 
        1.07382         49.9743         15.5876 
        1.07993         49.6421         15.3814 
        1.08607         49.2163         15.1781 
        1.09222         48.9427         14.9783 
        1.09836         48.5497         14.7823 
        1.10449         48.2436         14.5901 
        1.11063         47.7672         14.4012 
        1.11677         47.4983         14.2156 
         1.1229          47.145         14.0337 
        1.12903         46.5491         13.8548 
        1.13518         46.7656         13.6789 
        1.14131         46.4038         13.5061 
        1.14745         45.7961         13.3365 
        1.15359         45.7325         13.1697 
        1.15973         45.2125         13.0058 
        1.16584         44.9944         12.8454 
        1.17197         44.7238         12.6875 
        1.17811         44.5243         12.5317 
        1.18424         44.0745         12.3791 
        1.19038         43.8308         12.2286 
        1.19652         43.7243         12.0806 
        1.20267         43.3108         11.9351 
        1.20881         43.0797          11.792 
        1.21495         42.7057         11.6515 
        1.22108         42.5393         11.5134 
         1.2272         42.0685         11.3778 
        1.23334         41.9254         11.2441 
        1.23949         41.8875         11.1122 
        1.24562         41.4046         10.9829 
        1.25174         41.2913         10.8558 
        1.25789         41.0838         10.7303 
        1.26402         40.7198          10.607 
        1.27014         40.3593          10.486 
        1.27628         40.2003         10.3665 
        1.28244         39.9617         10.2487 
        1.28858         39.7927         10.1328 
        1.29471         39.6322          10.019 
        1.30084         39.4038         9.90708 
        1.30697         39.1113         9.79669 
        1.31312         38.8078         9.68782 
        1.31925         38.6849         9.58096 
        1.32537         38.4996         9.47582 
        1.33151         38.1268         9.37189 
        1.33765         38.0627         9.26959 
        1.34378         37.8089         9.16902 
        1.34992         37.5399         9.06988 
        1.35606         37.3338           8.972 
         1.3622         37.1276         8.87574 
        1.36833         36.8883         8.78113 
        1.37445         36.8068         8.68795 
        1.38059          36.549         8.59585 
        1.38675         36.2571         8.50486 
        1.39288         36.2098         8.41556 
        1.39901         35.9289         8.32759 
        1.40515         35.7354         8.24069 
         1.4113          35.599         8.15506 
        1.41742         35.3635         8.07098 
        1.42355         35.1578         7.98793 
         1.4297         35.0067          7.9058 
        1.43585         34.8885         7.82487 
        1.44198          34.565         7.74539 
        1.44809         34.4863         7.66716 
        1.45423         34.2956         7.58972 
        1.46036         34.1833          7.5135 
        1.46649         33.9405          7.4383 
        1.47263          33.742         7.36408 
        1.47877         33.6317          7.2909 
        1.48491         33.5871          7.2186 
        1.49104         33.2682         7.14744 
        1.49718         32.9371         7.07719 
        1.50333         32.9449         7.00777 
        1.50947         32.8148         6.93942 
         1.5156         32.5879         6.87209 
        1.52172          32.441         6.80566 
        1.52787         32.3741         6.73998 
          1.534         32.1569         6.67524 
        1.54013         31.9316         6.61142 
        1.54627         31.8515         6.54833 
        1.55241          31.569         6.48605 
        1.55855         31.5056         6.42467 
        1.56467         31.2082         6.36425 
         1.5708          31.276         6.30445 
        1.57695         30.9856         6.24532 
        1.58308         30.8806         6.18709 
        1.58922         30.8245         6.12957 
        1.59535         30.6376          6.0728 
         1.6015         30.3984         6.01667 
        1.60764         30.2541         5.96128 
        1.61376         30.1072         5.90674 
        1.61989         29.9273         5.85285 
        1.62604         29.8708          5.7995 
        1.63218         29.7671         5.74686 
        1.63831          29.576         5.69499 
        1.64444         29.4514         5.64375 
        1.65059         29.2652         5.59301 
        1.65673         29.0995         5.54296 
        1.66285         29.0148         5.49366 
        1.66898         28.8517         5.44494 
        1.67512         28.7494         5.39673 
        1.68127         28.5621         5.34905 
         1.6874         28.4551         5.30206 
        1.69353         28.3333         5.25566 
        1.69967         28.1843         5.20971 
        1.70581         28.1044         5.16433 
        1.71193         27.9931         5.11966 
        1.71806         27.7663         5.07542 
        1.72421         27.6409         5.03163 
        1.73035         27.5096         4.98839 
        1.73649         27.4002         4.94568 
        1.74262           27.28          4.9035 
        1.74876         27.2553         4.86179 
        1.75489         27.0799         4.82065 
        1.76101         26.9185            4.78 
        1.76715          26.845         4.73976 
        1.77329         26.7543         4.69994 
        1.77943         26.6187         4.66056 
        1.78557         26.4303         4.62169 
        1.79171         26.3368         4.58325 
        1.79785         26.2088         4.54525 
        1.80399         26.1474         4.50769 
        1.81012         26.0163          4.4706 
        1.81625         25.8988         4.43395 
        1.82239         25.8028         4.39765 
        1.82853         25.6384         4.36178 
        1.83466         25.5672         4.32635 
        1.84078         25.3571         4.29134 
        1.84692         25.2968         4.25667 
        1.85306          25.183         4.22234 
         1.8592          25.062         4.18844 
        1.86533         24.9535         4.15494 
        1.87147          24.875         4.12176 
        1.87761         24.8031         4.08893 
        1.88375         24.7036          4.0565 
        1.88988         24.5893         4.02445 
        1.89601         24.4399         3.99274 
        1.90215         24.3625         3.96134 
        1.90829         24.3211          3.9303 
        1.91442         24.1523         3.89958 
        1.92056         24.0832         3.86923 
         1.9267         23.9368         3.83916 
        1.93284          23.793          3.8094 
        1.93897         23.7722         3.78001 
        1.94509         23.6372         3.75099 
        1.95123         23.5563         3.72221 
        1.95737         23.4096         3.69371 
        1.96349         23.3486         3.66557 
        1.96964         23.2395         3.63766 
        1.97578         23.1413         3.61002 
        1.98192         23.0336         3.58272 
        1.98805         22.9737          3.5557 
        1.99419         22.8587         3.52896 
        2.00033         22.7228         3.50248 
        2.00647         22.6549         3.47629 
         2.0126         22.5676          3.4504 
        2.01874         22.4783         3.42474 
        2.02488         22.4228         3.39932 
        2.03101         22.2747          3.3742 
        2.03714         22.2018         3.34936 
        2.04328           22.09         3.32474 
        2.04941         22.0105         3.30039 
        2.05554         21.9356         3.27631 
        2.06167         21.8506         3.25243 
        2.06781         21.7485         3.22878 
        2.07396         21.6996         3.20534 
        2.08009         21.6299         3.18217 
        2.08622         21.4493         3.15926 
        2.09237         21.3963         3.13653 
        2.09851         21.3284         3.11402 
        2.10464          21.253         3.09176 
        2.11077         21.1205         3.06975 
        2.11691         21.0654         3.04791 
        2.12305         20.9999         3.02628 
        2.12918         20.9295         3.00491 
        2.13531         20.8237         2.98375 
        2.14145         20.7971         2.96274 
         2.1476         20.6565         2.94191 
        2.15372          20.562         2.92138 
        2.15985         20.4468         2.90103 
        2.16599         20.4379         2.88082 
        2.17213         20.3636         2.86082 
        2.17827         20.2126         2.84101 
         2.1844         20.1191         2.82141 
        2.19054         20.0803         2.80199 
        2.19666         20.0056         2.78278 
         2.2028         19.9305         2.76373 
        2.20893         19.8613         2.74486 
        2.21508         19.7632         2.72613 
        2.22122          19.623         2.70758 
        2.22736         19.6384         2.68924 
        2.23349         19.5261         2.67107 
        2.23962         19.4442         2.65306 
        2.24577         19.3525          2.6352 
         2.2519         19.3216         2.61753 
        2.25802         19.2053         2.60006 
        2.26417         19.1882         2.58269 
        2.27031         19.0782         2.56546 
        2.27644         19.0007         2.54845 
        2.28257         18.9115         2.53158 
        2.28872         18.8209         2.51484 
        2.29486          18.794         2.49826 
        2.30099         18.6941         2.48185 
        2.30712         18.6377         2.46559 
        2.31326         18.5936         2.44944 
         2.3194         18.5163         2.43345 
        2.32553         18.4142         2.41763 
        2.33166         18.3236         2.40196 
         2.3378           18.27          2.3864 
        2.34394         18.2093         2.37098 
        2.35007         18.1356         2.35572 
        2.35619         18.0311         2.34061 
        2.36233          18.005         2.32559 
        2.36848         17.9077         2.31068 
        2.37462         17.8417         2.29593 
        2.38075         17.7769         2.28132 
        2.38689         17.7458         2.26683 
        2.39303         17.6414         2.25246 
        2.39916         17.5688         2.23824 
        2.40529         17.5082         2.22414 
        2.41143          17.438         2.21015 
        2.41757         17.3979         2.19627 
         2.4237          17.303         2.18254 
        2.42983         17.2298         2.16893 
        2.43598           17.21          2.1554 
        2.44211         17.1177         2.14201 
        2.44823          17.051         2.12876 
        2.45437         16.9767         2.11558 
        2.46052         16.9348         2.10251 
        2.46665         16.8919         2.08957 
        2.47279         16.7753         2.07674 
        2.47892         16.7467         2.06402 
        2.48507         16.6772         2.05138 
         2.4912         16.6463         2.03888 
