# k  (h/Mpc)    P(k)  (Mpc/h)^3    P_linear(k)  (Mpc/h)^3
     0.00783031         10318.7         10486.2 
       0.013688         13003.1         12939.3 
       0.019231         13181.1         13180.3 
      0.0249154         12073.9         12298.8 
      0.0312784         10660.2         10764.7 
      0.0375637         9230.79         9238.32 
      0.0433917         7941.66         8064.92 
      0.0492413         7138.52         7182.54 
      0.0555754         6344.29         6510.75 
      0.0619321         6036.05         6023.07 
       0.067871         5502.54         5631.83 
      0.0738098         5108.26          5230.7 
      0.0800417          4610.2         4767.79 
      0.0862327         4187.14          4278.2 
      0.0921407         3797.26         3820.55 
      0.0982031         3368.78         3401.25 
       0.104506         3111.81         3048.04 
       0.110769         2849.32         2787.28 
       0.116806         2655.59         2608.29 
       0.122832         2531.15         2476.59 
       0.129052          2365.1         2361.61 
       0.135211         2254.18         2244.87 
       0.141259         2157.31         2114.65 
       0.147318         2030.47         1968.15 
       0.153489          1859.9         1811.54 
       0.159709         1744.31          1659.9 
       0.165845         1655.64         1528.41 
       0.171974         1547.21          1421.6 
       0.178125         1467.11         1339.31 
       0.184229         1405.18         1277.45 
        0.19034         1321.42         1227.55 
       0.196428         1299.98         1181.71 
       0.202534         1257.96         1133.37 
       0.208729         1198.13         1078.82 
       0.214876         1138.94         1019.72 
       0.220989         1099.31         959.175 
       0.227147         1042.16         900.569 
        0.23329          996.83         848.046 
       0.239377         974.056         803.783 
       0.245482         909.478         767.253 
       0.251667         902.192         736.803 
       0.257832         869.093         710.566 
       0.263955          841.42         686.086 
       0.270079         811.886         661.253 
        0.27624         802.801         634.954 
       0.282372         768.831         607.614 
        0.28843         753.503         580.296 
       0.294538          715.83         553.649 
       0.300721         711.487         528.684 
        0.30691         679.403         506.378 
       0.313033         666.081         487.052 
       0.319153          647.77         470.049 
       0.325316         628.285         454.572 
        0.33145         611.486         440.033 
       0.337538          603.31          425.84 
       0.343633          585.04         411.545 
       0.349808         565.552         396.928 
       0.355968         561.028          382.44 
       0.362074         551.279         368.487 
       0.368217         535.808         355.209 
       0.374374         514.048         342.857 
       0.380519         511.029         331.555 
       0.386598         498.342          321.29 
       0.392688         495.793         311.716 
        0.39888          481.28          302.49 
       0.405048         472.136         293.593 
       0.411186         463.825         284.893 
       0.417313         455.064         276.339 
       0.423458         447.136         267.907 
       0.429607         438.708         259.708 
       0.435692         428.425          251.93 
       0.441815         425.215         244.491 
       0.447964         416.507         237.441 
       0.454126         405.421         230.794 
       0.460267         399.368         224.518 
       0.466387          394.83         218.539 
        0.47254         387.139         212.746 
       0.478662         386.028         207.151 
       0.484765          373.79         201.704 
       0.490885         370.139         196.378 
       0.497035          363.61         191.183 
       0.503198         357.686         186.155 
       0.509342         354.968         181.332 
       0.515458         351.009         176.731 
       0.521598          343.72         172.315 
       0.527764         337.817         168.065 
       0.533884         335.423         164.005 
           0.54         330.734         160.087 
       0.546137         329.494         156.278 
       0.552299         322.696         152.565 
       0.558452          320.49         148.962 
       0.564573         315.578         145.476 
       0.570708         310.089         142.088 
       0.576825         304.897          138.82 
       0.582926         302.555         135.673 
       0.589034         299.699          132.63 
       0.595184         296.834         129.669 
       0.601379         293.458         126.784 
       0.607522         288.494         124.014 
       0.613639         287.202         121.339 
       0.619772         280.596         118.736 
       0.625918         279.492         116.201 
       0.632068         275.425         113.733 
       0.638161         274.312         111.355 
         0.6443         269.735         109.027 
       0.650464          267.28         106.759 
       0.656582         265.714         104.576 
       0.662703         263.826         102.456 
       0.668861         259.155         100.386 
       0.675024         256.428         98.3722 
       0.681124         255.341         96.4346 
       0.687237         252.201         94.5447 
       0.693381         248.495          92.696 
       0.699536         246.544         90.8932 
       0.705665         245.019          89.146 
       0.711789         242.227         87.4467 
       0.717957         240.964         85.7805 
        0.72409         238.273         84.1676 
       0.730186         235.655         82.6064 
       0.736317         233.216         81.0768 
       0.742472         232.164         79.5806 
       0.748622         230.242          78.124 
        0.75476         228.351         76.7072 
       0.760888         225.326         75.3279 
       0.767043         225.207         73.9774 
       0.773185         222.467         72.6631 
       0.779291         218.581         71.3884 
       0.785407         218.136         70.1427 
       0.791564          216.02         68.9191 
       0.797719          213.52         67.7256 
       0.803834         212.428         66.5681 
       0.809972         210.936         65.4337 
       0.816124         210.918         64.3235 
       0.822261         207.815         63.2422 
       0.828378         206.134         62.1892 
       0.834502         205.819         61.1594 
       0.840667          202.69         60.1463 
       0.846816         201.396         59.1592 
       0.852925         200.498         58.2006 
       0.859047         198.555         57.2613 
       0.865192         196.884         56.3398 
       0.871341         195.134         55.4381 
       0.877463          193.83         54.5603 
       0.883569         192.944         53.7039 
       0.889708         191.195         52.8615 
       0.895864          188.91         52.0352 
       0.902008         188.289         51.2284 
       0.908149         187.579         50.4392 
       0.914301         185.326         49.6655 
       0.920448         184.002         48.9089 
       0.926574         183.083         48.1707 
       0.932687          182.74         47.4494 
       0.938823         180.465         46.7404 
       0.944975         178.913         46.0443 
       0.951105         178.275          45.365 
       0.957225         176.467         44.7006 
       0.963368         174.578         44.0473 
       0.969511          174.07         43.4071 
       0.975621         172.892         42.7832 
       0.981748         172.589           42.17 
       0.987916         170.607          41.565 
        0.99406         169.317         40.9742 
        1.00019         169.188         40.3962 
        1.00632         167.567         39.8299 
        1.01246         166.549         39.2736 
        1.01859         165.644          38.729 
        1.02471         164.241         38.1954 
        1.03085         162.575           37.67 
        1.03698         161.916         37.1557 
        1.04314         160.647         36.6489 
        1.04929         159.538         36.1528 
        1.05541         159.143         35.6678 
        1.06154         157.921         35.1907 
        1.06769         157.842         34.7215 
        1.07382         156.494         34.2625 
        1.07993         155.145         33.8128 
        1.08607         154.296         33.3694 
        1.09222         153.672         32.9336 
        1.09836         152.318          32.506 
        1.10449         151.059         32.0866 
        1.11063         149.992         31.6741 
        1.11677         149.758         31.2691 
         1.1229         148.268         30.8719 
        1.12903         147.599         30.4812 
        1.13518         147.323          30.097 
        1.14131         145.816         29.7197 
        1.14745         145.323          29.349 
        1.15359         144.293         28.9846 
        1.15973         143.879         28.6263 
        1.16584         142.358         28.2757 
        1.17197         141.795         27.9304 
        1.17811         141.037         27.5899 
        1.18424         140.329         27.2561 
        1.19038         139.913         26.9268 
        1.19652         138.844         26.6031 
        1.20267         138.086         26.2848 
        1.20881         136.957         25.9718 
        1.21495         136.418         25.6643 
        1.22108         135.767         25.3619 
         1.2272         134.561         25.0652 
        1.23334         134.036         24.7725 
        1.23949         132.862         24.4838 
        1.24562          132.42         24.2005 
        1.25174         131.114         23.9221 
        1.25789         130.722         23.6473 
        1.26402         130.042         23.3773 
        1.27014         129.245         23.1122 
        1.27628         128.647         22.8504 
        1.28244         128.091         22.5922 
        1.28858         127.565         22.3384 
        1.29471         126.174          22.089 
        1.30084          125.84         21.8437 
        1.30697         125.057         21.6017 
        1.31312         124.713         21.3631 
        1.31925         123.606         21.1288 
        1.32537          123.14         20.8983 
        1.33151         121.954         20.6703 
        1.33765         121.694          20.446 
        1.34378         120.915         20.2254 
        1.34992           120.7         20.0079 
        1.35606         119.904         19.7931 
         1.3622         118.988         19.5819 
        1.36833          118.43         19.3743 
        1.37445         117.686         19.1698 
        1.38059         117.288         18.9676 
        1.38675         116.389         18.7679 
        1.39288         116.036         18.5719 
        1.39901         115.615         18.3787 
        1.40515         114.784         18.1879 
         1.4113         113.834         17.9998 
        1.41742         113.677         17.8151 
        1.42355         112.821         17.6327 
         1.4297         112.263         17.4523 
        1.43585         111.394         17.2745 
        1.44198         111.216         17.0999 
        1.44809         110.384          16.928 
        1.45423           109.7         16.7578 
        1.46036         109.496         16.5903 
        1.46649         108.767          16.425 
        1.47263         108.197         16.2618 
        1.47877         107.851          16.101 
        1.48491         106.858          15.942 
        1.49104         106.587         15.7856 
        1.49718         105.757         15.6311 
        1.50333         105.357         15.4785 
        1.50947          104.86         15.3282 
         1.5156          104.26         15.1801 
        1.52172         103.645          15.034 
        1.52787         103.314         14.8896 
          1.534          102.64         14.7472 
        1.54013         101.996         14.6068 
        1.54627         101.637          14.468 
        1.55241         101.008         14.3309 
        1.55855         100.629         14.1959 
        1.56467          100.17         14.0629 
         1.5708         99.4693         13.9313 
        1.57695         99.3439         13.8012 
        1.58308         98.3374         13.6731 
        1.58922         98.3007         13.5464 
        1.59535         97.7045         13.4215 
         1.6015         97.1339         13.2979 
        1.60764         96.6248          13.176 
        1.61376         96.4088         13.0559 
        1.61989         95.6844         12.9372 
        1.62604         95.3831         12.8198 
        1.63218         94.8851         12.7038 
        1.63831         94.1098         12.5896 
        1.64444         93.8302         12.4767 
        1.65059         93.2707          12.365 
        1.65673         92.5833         12.2547 
        1.66285          92.432         12.1461 
        1.66898         91.8119         12.0388 
        1.67512         91.3812         11.9325 
        1.68127         90.9297         11.8275 
         1.6874         90.4547         11.7239 
        1.69353         89.9696         11.6217 
        1.69967         89.4452         11.5204 
        1.70581         89.2319         11.4204 
        1.71193         88.9213         11.3219 
        1.71806         88.2024         11.2244 
        1.72421         87.8061         11.1279 
        1.73035         87.3435         11.0326 
        1.73649          86.905         10.9384 
        1.74262         86.4965         10.8454 
        1.74876         86.1459         10.7535 
        1.75489         85.4491         10.6627 
        1.76101         85.2454         10.5731 
        1.76715         84.7145         10.4844 
        1.77329         84.4223         10.3966 
        1.77943         83.8285         10.3097 
        1.78557         83.6557          10.224 
        1.79171         83.0384         10.1392 
        1.79785         82.6983         10.0554 
        1.80399         82.3837         9.97254 
        1.81012         82.0569         9.89073 
        1.81625         81.4752         9.80987 
        1.82239         81.1866          9.7298 
        1.82853          80.909         9.65066 
        1.83466         80.3724         9.57247 
        1.84078         80.1609         9.49524 
        1.84692         79.4851         9.41873 
        1.85306         79.1172         9.34298 
         1.8592         78.7018         9.26818 
        1.86533          78.409         9.19423 
        1.87147         77.8421         9.12101 
        1.87761         77.6295         9.04856 
        1.88375         77.2352         8.97698 
        1.88988         76.8987         8.90624 
        1.89601         76.4428         8.83623 
        1.90215         76.1268         8.76692 
        1.90829         75.8387         8.69839 
        1.91442         75.4036         8.63058 
        1.92056          74.822         8.56355 
         1.9267         74.6976         8.49717 
        1.93284          74.168         8.43145 
        1.93897          73.778         8.36655 
        1.94509         73.4947         8.30248 
        1.95123         73.1307         8.23891 
        1.95737         72.9392         8.17596 
        1.96349          72.323         8.11383 
        1.96964         72.0934         8.05217 
        1.97578         71.8466         7.99112 
        1.98192         71.4147         7.93083 
        1.98805          71.179         7.87116 
        1.99419         70.6428         7.81209 
        2.00033         70.3881         7.75361 
        2.00647         70.1184         7.69573 
         2.0126         69.5874         7.63855 
        2.01874         69.2619         7.58186 
        2.02488         69.0598         7.52569 
        2.03101         68.7819          7.4702 
        2.03714         68.3003         7.41532 
        2.04328         68.1026         7.36093 
        2.04941         67.6943         7.30712 
        2.05554         67.4144          7.2539 
        2.06167         67.0573         7.20113 
        2.06781         66.7483         7.14888 
        2.07396         66.3902         7.09707 
        2.08009         66.1511         7.04587 
        2.08622         65.8647         6.99522 
        2.09237         65.4585         6.94498 
        2.09851         65.3032         6.89522 
        2.10464         64.8582         6.84604 
        2.11077          64.475         6.79739 
        2.11691         64.2327         6.74911 
        2.12305         63.9585         6.70129 
        2.12918         63.6518         6.65405 
        2.13531          63.269         6.60726 
        2.14145         63.0099         6.56082 
         2.1476         62.7862         6.51477 
        2.15372         62.4667         6.46939 
        2.15985         62.1081         6.42439 
        2.16599         61.8177          6.3797 
        2.17213         61.5726         6.33548 
        2.17827         61.2588         6.29169 
         2.1844         60.8904         6.24835 
        2.19054         60.5969          6.2054 
        2.19666         60.3538         6.16292 
         2.2028         60.2515          6.1208 
        2.20893         59.9152         6.07905 
        2.21508         59.5432         6.03764 
        2.22122         59.3224         5.99661 
        2.22736         59.0568         5.95604 
        2.23349         58.7563         5.91586 
        2.23962         58.3908         5.87602 
        2.24577         58.0774         5.83652 
         2.2519          57.796         5.79744 
        2.25802         57.6691         5.75877 
        2.26417         57.2717         5.72035 
        2.27031         57.0931         5.68225 
        2.27644         56.8395          5.6446 
        2.28257         56.5005          5.6073 
        2.28872         56.2372         5.57026 
        2.29486         56.0403         5.53357 
        2.30099         55.7619         5.49728 
        2.30712         55.5353          5.4613 
        2.31326         55.1682         5.42558 
         2.3194         54.9501          5.3902 
        2.32553         54.6337          5.3552 
        2.33166         54.3978         5.32052 
         2.3378         54.1471          5.2861 
        2.34394         53.7965         5.25197 
        2.35007         53.5337          5.2182 
        2.35619         53.4121         5.18476 
        2.36233         53.2734         5.15153 
        2.36848         52.8817         5.11853 
        2.37462         52.6389         5.08588 
        2.38075         52.4231         5.05355 
        2.38689         52.2027         5.02148 
        2.39303         51.9798         4.98969 
        2.39916         51.7896          4.9582 
        2.40529          51.516         4.92699 
        2.41143         51.2748         4.89603 
        2.41757         50.9676         4.86532 
         2.4237         50.8317         4.83492 
        2.42983         50.5205         4.80479 
        2.43598         50.2652         4.77484 
        2.44211         50.0906         4.74519 
        2.44823         49.8134         4.71586 
        2.45437          49.601          4.6867 
        2.46052         49.2688         4.65776 
        2.46665         49.1079         4.62911 
        2.47279          48.925         4.60072 
        2.47892         48.7425         4.57254 
        2.48507         48.4352         4.54458 
         2.4912          48.306          4.5169 
