# k  (h/Mpc)    Pcb(k)  (Mpc/h)^3    Pcb_linear(k)  (Mpc/h)^3
     0.00783031         912.586         919.469 
       0.013688         1127.48          1139.4 
       0.019231         1142.77          1147.7 
      0.0249154         1052.55         1051.95 
      0.0312784         904.132         904.251 
      0.0375637         769.726         770.927 
      0.0433917         679.501         678.009 
      0.0492413         613.581         613.977 
      0.0555754         567.841         566.588 
      0.0619321         523.802         527.516 
       0.067871         487.805         488.725 
      0.0738098         444.002         444.223 
      0.0800417         394.744         393.829 
      0.0862327         346.145         345.846 
      0.0921407         307.308         307.058 
      0.0982031         278.206         276.894 
       0.104506         254.936         255.404 
       0.110769         240.776           241.1 
       0.116806         231.112         230.247 
       0.122832         218.702         219.066 
       0.129052         205.665         205.287 
       0.135211         190.531         189.386 
       0.141259         173.585         172.991 
       0.147318         157.654         157.643 
       0.153489         145.269         144.584 
       0.159709         135.812         134.636 
       0.165845         127.515         127.621 
       0.171974         123.635         122.408 
       0.178125         118.811         117.792 
       0.184229         113.222         112.864 
        0.19034         108.265         107.129 
       0.196428         101.845         100.721 
       0.202534         94.4233         94.0967 
       0.208729         89.0455         87.7959 
       0.214876         84.1799           82.43 
       0.220989         78.9363         78.1409 
       0.227147         76.4513         74.7569 
        0.23329         73.7022          71.996 
       0.239377          71.295         69.4885 
       0.245482         68.4474         66.8978 
       0.251667         65.2584         64.0478 
       0.257832         62.8891         61.0059 
       0.263955         59.3841         57.9428 
       0.270079         56.5131         55.0309 
        0.27624         53.6638         52.4068 
       0.282372         51.5362         50.1665 
        0.28843         50.1955          48.284 
       0.294538         48.3448         46.6258 
       0.300721         46.4379         45.0679 
        0.30691         45.2792         43.5255 
       0.313033         43.5477         41.9585 
       0.319153         42.3977         40.3529 
       0.325316         40.2585         38.7375 
        0.33145         38.7039         37.1922 
       0.337538         37.3829         35.7672 
       0.343633          36.231         34.4782 
       0.349808         34.9486          33.304 
       0.355968          33.814         32.2397 
       0.362074         33.0603         31.2498 
       0.368217         32.0164         30.2845 
       0.374374         31.2757         29.3266 
       0.380519         30.0119          28.373 
       0.386598         29.0119         27.4439 
       0.392688         28.0647         26.5425 
        0.39888         27.3714         25.6715 
       0.405048         26.6122         24.8619 
       0.411186         25.8134         24.1121 
       0.417313         25.0893          23.412 
       0.423458         24.2988          22.748 
       0.429607         23.8457         22.1084 
       0.435692         23.3283          21.491 
       0.441815         22.4956         20.8832 
       0.447964         21.7766         20.2869 
       0.454126         21.3559         19.7064 
       0.460267         20.9904         19.1509 
       0.466387         20.3536         18.6238 
        0.47254         19.9481           18.12 
       0.478662         19.3629         17.6428 
       0.484765         18.9115         17.1885 
       0.490885         18.3683         16.7504 
       0.497035         17.9275         16.3239 
       0.503198         17.5775         15.9078 
       0.509342         17.0626         15.5045 
       0.515458         16.7823         15.1155 
       0.521598         16.3924          14.738 
       0.527764         16.1138         14.3724 
       0.533884         15.6224         14.0233 
           0.54         15.3334         13.6882 
       0.546137         14.8852         13.3648 
       0.552299         14.6131         13.0515 
       0.558452         14.2901         12.7485 
       0.564573         14.0571         12.4556 
       0.570708         13.7359         12.1705 
       0.576825         13.4743         11.8947 
       0.582926          13.182         11.6281 
       0.589034         12.9342         11.3696 
       0.595184         12.7445         11.1177 
       0.601379            12.4          10.872 
       0.607522         12.1651         10.6361 
       0.613639         11.8983         10.4085 
       0.619772         11.7145         10.1873 
       0.625918          11.468          9.9723 
       0.632068         11.3113         9.76338 
       0.638161         11.0759         9.56221 
         0.6443         10.8614         9.36509 
       0.650464         10.6109         9.17273 
       0.656582         10.5102         8.98714 
       0.662703         10.3401          8.8067 
       0.668861         10.0617         8.63037 
       0.675024         9.89926         8.45893 
       0.681124         9.86292         8.29406 
       0.687237         9.63059         8.13338 
       0.693381         9.38584         7.97629 
       0.699536         9.31669         7.82311 
       0.705665         9.14117         7.67461 
       0.711789         8.94592         7.53008 
       0.717957         8.77072         7.38828 
        0.72409          8.6724         7.25093 
       0.730186         8.59643         7.11793 
       0.736317          8.3988         6.98757 
       0.742472         8.29324         6.86005 
       0.748622         8.16241         6.73588 
        0.75476         7.95779          6.6151 
       0.760888         7.89401         6.49751 
       0.767043         7.71561         6.38236 
       0.773185         7.61989         6.27028 
       0.779291         7.57302         6.16156 
       0.785407         7.41687         6.05528 
       0.791564         7.31701         5.95087 
       0.797719         7.18212           5.849 
       0.803834         7.10597         5.75018 
       0.809972         6.97706         5.65332 
       0.816124         6.88444          5.5585 
       0.822261         6.79456         5.46614 
       0.828378         6.69105         5.37618 
       0.834502         6.60507         5.28819 
       0.840667         6.53392         5.20162 
       0.846816         6.40286         5.11726 
       0.852925         6.32959         5.03532 
       0.859047         6.24233         4.95502 
       0.865192         6.15404         4.87624 
       0.871341          6.0681         4.79913 
       0.877463         5.98146         4.72406 
       0.883569         5.91818          4.6508 
       0.889708         5.83402         4.57874 
       0.895864         5.75731         4.50803 
       0.902008         5.66884         4.43898 
       0.908149         5.59719         4.37144 
       0.914301         5.53964          4.3052 
       0.920448         5.46972         4.24041 
       0.926574         5.42963         4.17719 
       0.932687         5.33578         4.11541 
       0.938823         5.24744         4.05467 
       0.944975         5.21065         3.99503 
       0.951105         5.11428         3.93681 
       0.957225         5.08005         3.87985 
       0.963368         5.02137         3.82384 
       0.969511         4.96141         3.76895 
       0.975621         4.89179         3.71543 
       0.981748         4.80723         3.66283 
       0.987916          4.7642         3.61092 
        0.99406         4.73134         3.56022 
        1.00019         4.67513         3.51061 
        1.00632         4.62894         3.46199 
        1.01246         4.56058         3.41423 
        1.01859         4.50872         3.36746 
        1.02471         4.43891         3.32163 
        1.03085         4.41044         3.27649 
        1.03698         4.36107         3.23231 
        1.04314         4.31479         3.18875 
        1.04929         4.25759         3.14611 
        1.05541         4.20634         3.10442 
        1.06154         4.17347          3.0634 
        1.06769         4.14645         3.02306 
        1.07382         4.07537         2.98359 
        1.07993         4.02594         2.94492 
        1.08607         4.00136         2.90678 
        1.09222         3.94429         2.86929 
        1.09836         3.93334          2.8325 
        1.10449          3.8495         2.79641 
        1.11063         3.82683         2.76092 
        1.11677          3.7928         2.72606 
         1.1229         3.74641         2.69186 
        1.12903         3.72167         2.65823 
        1.13518         3.66539         2.62515 
        1.14131         3.63101         2.59265 
        1.14745         3.58951         2.56073 
        1.15359         3.55757         2.52934 
        1.15973         3.51836         2.49847 
        1.16584         3.48868         2.46826 
        1.17197         3.44824         2.43851 
        1.17811         3.41382         2.40916 
        1.18424         3.38048         2.38038 
        1.19038          3.3496         2.35199 
        1.19652         3.32412         2.32407 
        1.20267         3.29591         2.29662 
        1.20881         3.25763         2.26961 
        1.21495          3.2289         2.24309 
        1.22108         3.20109         2.21699 
         1.2272         3.15641         2.19138 
        1.23334         3.14709         2.16611 
        1.23949          3.1085         2.14119 
        1.24562         3.08337         2.11673 
        1.25174         3.06102         2.09269 
        1.25789         3.01823         2.06895 
        1.26402         2.99203         2.04563 
        1.27014         2.96511         2.02273 
        1.27628          2.9388         2.00011 
        1.28244         2.91712         1.97779 
        1.28858         2.89337         1.95585 
        1.29471         2.85509          1.9343 
        1.30084          2.8333         1.91309 
        1.30697          2.8171         1.89217 
        1.31312         2.79007         1.87153 
        1.31925         2.76474         1.85127 
        1.32537         2.74495         1.83133 
        1.33151         2.71558         1.81161 
        1.33765         2.69512          1.7922 
        1.34378         2.67593         1.77312 
        1.34992         2.65347          1.7543 
        1.35606         2.63126         1.73571 
         1.3622          2.6106         1.71743 
        1.36833         2.58141         1.69946 
        1.37445         2.55849         1.68175 
        1.38059         2.53863         1.66425 
        1.38675         2.51943         1.64695 
        1.39288         2.50601         1.62997 
        1.39901         2.47621         1.61324 
        1.40515         2.45814          1.5967 
         1.4113         2.44393         1.58041 
        1.41742         2.41638         1.56441 
        1.42355         2.39656          1.5486 
         1.4297         2.38428         1.53296 
        1.43585         2.36384         1.51755 
        1.44198           2.344         1.50241 
        1.44809         2.32983          1.4875 
        1.45423         2.31081         1.47274 
        1.46036         2.29391         1.45821 
        1.46649         2.26575         1.44387 
        1.47263         2.25974         1.42972 
        1.47877          2.2458         1.41576 
        1.48491          2.2187         1.40197 
        1.49104         2.20601         1.38839 
        1.49718         2.18918         1.37498 
        1.50333         2.17134         1.36173 
        1.50947         2.15611         1.34868 
         1.5156         2.14018         1.33582 
        1.52172         2.12632         1.32313 
        1.52787         2.11031         1.31058 
          1.534         2.09717         1.29821 
        1.54013         2.07834         1.28602 
        1.54627         2.06349         1.27396 
        1.55241         2.04493         1.26205 
        1.55855         2.03386         1.25031 
        1.56467         2.02011         1.23876 
         1.5708         2.00535         1.22732 
        1.57695         1.98675           1.216 
        1.58308         1.97097         1.20486 
        1.58922         1.96475         1.19385 
        1.59535         1.94406         1.18298 
         1.6015         1.93034         1.17223 
        1.60764         1.92093         1.16163 
        1.61376         1.90317         1.15118 
        1.61989         1.89172         1.14085 
        1.62604         1.87477         1.13063 
        1.63218         1.86973         1.12054 
        1.63831         1.85647          1.1106 
        1.64444         1.84162         1.10078 
        1.65059         1.83298         1.09105 
        1.65673         1.81416         1.08145 
        1.66285         1.80326         1.07199 
        1.66898         1.79368         1.06264 
        1.67512         1.77626         1.05339 
        1.68127         1.76498         1.04424 
         1.6874         1.76086         1.03522 
        1.69353         1.74188         1.02631 
        1.69967          1.7326         1.01749 
        1.70581         1.72639         1.00877 
        1.71193         1.70508         1.00019 
        1.71806          1.6985        0.991691 
        1.72421         1.69027        0.983275 
        1.73035         1.67331        0.974966 
        1.73649         1.66972        0.966756 
        1.74262         1.65602        0.958647 
        1.74876         1.64515        0.950626 
        1.75489         1.63531        0.942715 
        1.76101         1.62131        0.934895 
        1.76715         1.61488        0.927155 
        1.77329         1.60369        0.919493 
        1.77943         1.59465        0.911914 
        1.78557          1.5864        0.904433 
        1.79171         1.57718        0.897034 
        1.79785         1.56647        0.889718 
        1.80399         1.55537        0.882484 
        1.81012         1.54528        0.875342 
        1.81625         1.53346        0.868281 
        1.82239         1.52687        0.861289 
        1.82853         1.51754        0.854377 
        1.83466         1.50552        0.847548 
        1.84078         1.49729        0.840801 
        1.84692         1.48942        0.834117 
        1.85306         1.48347        0.827497 
         1.8592         1.47084        0.820961 
        1.86533         1.46392        0.814499 
        1.87147         1.45303        0.808099 
        1.87761         1.44698        0.801766 
        1.88375         1.43754        0.795508 
        1.88988         1.42864        0.789324 
        1.89601         1.41948        0.783203 
        1.90215         1.41185        0.777142 
        1.90829         1.40581        0.771149 
        1.91442         1.39504        0.765218 
        1.92056         1.39011        0.759356 
         1.9267         1.38248        0.753549 
        1.93284         1.37147          0.7478 
        1.93897         1.36274        0.742122 
        1.94509         1.35839        0.736515 
        1.95123         1.34758        0.730952 
        1.95737         1.34298        0.725443 
        1.96349         1.33399        0.720005 
        1.96964         1.32928        0.714607 
        1.97578         1.31764        0.709262 
        1.98192         1.30903        0.703983 
        1.98805         1.30425        0.698758 
        1.99419         1.29666        0.693585 
        2.00033         1.28943        0.688463 
        2.00647         1.28458        0.683394 
         2.0126         1.27884        0.678384 
        2.01874         1.26969        0.673418 
        2.02488         1.26072        0.668497 
        2.03101         1.25544        0.663635 
        2.03714         1.25017        0.658825 
        2.04328         1.24195        0.654059 
        2.04941         1.23484        0.649343 
        2.05554         1.22812        0.644677 
        2.06167         1.22142        0.640052 
        2.06781         1.21455        0.635471 
        2.07396         1.21004        0.630928 
        2.08009          1.2037        0.626438 
        2.08622          1.1958        0.621997 
        2.09237         1.19173         0.61759 
        2.09851         1.18334        0.613226 
        2.10464         1.17952        0.608911 
        2.11077         1.17201        0.604643 
        2.11691         1.16489        0.600406 
        2.12305          1.1613         0.59621 
        2.12918         1.15242        0.592064 
        2.13531         1.14775        0.587958 
        2.14145         1.14201        0.583881 
         2.1476         1.13567        0.579838 
        2.15372         1.12985        0.575854 
        2.15985         1.12414        0.571904 
        2.16599         1.12011        0.567979 
        2.17213         1.11391        0.564096 
        2.17827         1.10697         0.56025 
         2.1844         1.10183        0.556444 
        2.19054         1.09665        0.552671 
        2.19666         1.09204         0.54894 
         2.2028         1.08594        0.545239 
        2.20893         1.08058        0.541571 
        2.21508         1.07533        0.537932 
        2.22122         1.07108        0.534326 
        2.22736         1.06263        0.530761 
        2.23349         1.05842        0.527229 
        2.23962         1.05528        0.523727 
        2.24577         1.04939        0.520255 
         2.2519          1.0433        0.516819 
        2.25802         1.04102        0.513419 
        2.26417         1.03377         0.51004 
        2.27031          1.0298        0.506689 
        2.27644         1.02535        0.503378 
        2.28257         1.01784        0.500097 
        2.28872         1.01647        0.496839 
        2.29486         1.00977        0.493611 
        2.30099         1.00483        0.490418 
        2.30712         1.00217        0.487252 
        2.31326         0.99655        0.484109 
         2.3194        0.990808        0.480995 
        2.32553         0.98606        0.477915 
        2.33166        0.983674        0.474862 
         2.3378        0.978255        0.471832 
        2.34394        0.973538        0.468828 
        2.35007        0.966377        0.465854 
        2.35619        0.963829         0.46291 
        2.36233        0.959348        0.459984 
        2.36848        0.956635        0.457078 
        2.37462        0.951744        0.454203 
        2.38075        0.946655        0.451356 
        2.38689        0.943403         0.44853 
        2.39303        0.938987         0.44573 
        2.39916        0.934184        0.442956 
        2.40529         0.93179        0.440206 
        2.41143        0.924236        0.437478 
        2.41757         0.92201        0.434772 
         2.4237        0.917691        0.432093 
        2.42983        0.912516        0.429438 
        2.43598        0.909721        0.426797 
        2.44211        0.905139        0.424184 
        2.44823        0.901927        0.421598 
        2.45437        0.898617        0.419027 
        2.46052        0.895482        0.416475 
        2.46665        0.890811        0.413949 
        2.47279        0.886735        0.411445 
        2.47892        0.882306         0.40896 
        2.48507         0.88019        0.406493 
         2.4912        0.874475        0.404051 
