# k  (h/Mpc)    Pcb(k)  (Mpc/h)^3    Pcb_linear(k)  (Mpc/h)^3
     0.00783031           16045         16282.1 
       0.013688         20390.8         20199.5 
       0.019231         20655.2         20631.9 
      0.0249154         18870.7         19312.9 
      0.0312784         16740.3           16976 
      0.0375637         14583.6         14632.1 
      0.0433917         12529.6         12815.4 
      0.0492413           11307           11435 
      0.0555754         9992.75         10369.3 
      0.0619321         9554.49         9584.55 
       0.067871         8646.11         8952.91 
      0.0738098         8025.24         8311.45 
      0.0800417         7226.41          7580.7 
      0.0862327          6592.3         6814.88 
      0.0921407         6026.83         6101.69 
      0.0982031         5368.53         5447.58 
       0.104506         5001.87         4893.32 
       0.110769         4589.62          4479.3 
       0.116806         4294.29         4190.07 
       0.122832         4078.97          3973.2 
       0.129052         3791.94         3782.56 
       0.135211         3611.71         3591.62 
       0.141259         3470.99         3383.04 
       0.147318         3280.54         3152.09 
       0.153489         3010.25          2907.3 
       0.159709         2843.36         2670.68 
       0.165845         2727.11         2464.51 
       0.171974         2565.27          2295.2 
       0.178125         2434.26         2162.44 
       0.184229          2323.2         2060.45 
        0.19034         2202.49         1976.84 
       0.196428         2161.02         1900.25 
       0.202534         2081.01         1821.09 
       0.208729         1992.18         1733.88 
       0.214876         1914.44            1641 
       0.220989         1849.42         1546.62 
       0.227147         1771.01         1455.28 
        0.23329         1700.07         1372.83 
       0.239377         1673.14         1302.39 
       0.245482         1569.85         1243.14 
       0.251667         1561.41         1192.76 
       0.257832         1500.08         1148.84 
       0.263955         1451.69            1108 
       0.270079         1403.55         1067.27 
        0.27624         1388.22         1025.02 
       0.282372         1330.77         981.805 
        0.28843          1324.7          939.01 
       0.294538         1259.88         897.306 
       0.300721         1252.17         858.002 
        0.30691         1204.35         822.447 
       0.313033         1180.48         791.157 
       0.319153         1162.06         763.215 
       0.325316         1123.83         737.557 
        0.33145         1099.71         713.475 
       0.337538         1080.28         690.207 
       0.343633         1057.24         667.084 
       0.349808         1022.62         643.755 
       0.355968         1015.46         620.813 
       0.362074         1006.04         598.775 
       0.368217         974.347         577.726 
       0.374374         938.942         557.986 
       0.380519         940.688         539.735 
       0.386598         914.385         522.986 
       0.392688         911.185         507.267 
        0.39888         884.981         492.102 
       0.405048         874.618         477.539 
       0.411186         862.327         463.418 
       0.417313         844.227         449.639 
       0.423458         830.058         436.141 
       0.429607          819.52         423.058 
       0.435692         802.935         410.626 
       0.441815         796.322         398.688 
       0.447964         779.913         387.312 
       0.454126         773.197         376.512 
       0.460267         754.437         366.269 
       0.466387         745.358         356.499 
        0.47254         740.906         347.044 
       0.478662         733.366         337.938 
       0.484765         712.495         329.114 
       0.490885         708.314         320.523 
       0.497035         693.415         312.159 
       0.503198         689.319         304.063 
       0.509342         682.037         296.286 
       0.515458         678.304         288.849 
       0.521598         661.655         281.684 
       0.527764         649.721         274.768 
       0.533884         648.064         268.154 
           0.54         641.462         261.771 
       0.546137         636.044         255.573 
       0.552299         627.379         249.541 
       0.558452         622.727         243.695 
       0.564573         614.787         238.051 
       0.570708         608.069         232.569 
       0.576825          591.77         227.279 
       0.582926         594.475         222.176 
       0.589034           588.6         217.233 
       0.595184         583.288         212.417 
       0.601379         575.071         207.723 
       0.607522         566.992         203.214 
       0.613639         567.163          198.86 
       0.619772         555.061         194.623 
       0.625918         551.855         190.497 
       0.632068         544.666         186.485 
       0.638161         542.666         182.622 
         0.6443         533.149         178.842 
       0.650464         531.252         175.157 
       0.656582          526.99         171.605 
       0.662703         524.956         168.155 
       0.668861         516.101         164.781 
       0.675024         512.024           161.5 
       0.681124          508.52         158.341 
       0.687237         504.393         155.262 
       0.693381          497.76          152.25 
       0.699536         490.003         149.314 
       0.705665         489.637         146.468 
       0.711789         486.795         143.699 
       0.717957         482.387         140.984 
        0.72409         479.781         138.354 
       0.730186         472.893         135.808 
       0.736317         469.902         133.313 
       0.742472         467.432         130.873 
       0.748622         462.292         128.496 
        0.75476         455.764         126.185 
       0.760888         451.662         123.934 
       0.767043         451.941         121.731 
       0.773185         447.334         119.586 
       0.779291         442.452         117.505 
       0.785407         439.519         115.472 
       0.791564          434.62         113.474 
       0.797719         432.591         111.525 
       0.803834         427.956         109.634 
       0.809972         426.833         107.781 
       0.816124         425.647         105.967 
       0.822261         419.581         104.201 
       0.828378         417.402          102.48 
       0.834502         412.835         100.797 
       0.840667         409.779         99.1412 
       0.846816         408.015         97.5277 
       0.852925         404.925         95.9606 
       0.859047         403.175          94.425 
       0.865192         398.188         92.9182 
       0.871341         394.973         91.4436 
       0.877463         394.629         90.0079 
       0.883569         390.855         88.6069 
       0.889708         388.164         87.2288 
       0.895864          386.45         85.8767 
       0.902008         383.053         84.5562 
       0.908149         378.829         83.2646 
       0.914301         376.514          81.998 
       0.920448         374.555         80.7591 
       0.926574         369.056         79.5504 
       0.932687         369.023         78.3691 
       0.938823         365.271         77.2077 
       0.944975         365.312         76.0673 
       0.951105         361.025         74.9543 
       0.957225         358.721         73.8656 
       0.963368         354.722          72.795 
       0.969511         353.643         71.7457 
       0.975621         351.403         70.7229 
       0.981748          349.63         69.7177 
       0.987916         347.583         68.7257 
        0.99406         342.006          67.757 
        1.00019         340.928          66.809 
        1.00632         339.461         65.8802 
        1.01246         336.567         64.9677 
        1.01859         336.973         64.0742 
        1.02471         331.829         63.1988 
        1.03085         330.413         62.3368 
        1.03698         329.081         61.4929 
        1.04314         326.124         60.6611 
        1.04929         323.047         59.8468 
        1.05541         323.933         59.0508 
        1.06154         318.396         58.2674 
        1.06769         317.556         57.4972 
        1.07382         315.287         56.7436 
        1.07993         313.496         56.0052 
        1.08607         312.533         55.2771 
        1.09222          309.33         54.5612 
        1.09836         307.386         53.8589 
        1.10449         304.804         53.1699 
        1.11063         301.624         52.4923 
        1.11677         301.959         51.8268 
         1.1229         299.631         51.1741 
        1.12903         297.631          50.532 
        1.13518         294.865         49.9005 
        1.14131         293.414         49.2802 
        1.14745         292.047         48.6708 
        1.15359          289.97         48.0717 
        1.15973         288.054         47.4825 
        1.16584         285.958         46.9058 
        1.17197         285.883          46.338 
        1.17811         282.365         45.7778 
        1.18424         280.411         45.2286 
        1.19038         279.577         44.6869 
        1.19652         277.257         44.1543 
        1.20267         276.461         43.6304 
        1.20881         274.447         43.1151 
        1.21495         272.345         42.6091 
        1.22108         270.828         42.1113 
         1.2272         269.183         41.6227 
        1.23334         267.745         41.1407 
        1.23949         265.588         40.6653 
        1.24562         264.701         40.1987 
        1.25174         262.824         39.7403 
        1.25789         260.673         39.2876 
        1.26402         258.708         38.8428 
        1.27014          257.27          38.406 
        1.27628         255.846         37.9747 
        1.28244         255.559         37.5493 
        1.28858         252.923         37.1309 
        1.29471         251.393         36.7199 
        1.30084         249.697         36.3156 
        1.30697         248.435         35.9167 
        1.31312         245.911         35.5233 
        1.31925         245.042         35.1371 
        1.32537         244.282          34.757 
        1.33151         241.922         34.3812 
        1.33765         240.115         34.0113 
        1.34378         239.446         33.6475 
        1.34992          238.07         33.2888 
        1.35606         237.479         32.9346 
         1.3622         235.155         32.5863 
        1.36833         233.306         32.2438 
        1.37445         232.331         31.9064 
        1.38059         230.365         31.5728 
        1.38675         229.504         31.2433 
        1.39288         228.193         30.9197 
        1.39901         227.264         30.6009 
        1.40515         225.525         30.2859 
         1.4113         224.259         29.9755 
        1.41742         222.523         29.6706 
        1.42355         221.589         29.3694 
         1.4297         219.675         29.0714 
        1.43585         218.629         28.7778 
        1.44198         217.702         28.4893 
        1.44809         216.268         28.2054 
        1.45423         215.111         27.9243 
        1.46036         213.824         27.6475 
        1.46649         212.259         27.3744 
        1.47263          211.09         27.1049 
        1.47877         209.677          26.839 
        1.48491         207.918         26.5764 
        1.49104         207.342         26.3178 
        1.49718         205.605         26.0625 
        1.50333         204.907         25.8101 
        1.50947         203.595         25.5617 
         1.5156         201.841         25.3169 
        1.52172         201.175         25.0753 
        1.52787         199.421         24.8364 
          1.534         199.032          24.601 
        1.54013         197.316         24.3688 
        1.54627         196.302         24.1392 
        1.55241         195.093         23.9126 
        1.55855         193.712         23.6892 
        1.56467          192.68         23.4693 
         1.5708         191.974         23.2516 
        1.57695         190.777         23.0363 
        1.58308         189.587         22.8242 
        1.58922         188.014         22.6147 
        1.59535         186.665         22.4079 
         1.6015         186.093         22.2034 
        1.60764         184.915         22.0016 
        1.61376         183.939         21.8028 
        1.61989         182.969         21.6063 
        1.62604         181.707         21.4119 
        1.63218         180.805         21.2199 
        1.63831         179.428         21.0307 
        1.64444         178.697         20.8438 
        1.65059         177.604         20.6587 
        1.65673         176.359         20.4761 
        1.66285         175.239         20.2962 
        1.66898         174.289         20.1184 
        1.67512         173.868         19.9424 
        1.68127         171.988         19.7684 
         1.6874         171.287         19.5968 
        1.69353         170.228         19.4274 
        1.69967         168.964         19.2596 
        1.70581         168.331         19.0938 
        1.71193         167.089         18.9306 
        1.71806         166.498          18.769 
        1.72421         165.292          18.609 
        1.73035         164.626          18.451 
        1.73649         163.673         18.2949 
        1.74262         162.596         18.1407 
        1.74876         161.533         17.9883 
        1.75489         160.752         17.8378 
        1.76101         159.355         17.6892 
        1.76715         159.065          17.542 
        1.77329         157.983         17.3964 
        1.77943         157.254         17.2523 
        1.78557         156.316         17.1101 
        1.79171         155.514         16.9695 
        1.79785         154.377         16.8304 
        1.80399         153.499          16.693 
        1.81012         152.598         16.5572 
        1.81625         152.085          16.423 
        1.82239         150.906         16.2902 
        1.82853         150.359         16.1588 
        1.83466         149.227         16.0291 
        1.84078         148.609         15.9009 
        1.84692          147.21         15.7739 
        1.85306         147.028         15.6481 
         1.8592          145.98         15.5239 
        1.86533         145.249         15.4011 
        1.87147         144.089         15.2796 
        1.87761          143.31         15.1592 
        1.88375         142.362         15.0404 
        1.88988         141.418         14.9229 
        1.89601         141.142         14.8066 
        1.90215         140.037         14.6915 
        1.90829         139.298         14.5776 
        1.91442          138.62          14.465 
        1.92056         137.793         14.3536 
         1.9267         137.066         14.2433 
        1.93284         136.061         14.1341 
        1.93897         135.554         14.0263 
        1.94509          134.82         13.9198 
        1.95123         134.191         13.8142 
        1.95737         133.402         13.7095 
        1.96349          132.63         13.6063 
        1.96964         131.615         13.5038 
        1.97578         130.875         13.4023 
        1.98192         130.391         13.3021 
        1.98805         129.569         13.2029 
        1.99419         128.843         13.1047 
        2.00033         128.116         13.0074 
        2.00647         127.511         12.9112 
         2.0126          126.44         12.8161 
        2.01874         125.915         12.7218 
        2.02488         125.568         12.6284 
        2.03101         124.281         12.5361 
        2.03714         123.959         12.4448 
        2.04328         123.021         12.3543 
        2.04941         122.571         12.2648 
        2.05554         121.669         12.1763 
        2.06167         121.298         12.0885 
        2.06781         120.458         12.0015 
        2.07396         119.798         11.9153 
        2.08009         119.214         11.8301 
        2.08622         118.332         11.7458 
        2.09237         117.848         11.6622 
        2.09851         117.197         11.5794 
        2.10464         116.801         11.4975 
        2.11077         116.039         11.4166 
        2.11691         115.488         11.3362 
        2.12305         114.664         11.2566 
        2.12918         113.938         11.1779 
        2.13531         113.419            11.1 
        2.14145         112.684         11.0227 
         2.1476         111.822          10.946 
        2.15372         111.713         10.8704 
        2.15985         111.116         10.7955 
        2.16599         110.238          10.721 
        2.17213         109.716         10.6474 
        2.17827         109.147         10.5744 
         2.1844         108.342         10.5022 
        2.19054         108.024         10.4307 
        2.19666         107.368         10.3599 
         2.2028         106.695         10.2897 
        2.20893         106.345         10.2201 
        2.21508         105.599         10.1511 
        2.22122         105.044         10.0828 
        2.22736         104.533         10.0151 
        2.23349         104.007         9.94817 
        2.23962         103.398         9.88178 
        2.24577         102.835         9.81593 
         2.2519         102.505         9.75078 
        2.25802         101.531         9.68632 
        2.26417         101.237         9.62227 
        2.27031         100.544         9.55874 
        2.27644         100.113         9.49597 
        2.28257         99.4169         9.43376 
        2.28872            99.1           9.372 
        2.29486         98.4104         9.31081 
        2.30099         97.9262         9.25028 
        2.30712         97.3999         9.19027 
        2.31326         96.8088         9.13069 
         2.3194         96.3261         9.07168 
        2.32553         95.8697         9.01329 
        2.33166         95.3464         8.95543 
         2.3378         94.9564         8.89801 
        2.34394         94.4173         8.84107 
        2.35007         93.7894         8.78471 
        2.35619         93.4507         8.72892 
        2.36233         92.8923         8.67347 
        2.36848          92.327          8.6184 
        2.37462         91.9941         8.56392 
        2.38075         91.3197         8.50996 
        2.38689         90.9101         8.45643 
        2.39303         90.2809         8.40336 
        2.39916         90.0432         8.35081 
        2.40529          89.707         8.29871 
        2.41143         88.9922         8.24702 
        2.41757         88.5713         8.19575 
         2.4237         88.1098         8.14501 
        2.42983         87.5415          8.0947 
        2.43598         87.0607         8.04469 
        2.44211         86.9335         7.99518 
        2.44823          86.359         7.94621 
        2.45437         85.6379          7.8975 
        2.46052         85.1885         7.84917 
        2.46665         84.9732         7.80133 
        2.47279         84.4175          7.7539 
        2.47892         84.0357         7.70683 
        2.48507         83.5926         7.66012 
         2.4912         83.2283         7.61388 
