# k  (h/Mpc)    Pcb(k)  (Mpc/h)^3    Pcb_linear(k)  (Mpc/h)^3
     0.00783031         11840.3         11911.8 
       0.013688         13793.6         14111.6 
       0.019231         13601.3         13772.9 
      0.0249154         12310.3         12263.7 
      0.0312784         10130.4         10185.6 
      0.0375637         8263.77         8356.12 
      0.0433917         7082.55         7083.44 
      0.0492413         6176.91         6216.01 
      0.0555754         5632.56         5620.31 
      0.0619321         5081.99         5214.45 
       0.067871         4817.21         4873.27 
      0.0738098         4466.32         4488.48 
      0.0800417          4018.3         4018.32 
      0.0862327         3511.88         3519.73 
      0.0921407         3094.09         3070.25 
      0.0982031         2753.35         2683.42 
       0.104506            2421         2385.09 
       0.110769         2238.78         2188.38 
       0.116806         2146.95         2068.21 
       0.122832         2032.06         1983.39 
       0.129052         1940.25         1899.69 
       0.135211         1869.92         1797.84 
       0.141259         1721.85         1672.79 
       0.147318         1572.06         1530.42 
       0.153489         1449.05         1384.04 
       0.159709         1357.51         1251.96 
       0.165845         1228.54         1147.48 
       0.171974         1190.94          1071.2 
       0.178125         1141.67         1018.37 
       0.184229         1065.42         980.762 
        0.19034         1047.06         948.077 
       0.196428         1014.11         912.427 
       0.202534         944.575         869.335 
       0.208729         922.322         818.285 
       0.214876         874.425         763.997 
       0.220989         814.785         711.452 
       0.227147         788.695         664.413 
        0.23329         753.661         625.832 
       0.239377         741.509         595.964 
       0.245482         702.794         572.651 
       0.251667         676.633         553.052 
       0.257832         667.804         534.622 
       0.263955         632.295         515.258 
       0.270079         609.043         493.934 
        0.27624         582.991         470.793 
       0.282372         569.273         447.259 
        0.28843         562.023         424.928 
       0.294538         532.071           404.5 
       0.300721         516.138         386.603 
        0.30691         506.116         371.414 
       0.313033         482.907         358.542 
       0.319153         475.463         346.952 
       0.325316         466.527         335.766 
        0.33145         454.829         324.505 
       0.337538         437.894         312.991 
       0.343633         425.187         301.202 
       0.349808         413.847         289.347 
       0.355968         405.736         278.001 
       0.362074         391.495         267.548 
       0.368217         388.507         258.014 
       0.374374         380.417         249.389 
       0.380519          364.76         241.566 
       0.386598         360.409         234.344 
       0.392688         351.015         227.384 
        0.39888         342.317         220.435 
       0.405048         335.056         213.542 
       0.411186         333.573         206.745 
       0.417313         328.195         200.112 
       0.423458         318.994         193.702 
       0.429607         309.932         187.629 
       0.435692         305.214         182.004 
       0.441815         299.415         176.704 
       0.447964          292.35         171.706 
       0.454126         288.666         166.956 
       0.460267         284.163         162.398 
       0.466387         278.039         157.977 
        0.47254         274.534         153.636 
       0.478662         267.705         149.417 
       0.484765         264.145         145.321 
       0.490885         260.783         141.355 
       0.497035         256.097         137.537 
       0.503198         254.794         133.888 
       0.509342         248.412         130.415 
       0.515458         244.429         127.113 
       0.521598          239.64         123.935 
       0.527764         236.853         120.857 
       0.533884         235.342         117.893 
           0.54         231.111         115.011 
       0.546137         225.921         112.202 
       0.552299          224.39         109.466 
       0.558452         220.542         106.821 
       0.564573         219.273         104.278 
       0.570708         214.496         101.819 
       0.576825         211.306         99.4578 
       0.582926         209.427         97.1892 
       0.589034         206.036         94.9954 
       0.595184         204.492         92.8565 
       0.601379         201.115         90.7656 
       0.607522         196.656         88.7516 
       0.613639         195.755         86.8039 
       0.619772         194.222         84.9083 
       0.625918         191.801         83.0651 
       0.632068         188.146         81.2759 
       0.638161         187.174         79.5563 
         0.6443         185.034         77.8757 
       0.650464         181.913           76.24 
       0.656582         180.419         74.6653 
       0.662703         179.182         73.1364 
       0.668861         175.489         71.6427 
       0.675024         175.183         70.1895 
       0.681124         172.733         68.7907 
       0.687237         171.166         67.4261 
       0.693381         168.578         66.0914 
       0.699536         167.413         64.7903 
       0.705665         165.692         63.5301 
       0.711789         163.592         62.3052 
       0.717957         162.008         61.1053 
        0.72409          159.96         59.9447 
       0.730186         160.524          58.822 
       0.736317         158.035         57.7224 
       0.742472           155.8         56.6473 
       0.748622         153.658         55.6005 
        0.75476         154.126         54.5824 
       0.760888         152.095         53.5913 
       0.767043         149.587         52.6208 
       0.773185         148.259         51.6765 
       0.779291         146.706          50.761 
       0.785407         145.905         49.8665 
       0.791564         144.594         48.9882 
       0.797719         142.284         48.1318 
       0.803834         142.808         47.3017 
       0.809972         141.242         46.4884 
       0.816124         138.847         45.6927 
       0.822261         138.046         44.9179 
       0.828378         137.621         44.1636 
       0.834502         135.992         43.4261 
       0.840667         135.586         42.7008 
       0.846816         133.525         41.9942 
       0.852925         132.648         41.3081 
       0.859047         131.456          40.636 
       0.865192         130.876         39.9767 
       0.871341         129.499         39.3317 
       0.877463          128.27          38.704 
       0.883569         128.253         38.0916 
       0.889708         126.959         37.4894 
       0.895864         125.733         36.8988 
       0.902008         124.465         36.3223 
       0.908149          123.16         35.7584 
       0.914301           122.7         35.2058 
       0.920448         122.589         34.6653 
       0.926574         120.434         34.1383 
       0.932687         120.401         33.6233 
       0.938823         119.494         33.1172 
       0.944975         118.576         32.6204 
       0.951105         117.429         32.1357 
       0.957225         116.854         31.6617 
       0.963368         115.857         31.1958 
       0.969511         114.985         30.7392 
       0.975621         113.621         30.2944 
       0.981748         113.168         29.8572 
       0.987916         112.455          29.426 
        0.99406         111.914          29.005 
        1.00019         111.016         28.5931 
        1.00632         110.074         28.1897 
        1.01246         109.494         27.7935 
        1.01859         108.841         27.4056 
        1.02471         108.124         27.0256 
        1.03085         107.178         26.6516 
        1.03698         106.369         26.2855 
        1.04314         105.942         25.9248 
        1.04929         105.482         25.5717 
        1.05541         104.723         25.2267 
        1.06154         103.764         24.8872 
        1.06769          103.22         24.5535 
        1.07382          102.63          24.227 
        1.07993         101.989         23.9073 
        1.08607          101.41          23.592 
        1.09222         100.647         23.2821 
        1.09836         99.9646         22.9782 
        1.10449         99.4009         22.6801 
        1.11063         98.7593          22.387 
        1.11677         98.2185         22.0992 
         1.1229         97.2948         21.8169 
        1.12903         96.7909         21.5394 
        1.13518         96.1513         21.2665 
        1.14131         95.7264         20.9985 
        1.14745         95.2908         20.7353 
        1.15359         94.2574         20.4765 
        1.15973         93.9997         20.2221 
        1.16584          93.373         19.9732 
        1.17197         92.9576         19.7281 
        1.17811         92.1595         19.4864 
        1.18424         91.6684         19.2495 
        1.19038         91.2971         19.0158 
        1.19652         90.7892         18.7862 
        1.20267         90.1687         18.5603 
        1.20881         89.4935         18.3383 
        1.21495         89.1268         18.1202 
        1.22108         88.7099         17.9057 
         1.2272         88.0736         17.6952 
        1.23334         87.8182         17.4877 
        1.23949         87.2155          17.283 
        1.24562         86.5068         17.0821 
        1.25174         86.3562         16.8848 
        1.25789          85.662           16.69 
        1.26402         85.3288         16.4986 
        1.27014         84.6825         16.3108 
        1.27628         84.2243         16.1253 
        1.28244         84.0964         15.9423 
        1.28858         83.3212         15.7625 
        1.29471         82.8734         15.5858 
        1.30084         82.2516          15.412 
        1.30697         82.0554         15.2406 
        1.31312         81.5799         15.0716 
        1.31925         80.9738         14.9057 
        1.32537         80.6427         14.7425 
        1.33151         80.5088         14.5811 
        1.33765         79.8532         14.4222 
        1.34378         79.4481         14.2661 
        1.34992         79.2022         14.1121 
        1.35606         78.6936         13.9601 
         1.3622          78.467         13.8106 
        1.36833         77.7834         13.6637 
        1.37445         77.4522          13.519 
        1.38059         77.0947         13.3759 
        1.38675         76.4863         13.2346 
        1.39288         76.1576         13.0959 
        1.39901         75.7518         12.9592 
        1.40515         75.3653         12.8242 
         1.4113         75.0161         12.6912 
        1.41742         74.6065         12.5606 
        1.42355         74.3952         12.4315 
         1.4297         73.8704         12.3039 
        1.43585         73.6138         12.1782 
        1.44198         73.0123         12.0547 
        1.44809         72.5327         11.9331 
        1.45423         72.6049         11.8128 
        1.46036         72.0152         11.6944 
        1.46649         71.5131         11.5775 
        1.47263         71.1681         11.4622 
        1.47877         70.9149         11.3485 
        1.48491         70.4732         11.2362 
        1.49104         70.0279         11.1256 
        1.49718         69.7646         11.0164 
        1.50333         69.5388         10.9085 
        1.50947         69.2075         10.8023 
         1.5156          68.992         10.6977 
        1.52172          68.361         10.5945 
        1.52787         68.0787         10.4924 
          1.534         67.7342         10.3918 
        1.54013         67.5807         10.2926 
        1.54627         66.9628         10.1946 
        1.55241         66.9412         10.0978 
        1.55855         66.2739         10.0024 
        1.56467         65.8414         9.90851 
         1.5708         65.7085         9.81556 
        1.57695         65.3833         9.72367 
        1.58308         65.0814         9.63317 
        1.58922         64.8628         9.54376 
        1.59535         64.7369         9.45552 
         1.6015         64.2936         9.36828 
        1.60764         63.9454         9.28218 
        1.61376         63.7039         9.19741 
        1.61989         63.1558         9.11363 
        1.62604         63.0507         9.03071 
        1.63218         62.7307         8.94887 
        1.63831          62.493         8.86824 
        1.64444         62.2164         8.78858 
        1.65059          61.795          8.7097 
        1.65673         61.5783         8.63188 
        1.66285         61.1482         8.55523 
        1.66898         60.7753         8.47949 
        1.67512         60.5398         8.40452 
        1.68127         60.4492         8.33039 
         1.6874         60.0415         8.25732 
        1.69353         59.7226         8.18518 
        1.69967         59.5239         8.11372 
        1.70581         59.2049         8.04315 
        1.71193         58.8686         7.97369 
        1.71806         58.7148         7.90491 
        1.72421         58.4412          7.8368 
        1.73035         58.1291         7.76958 
        1.73649          57.817         7.70315 
        1.74262          57.462         7.63757 
        1.74876         57.3676          7.5727 
        1.75489         57.0548         7.50872 
        1.76101          56.805          7.4455 
        1.76715         56.4788         7.38293 
        1.77329         56.1889           7.321 
        1.77943         56.1342         7.25975 
        1.78557         55.7814          7.1993 
        1.79171         55.4182         7.13952 
        1.79785         55.2088         7.08042 
        1.80399         55.0279           7.022 
        1.81012         54.6982         6.96432 
        1.81625         54.4688         6.90731 
        1.82239         54.1744         6.85085 
        1.82853         53.9503         6.79506 
        1.83466         53.6805         6.73994 
        1.84078         53.4215          6.6855 
        1.84692         53.4077         6.63157 
        1.85306         53.0472         6.57817 
         1.8592         52.7583         6.52544 
        1.86533         52.5348         6.47333 
        1.87147         52.2295         6.42172 
        1.87761         52.0039         6.37065 
        1.88375         51.8492          6.3202 
        1.88988         51.4805         6.27035 
        1.89601          51.406         6.22102 
        1.90215         51.0383         6.17217 
        1.90829         50.8703         6.12388 
        1.91442         50.5461         6.07609 
        1.92056         50.4632         6.02886 
         1.9267         50.1872         5.98209 
        1.93284         49.9987         5.93578 
        1.93897         49.6281         5.89005 
        1.94509         49.4696         5.84491 
        1.95123         49.2686         5.80012 
        1.95737         49.1756         5.75577 
        1.96349         48.8959           5.712 
        1.96964         48.6302         5.66856 
        1.97578          48.369         5.62555 
        1.98192         48.1148         5.58308 
        1.98805         47.8221         5.54104 
        1.99419         47.7859         5.49943 
        2.00033         47.5209         5.45823 
        2.00647         47.2834         5.41746 
         2.0126         47.1166         5.37718 
        2.01874         47.0266         5.33725 
        2.02488         46.7222         5.29769 
        2.03101         46.5734         5.25861 
        2.03714         46.2922         5.21996 
        2.04328         46.1261         5.18165 
        2.04941         45.7425         5.14376 
        2.05554         45.6952         5.10627 
        2.06167         45.5236         5.06911 
        2.06781         45.3251         5.03231 
        2.07396         45.0178         4.99583 
        2.08009         44.8628         4.95977 
        2.08622         44.7203         4.92411 
        2.09237         44.4785         4.88873 
        2.09851         44.2043         4.85369 
        2.10464         44.0348         4.81906 
        2.11077         43.9074          4.7848 
        2.11691          43.684          4.7508 
        2.12305          43.488         4.71714 
        2.12918         43.2619         4.68388 
        2.13531         43.0196         4.65093 
        2.14145         42.9015         4.61823 
         2.1476         42.8697         4.58581 
        2.15372         42.6147         4.55386 
        2.15985         42.3261         4.52219 
        2.16599         42.1428         4.49072 
        2.17213         42.0137         4.45959 
        2.17827          41.845         4.42876 
         2.1844         41.5291         4.39826 
        2.19054         41.5678         4.36802 
        2.19666         41.2883         4.33812 
         2.2028         41.0177         4.30847 
        2.20893         40.9032         4.27908 
        2.21508          40.698         4.24994 
        2.22122         40.5058         4.22105 
        2.22736         40.3133          4.1925 
        2.23349         40.1908         4.16421 
        2.23962         40.0448         4.13618 
        2.24577         39.8428         4.10837 
         2.2519         39.6339         4.08086 
        2.25802         39.4458         4.05365 
        2.26417         39.2448         4.02661 
        2.27031         39.1324         3.99979 
        2.27644         39.0315          3.9733 
        2.28257         38.7748         3.94704 
        2.28872         38.6974         3.92098 
        2.29486         38.4943         3.89515 
        2.30099         38.2909         3.86961 
        2.30712         38.1412         3.84429 
        2.31326          38.007         3.81916 
         2.3194          37.828         3.79426 
        2.32553         37.6719         3.76963 
        2.33166          37.487         3.74522 
         2.3378         37.2782           3.721 
        2.34394         37.1613         3.69699 
        2.35007         37.0455         3.67322 
        2.35619          36.864         3.64969 
        2.36233         36.6605         3.62631 
        2.36848         36.5871         3.60309 
        2.37462         36.3075         3.58012 
        2.38075         36.2672         3.55737 
        2.38689         36.0696         3.53481 
        2.39303         35.9304         3.51244 
        2.39916         35.7478         3.49028 
        2.40529         35.6249         3.46833 
        2.41143         35.5087         3.44654 
        2.41757          35.367         3.42493 
         2.4237         35.1809         3.40355 
        2.42983         35.0194         3.38235 
        2.43598         34.8892         3.36128 
        2.44211         34.6713         3.34042 
        2.44823         34.5505         3.31978 
        2.45437         34.4349         3.29926 
        2.46052         34.2244          3.2789 
        2.46665         34.1564         3.25875 
        2.47279          33.885         3.23878 
        2.47892         33.8546         3.21895 
        2.48507         33.7339         3.19928 
         2.4912         33.5024         3.17981 
