# k  (h/Mpc)    Pcb(k)  (Mpc/h)^3    Pcb_linear(k)  (Mpc/h)^3
     0.00783031         16765.6         16875.1 
       0.013688           17796         18243.9 
       0.019231         16177.3         16390.3 
      0.0249154         13514.7         13399.3 
      0.0312784         10175.6         10179.4 
      0.0375637         7772.86         7815.22 
      0.0433917         6465.21         6424.77 
      0.0492413         5630.78         5626.22 
      0.0555754         5197.45         5154.26 
      0.0619321         4714.68         4811.17 
       0.067871          4409.8         4432.83 
      0.0738098         3958.57         3941.56 
      0.0800417          3401.8          3351.5 
      0.0862327         2838.29         2789.48 
      0.0921407          2434.2         2354.71 
      0.0982031          2156.3         2045.12 
       0.104506         1923.49         1857.96 
       0.110769         1831.97         1765.07 
       0.116806         1787.69         1711.67 
       0.122832         1698.96         1648.55 
       0.129052         1590.92         1545.56 
       0.135211         1489.95         1404.67 
       0.141259         1324.18         1248.35 
       0.147318         1179.59         1100.02 
       0.153489         1070.77         977.843 
       0.159709         1008.31         892.422 
       0.165845         928.436         841.426 
       0.171974         915.455         812.075 
       0.178125         886.226         790.046 
       0.184229         828.654         763.366 
        0.19034          804.62         725.331 
       0.196428         766.691          676.55 
       0.202534         698.963         622.315 
       0.208729         674.915         569.428 
       0.214876         633.381         525.062 
       0.220989         590.578          491.58 
       0.227147         574.174         467.856 
        0.23329         551.625         451.048 
       0.239377         545.769         437.137 
       0.245482         516.904         422.422 
       0.251667         495.889         404.668 
       0.257832         485.237         383.961 
       0.263955         455.623         361.853 
       0.270079         434.379          340.21 
        0.27624         414.865         320.713 
       0.282372         403.993          304.54 
        0.28843         398.152         291.682 
       0.294538         377.436         281.147 
       0.300721         366.427         271.779 
        0.30691         358.705         262.636 
       0.313033         341.186         253.083 
       0.319153         335.195         242.898 
       0.325316           327.5         232.244 
        0.33145         317.765         221.809 
       0.337538         304.645         212.106 
       0.343633         295.631         203.413 
       0.349808         286.929         195.691 
       0.355968         281.249         188.928 
       0.362074         270.485         182.845 
       0.368217         267.571         177.009 
       0.374374         261.681         171.227 
       0.380519         250.545          165.39 
       0.386598         246.799           159.6 
       0.392688         239.284         153.903 
        0.39888         233.875         148.347 
       0.405048         227.693         143.184 
       0.411186         226.395          138.45 
       0.417313         221.984         134.092 
       0.423458           216.1          130.03 
       0.429607         209.108         126.172 
       0.435692         205.975         122.468 
       0.441815         201.617          118.82 
       0.447964         196.228         115.226 
       0.454126         193.539         111.703 
       0.460267         190.494         108.312 
       0.466387          185.25          105.09 
        0.47254         183.311          102.02 
       0.478662         178.426         99.1285 
       0.484765         175.304         96.3974 
       0.490885         172.762         93.7858 
       0.497035         169.604         91.2587 
       0.503198         168.219         88.8008 
       0.509342         164.238          86.418 
       0.515458         161.048         84.1172 
       0.521598         157.452          81.881 
       0.527764         155.974         79.7137 
       0.533884         154.248         77.6448 
           0.54         151.258         75.6638 
       0.546137          147.66         73.7592 
       0.552299         145.772          71.922 
       0.558452         143.453         70.1524 
       0.564573         142.907         68.4472 
       0.570708         138.927         66.7901 
       0.576825         137.064          65.189 
       0.582926         135.852         63.6422 
       0.589034         133.263         62.1425 
       0.595184         131.906         60.6812 
       0.601379         129.775         59.2581 
       0.607522         126.398          57.894 
       0.613639         125.828         56.5815 
       0.619772         124.404         55.3091 
       0.625918         122.922         54.0748 
       0.632068          120.21         52.8776 
       0.638161         119.707         51.7264 
         0.6443         118.022         50.5997 
       0.650464         116.015         49.5012 
       0.656582          114.84         48.4426 
       0.662703         114.197         47.4149 
       0.668861         111.519         46.4119 
       0.675024         111.234         45.4382 
       0.681124         109.534         44.5033 
       0.687237         108.611         43.5934 
       0.693381         106.367          42.705 
       0.699536         105.991         41.8399 
       0.705665         104.693         41.0023 
       0.711789         102.974         40.1881 
       0.717957         102.074         39.3903 
        0.72409         100.663         38.6185 
       0.730186         100.639         37.8721 
       0.736317         99.3478         37.1416 
       0.742472         97.6804         36.4278 
       0.748622         96.3069         35.7338 
        0.75476         96.4087         35.0596 
       0.760888         95.1226          34.404 
       0.767043         93.4049         33.7627 
       0.773185         92.2336         33.1392 
       0.779291         91.6771          32.535 
       0.785407         90.9599         31.9451 
       0.791564         89.9964         31.3661 
       0.797719         88.5221         30.8018 
       0.803834         88.5886          30.255 
       0.809972         87.5592         29.7195 
       0.816124         85.9542         29.1959 
       0.822261         85.4224         28.6864 
       0.828378         84.9758         28.1906 
       0.834502         84.3381         27.7061 
       0.840667         83.6797           27.23 
       0.846816         82.3778         26.7664 
       0.852925          81.891         26.3166 
       0.859047         80.9789         25.8762 
       0.865192         80.3873         25.4445 
       0.871341         79.8235         25.0224 
       0.877463         78.9405         24.6119 
       0.883569         78.8922         24.2116 
       0.889708         78.1318         23.8182 
       0.895864         77.2183         23.4325 
       0.902008         76.3119         23.0563 
       0.908149         75.5662         22.6885 
       0.914301         75.1294         22.3282 
       0.920448         75.1454         21.9761 
       0.926574         73.6729         21.6329 
       0.932687         73.5035         21.2977 
       0.938823         73.0776         20.9685 
       0.944975         72.4623         20.6455 
       0.951105         71.7331         20.3305 
       0.957225         71.2899         20.0226 
       0.963368         70.6554         19.7201 
       0.969511         70.2173         19.4238 
       0.975621         69.1083         19.1353 
       0.981748         69.0289         18.8518 
       0.987916         68.3793         18.5724 
        0.99406         68.0721         18.2997 
        1.00019         67.5008         18.0331 
        1.00632          66.838          17.772 
        1.01246         66.4823         17.5157 
        1.01859         66.0526         17.2649 
        1.02471         65.7026         17.0193 
        1.03085         65.0671         16.7777 
        1.03698          64.528         16.5412 
        1.04314         64.1908         16.3084 
        1.04929         63.9007         16.0806 
        1.05541          63.226          15.858 
        1.06154         62.6864         15.6392 
        1.06769         62.2746         15.4241 
        1.07382         61.9414         15.2138 
        1.07993         61.7198         15.0079 
        1.08607         61.2736          14.805 
        1.09222         60.7607         14.6056 
        1.09836         60.3637         14.4102 
        1.10449         59.9744         14.2185 
        1.11063         59.5474         14.0301 
        1.11677         59.4019         13.8452 
         1.1229         58.6338          13.664 
        1.12903         58.3163         13.4858 
        1.13518         57.8437         13.3107 
        1.14131         57.6743         13.1388 
        1.14745         57.4123         12.9701 
        1.15359         56.8251         12.8043 
        1.15973         56.6448         12.6413 
        1.16584         56.2893         12.4819 
        1.17197           55.89          12.325 
        1.17811         55.5705         12.1703 
        1.18424         55.0523         12.0188 
        1.19038         54.8584         11.8694 
        1.19652         54.6585         11.7226 
        1.20267           54.12         11.5783 
        1.20881         53.7353         11.4364 
        1.21495         53.5412         11.2972 
        1.22108         53.2804         11.1603 
         1.2272         53.0616          11.026 
        1.23334         52.7775         10.8936 
        1.23949         52.2433          10.763 
        1.24562         51.9157          10.635 
        1.25174         51.9106         10.5093 
        1.25789         51.5031         10.3852 
        1.26402          51.099         10.2633 
        1.27014           50.77         10.1437 
        1.27628         50.5778         10.0256 
        1.28244         50.5063          9.9092 
        1.28858         50.1349          9.7948 
        1.29471         49.7156         9.68246 
        1.30084         49.4279         9.57198 
        1.30697         49.1644         9.46307 
        1.31312         49.0627         9.35569 
        1.31925         48.5674         9.25032 
        1.32537         48.3463         9.14668 
        1.33151         48.2611         9.04426 
        1.33765         47.8519         8.94346 
        1.34378         47.6302          8.8444 
        1.34992         47.3498         8.74677 
        1.35606         47.1911          8.6504 
         1.3622          46.863         8.55565 
        1.36833         46.6315         8.46255 
        1.37445         46.3908         8.37088 
        1.38059         46.0873         8.28029 
        1.38675          45.887         8.19082 
        1.39288         45.6656         8.10303 
        1.39901         45.3921         8.01657 
        1.40515         45.0766         7.93118 
         1.4113         44.9692         7.84707 
        1.41742         44.7203         7.76449 
        1.42355         44.5281         7.68296 
         1.4297         44.2885         7.60235 
        1.43585         44.2544         7.52293 
        1.44198         43.7817         7.44494 
        1.44809         43.5289         7.36822 
        1.45423         43.5028         7.29229 
        1.46036         43.2234         7.21756 
        1.46649         42.9217         7.14387 
        1.47263         42.6699         7.07114 
        1.47877         42.4945         6.99946 
        1.48491         42.1859         6.92865 
        1.49104         42.1619         6.85898 
        1.49718         41.8313         6.79022 
        1.50333         41.7235         6.72229 
        1.50947          41.493         6.65543 
         1.5156         41.3558         6.58958 
        1.52172         41.0531         6.52461 
        1.52787         40.9381          6.4604 
          1.534         40.6821         6.39712 
        1.54013         40.5857         6.33476 
        1.54627         40.2509         6.27311 
        1.55241         40.1906         6.21228 
        1.55855         39.9289         6.15233 
        1.56467         39.5675         6.09334 
         1.5708         39.6502         6.03495 
        1.57695         39.3189         5.97724 
        1.58308         39.2301         5.92042 
        1.58922         38.9405          5.8643 
        1.59535          38.947         5.80892 
         1.6015         38.7358         5.75419 
        1.60764         38.5491         5.70018 
        1.61376         38.3352         5.64701 
        1.61989         38.0513         5.59448 
        1.62604         37.9214         5.54251 
        1.63218         37.7503         5.49122 
        1.63831           37.58          5.4407 
        1.64444         37.4386          5.3908 
        1.65059         37.2618          5.3414 
        1.65673         37.0881         5.29268 
        1.66285         36.8909          5.2447 
        1.66898         36.7064          5.1973 
        1.67512         36.5001          5.1504 
        1.68127         36.4462         5.10403 
         1.6874         36.3171         5.05833 
        1.69353         36.1063         5.01322 
        1.69967         35.9278         4.96856 
        1.70581          35.813         4.92446 
        1.71193         35.5178         4.88106 
        1.71806         35.4598         4.83809 
        1.72421         35.2226         4.79555 
        1.73035         35.1766         4.75357 
        1.73649         34.9718         4.71211 
        1.74262         34.8123         4.67117 
        1.74876         34.7437         4.63069 
        1.75489         34.5669         4.59077 
        1.76101         34.4508         4.55134 
        1.76715         34.2921         4.51231 
        1.77329         34.1234          4.4737 
        1.77943         33.9345         4.43552 
        1.78557         33.8572         4.39784 
        1.79171         33.6129         4.36058 
        1.79785         33.5202         4.32376 
        1.80399         33.3756         4.28736 
        1.81012         33.1897         4.25143 
        1.81625          33.097         4.21593 
        1.82239         32.8978         4.18078 
        1.82853         32.8072         4.14605 
        1.83466         32.6126         4.11175 
        1.84078         32.4954         4.07786 
        1.84692         32.3925         4.04431 
        1.85306         32.2649         4.01109 
         1.8592         32.0309          3.9783 
        1.86533         31.9729         3.94589 
        1.87147         31.7751         3.91381 
        1.87761         31.7004         3.88206 
        1.88375         31.5193         3.85071 
        1.88988          31.387         3.81974 
        1.89601         31.3202         3.78909 
        1.90215         31.1533         3.75875 
        1.90829         31.0393         3.72876 
        1.91442         30.8943         3.69909 
        1.92056         30.7247         3.66977 
         1.9267         30.6154         3.64074 
        1.93284         30.5406         3.61201 
        1.93897         30.3562         3.58364 
        1.94509          30.286         3.55563 
        1.95123         30.1512         3.52785 
        1.95737         30.0171         3.50035 
        1.96349         29.9249         3.47322 
        1.96964         29.8328         3.44629 
        1.97578         29.6547         3.41964 
        1.98192         29.5263         3.39332 
        1.98805         29.3822         3.36727 
        1.99419         29.2601          3.3415 
        2.00033         29.1273         3.31599 
        2.00647         29.0166         3.29074 
         2.0126         28.9437         3.26581 
        2.01874         28.8261         3.24109 
        2.02488         28.6695         3.21661 
        2.03101         28.5902         3.19242 
        2.03714         28.4981         3.16851 
        2.04328         28.4179         3.14481 
        2.04941         28.1851         3.12137 
        2.05554         28.0846         3.09819 
        2.06167         27.9671         3.07522 
        2.06781          27.895         3.05247 
        2.07396         27.7705         3.02992 
        2.08009         27.6629         3.00764 
        2.08622         27.5616          2.9856 
        2.09237         27.4668         2.96374 
        2.09851         27.2963          2.9421 
        2.10464         27.2511         2.92071 
        2.11077         27.1355         2.89956 
        2.11691         27.0026         2.87856 
        2.12305          26.867         2.85778 
        2.12918         26.8142         2.83725 
        2.13531         26.5913         2.81692 
        2.14145         26.5845         2.79674 
         2.1476         26.4705         2.77674 
        2.15372         26.3801         2.75703 
        2.15985         26.2302         2.73749 
        2.16599         26.1179         2.71809 
        2.17213         26.1004         2.69889 
        2.17827         25.9617         2.67989 
         2.1844         25.8406         2.66108 
        2.19054         25.8055         2.64245 
        2.19666         25.6426         2.62402 
         2.2028         25.5382         2.60576 
        2.20893         25.4334         2.58765 
        2.21508         25.3498          2.5697 
        2.22122         25.2354         2.55191 
        2.22736         25.1121         2.53433 
        2.23349         25.0587         2.51692 
        2.23962         25.0021         2.49966 
        2.24577         24.8819         2.48254 
         2.2519         24.7936         2.46561 
        2.25802         24.6373         2.44887 
        2.26417         24.4943         2.43223 
        2.27031         24.4463         2.41574 
        2.27644         24.3613         2.39944 
        2.28257         24.3121          2.3833 
        2.28872         24.1749         2.36727 
        2.29486         24.1098         2.35139 
        2.30099         24.0338         2.33569 
        2.30712          23.906         2.32013 
        2.31326         23.8257         2.30468 
         2.3194         23.7091         2.28939 
        2.32553         23.6735         2.27425 
        2.33166         23.5422         2.25926 
         2.3378         23.4804         2.24439 
        2.34394         23.3537         2.22964 
        2.35007          23.257         2.21505 
        2.35619         23.1835          2.2006 
        2.36233         23.1054         2.18625 
        2.36848         23.0466           2.172 
        2.37462         23.0082          2.1579 
        2.38075         22.8404         2.14394 
        2.38689         22.7435          2.1301 
        2.39303         22.6577         2.11637 
        2.39916         22.5988         2.10279 
        2.40529          22.533         2.08932 
        2.41143         22.4517         2.07596 
        2.41757         22.3449         2.06271 
         2.4237         22.2568          2.0496 
        2.42983         22.1292         2.03661 
        2.43598         22.0569          2.0237 
        2.44211         21.9639         2.01091 
        2.44823         21.9098         1.99827 
        2.45437         21.8276          1.9857 
        2.46052         21.7646         1.97323 
        2.46665         21.6598         1.96089 
        2.47279         21.5513         1.94865 
        2.47892         21.5596         1.93651 
        2.48507         21.3978         1.92447 
         2.4912         21.3273         1.91255 
