# k  (h/Mpc)    P(k)  (Mpc/h)^3    P_linear(k)  (Mpc/h)^3
     0.00783031         2656.97         2686.46 
       0.013688         2866.81         2907.79 
       0.019231         2597.15          2612.9 
      0.0249154          2144.7         2136.22 
      0.0312784          1627.4         1622.92 
      0.0375637         1246.15         1246.01 
      0.0433917         1029.65         1024.33 
      0.0492413         898.243         897.014 
      0.0555754         826.374         821.768 
      0.0619321         760.725         767.068 
       0.067871         706.404         706.747 
      0.0738098         629.402         628.422 
      0.0800417         537.747         534.345 
      0.0862327          447.06         444.739 
      0.0921407         378.252         375.423 
      0.0982031         330.997         326.064 
       0.104506         297.559         296.224 
       0.110769         283.055         281.413 
       0.116806         275.886         272.899 
       0.122832         263.755         262.837 
       0.129052         248.339         246.417 
       0.135211         227.334         223.954 
       0.141259         201.598          199.03 
       0.147318         177.391         175.381 
       0.153489         158.825         155.902 
       0.159709         146.087         142.283 
       0.165845         135.978         134.153 
       0.171974         133.209         129.473 
       0.178125         128.973          125.96 
       0.184229         123.679         121.707 
        0.19034         118.508         115.643 
       0.196428         110.924         107.865 
       0.202534         100.991         99.2184 
       0.208729         94.1793         90.7865 
       0.214876          87.734          83.713 
       0.220989         81.2851         78.3749 
       0.227147         78.4021         74.5923 
        0.23329         75.5593         71.9127 
       0.239377         73.5111         69.6948 
       0.245482          70.683          67.349 
       0.251667         67.2976         64.5188 
       0.257832         65.0253         61.2167 
       0.263955         60.7565         57.6918 
       0.270079         57.2823          54.241 
        0.27624         54.0881         51.1324 
       0.282372         51.6693         48.5542 
        0.28843         50.2604         46.5043 
       0.294538         48.2263         44.8245 
       0.300721         46.2703         43.3309 
        0.30691         45.2017         41.8735 
       0.313033         43.3999         40.3501 
       0.319153         42.2355         38.7264 
       0.325316         40.1039         37.0277 
        0.33145         38.3306          35.364 
       0.337538          36.822          33.817 
       0.343633         35.6247          32.431 
       0.349808         34.2586         31.1997 
       0.355968         33.0922         30.1218 
       0.362074         32.3915         29.1518 
       0.368217         31.3192         28.2214 
       0.374374         30.5007         27.2997 
       0.380519         29.2495         26.3688 
       0.386598         28.2496         25.4458 
       0.392688         27.2305         24.5374 
        0.39888         26.5904         23.6516 
       0.405048          25.825         22.8284 
       0.411186         24.9878         22.0738 
       0.417313         24.2263         21.3789 
       0.423458         23.4324         20.7312 
       0.429607              23         20.1161 
       0.435692         22.5384         19.5257 
       0.441815         21.6543          18.944 
       0.447964          20.917          18.371 
       0.454126          20.508         17.8093 
       0.460267         20.1657         17.2686 
       0.466387         19.5222         16.7549 
        0.47254         19.1559         16.2656 
       0.478662         18.5173         15.8045 
       0.484765          18.065         15.3691 
       0.490885         17.4963         14.9527 
       0.497035          17.131         14.5498 
       0.503198         16.7986         14.1579 
       0.509342         16.2611          13.778 
       0.515458         15.9753         13.4112 
       0.521598         15.5947         13.0547 
       0.527764         15.3082         12.7091 
       0.533884         14.8796         12.3793 
           0.54         14.5902         12.0634 
       0.546137         14.1349         11.7598 
       0.552299         13.8529         11.4668 
       0.558452         13.5108         11.1847 
       0.564573         13.3176         10.9129 
       0.570708         12.9995         10.6487 
       0.576825         12.7669         10.3934 
       0.582926         12.4886         10.1468 
       0.589034         12.2206         9.90766 
       0.595184         12.0563         9.67468 
       0.601379         11.7182         9.44779 
       0.607522         11.4673         9.23031 
       0.613639         11.2559         9.02105 
       0.619772         11.0404         8.81818 
       0.625918          10.815         8.62138 
       0.632068         10.6688         8.43052 
       0.638161         10.4383         8.24698 
         0.6443         10.2426         8.06733 
       0.650464         9.98204          7.8922 
       0.656582         9.89003         7.72343 
       0.662703         9.72331         7.55957 
       0.668861         9.46619         7.39966 
       0.675024         9.29733         7.24443 
       0.681124         9.27031         7.09536 
       0.687237         9.05286         6.95029 
       0.693381         8.82198         6.80865 
       0.699536         8.75791         6.67073 
       0.705665         8.56561         6.53718 
       0.711789         8.40732         6.40737 
       0.717957         8.22236         6.28017 
        0.72409         8.13111         6.15712 
       0.730186         8.07354         6.03813 
       0.736317          7.8743         5.92165 
       0.742472         7.78221         5.80786 
       0.748622         7.64292         5.69721 
        0.75476         7.44135         5.58971 
       0.760888         7.39652         5.48518 
       0.767043         7.23633         5.38294 
       0.773185         7.13755         5.28353 
       0.779291         7.07803         5.18721 
       0.785407         6.94343         5.09316 
       0.791564         6.84902         5.00085 
       0.797719         6.70334         4.91088 
       0.803834         6.65963          4.8237 
       0.809972          6.5177         4.73833 
       0.816124          6.4417         4.65484 
       0.822261         6.35275          4.5736 
       0.828378         6.26738         4.49455 
       0.834502         6.18232         4.41731 
       0.840667         6.10461          4.3414 
       0.846816         5.96583         4.26749 
       0.852925         5.93137         4.19578 
       0.859047         5.83186         4.12557 
       0.865192         5.74803         4.05674 
       0.871341         5.67256         3.98944 
       0.877463         5.58646         3.92399 
       0.883569         5.53822         3.86017 
       0.889708         5.44251         3.79745 
       0.895864         5.37019         3.73596 
       0.902008         5.29779         3.67597 
       0.908149         5.21687         3.61734 
       0.914301         5.15927          3.5599 
       0.920448         5.10351         3.50376 
       0.926574          5.0608         3.44903 
       0.932687         4.96837          3.3956 
       0.938823         4.88776         3.34311 
       0.944975         4.86435         3.29161 
       0.951105         4.77519         3.24138 
       0.957225         4.74583          3.1923 
       0.963368         4.66968         3.14406 
       0.969511         4.61243         3.09683 
       0.975621         4.55699         3.05082 
       0.981748         4.49048         3.00564 
       0.987916         4.44633         2.96109 
        0.99406         4.39896         2.91761 
        1.00019         4.35312          2.8751 
        1.00632         4.31503         2.83347 
        1.01246         4.24779         2.79261 
        1.01859          4.2023         2.75262 
        1.02471           4.139         2.71347 
        1.03085         4.10967         2.67494 
        1.03698         4.06219         2.63725 
        1.04314          4.0119         2.60012 
        1.04929         3.95995          2.5638 
        1.05541         3.91615         2.52832 
        1.06154         3.87932         2.49343 
        1.06769          3.8555         2.45914 
        1.07382         3.78735         2.42561 
        1.07993         3.74814         2.39279 
        1.08607         3.72145         2.36043 
        1.09222         3.67159         2.32864 
        1.09836         3.65305         2.29748 
        1.10449         3.58503         2.26692 
        1.11063         3.56615         2.23689 
        1.11677         3.53203         2.20741 
         1.1229         3.49367         2.17851 
        1.12903          3.4615         2.15011 
        1.13518         3.41362         2.12219 
        1.14131         3.38053         2.09479 
        1.14745         3.33662         2.06788 
        1.15359         3.29874         2.04144 
        1.15973         3.26897         2.01546 
        1.16584         3.24538         1.99004 
        1.17197         3.20264         1.96503 
        1.17811         3.17325         1.94037 
        1.18424         3.14419         1.91621 
        1.19038         3.12237         1.89239 
        1.19652         3.08934         1.86899 
        1.20267         3.06417         1.84598 
        1.20881         3.02637         1.82336 
        1.21495         3.00057         1.80116 
        1.22108         2.96879         1.77934 
         1.2272         2.93642         1.75792 
        1.23334         2.92415         1.73682 
        1.23949         2.88418           1.716 
        1.24562         2.86451         1.69559 
        1.25174         2.84693         1.67554 
        1.25789         2.80032         1.65576 
        1.26402         2.78306         1.63633 
        1.27014         2.76139         1.61726 
        1.27628         2.72913         1.59843 
        1.28244         2.71204         1.57987 
        1.28858         2.68967         1.56163 
        1.29471         2.65445         1.54372 
        1.30084         2.63136         1.52611 
        1.30697         2.61892         1.50874 
        1.31312         2.59051         1.49162 
        1.31925          2.5663         1.47482 
        1.32537         2.54875          1.4583 
        1.33151         2.52046         1.44197 
        1.33765         2.49972          1.4259 
        1.34378         2.49031         1.41011 
        1.34992         2.46595         1.39454 
        1.35606         2.44444         1.37918 
         1.3622         2.42127         1.36407 
        1.36833           2.399         1.34923 
        1.37445         2.37315         1.33461 
        1.38059         2.35216         1.32017 
        1.38675         2.33489          1.3059 
        1.39288         2.32635         1.29191 
        1.39901         2.29637         1.27812 
        1.40515         2.28347         1.26451 
         1.4113         2.26362          1.2511 
        1.41742         2.24695         1.23793 
        1.42355         2.22623         1.22493 
         1.4297         2.20708         1.21208 
        1.43585         2.19591         1.19942 
        1.44198         2.17361         1.18698 
        1.44809         2.15847         1.17475 
        1.45423         2.14104         1.16265 
        1.46036         2.12746         1.15073 
        1.46649          2.1078         1.13898 
        1.47263         2.09576         1.12739 
        1.47877         2.07941         1.11596 
        1.48491         2.06077         1.10467 
        1.49104         2.04666         1.09356 
        1.49718         2.03341          1.0826 
        1.50333         2.01217         1.07177 
        1.50947         1.99784         1.06111 
         1.5156         1.98607         1.05061 
        1.52172         1.96842         1.04025 
        1.52787         1.95772         1.03001 
          1.534         1.94243         1.01993 
        1.54013         1.93139         1.00998 
        1.54627         1.90911         1.00015 
        1.55241         1.89728        0.990455 
        1.55855         1.88644        0.980898 
        1.56467         1.87695        0.971492 
         1.5708         1.85632        0.962184 
        1.57695         1.83993        0.952983 
        1.58308         1.82604        0.943923 
        1.58922         1.82231        0.934975 
        1.59535         1.80613        0.926147 
         1.6015         1.78937         0.91742 
        1.60764         1.78345        0.908809 
        1.61376         1.76414        0.900333 
        1.61989         1.75114        0.891958 
        1.62604         1.74062         0.88367 
        1.63218          1.7308        0.875494 
        1.63831         1.72062        0.867439 
        1.64444         1.70548        0.859483 
        1.65059         1.69918        0.851608 
        1.65673         1.68202         0.84384 
        1.66285         1.67133         0.83619 
        1.66898         1.65963        0.828633 
        1.67512         1.64846        0.821155 
        1.68127         1.63777        0.813762 
         1.6874         1.62832        0.806476 
        1.69353         1.61533        0.799284 
        1.69967         1.60257        0.792163 
        1.70581         1.59629        0.785132 
        1.71193          1.5789        0.778212 
        1.71806         1.57519        0.771362 
        1.72421         1.56595         0.76458 
        1.73035         1.55155        0.757887 
        1.73649         1.54381        0.751276 
        1.74262         1.53424        0.744749 
        1.74876         1.52482        0.738295 
        1.75489         1.51247        0.731931 
        1.76101         1.50133        0.725644 
        1.76715         1.49818        0.719422 
        1.77329         1.48517        0.713265 
        1.77943         1.47449        0.707178 
        1.78557         1.46706         0.70117 
        1.79171         1.45689        0.695231 
        1.79785         1.45096         0.68936 
        1.80399          1.4393        0.683557 
        1.81012         1.43239        0.677829 
        1.81625         1.41887        0.672169 
        1.82239         1.41407        0.666565 
        1.82853         1.40594        0.661027 
        1.83466          1.3928        0.655558 
        1.84078          1.3844        0.650156 
        1.84692         1.37568        0.644806 
        1.85306         1.36918         0.63951 
         1.8592         1.36042        0.634282 
        1.86533         1.35522        0.629115 
        1.87147           1.348        0.623999 
        1.87761         1.33969        0.618939 
        1.88375         1.32926         0.61394 
        1.88988         1.32146        0.609002 
        1.89601         1.31207        0.604115 
        1.90215         1.30503        0.599278 
        1.90829         1.30049        0.594496 
        1.91442         1.29074        0.589766 
        1.92056         1.28526        0.585092 
         1.9267         1.27707        0.580463 
        1.93284            1.27        0.575882 
        1.93897         1.26112        0.571359 
        1.94509         1.24981        0.566894 
        1.95123         1.24847        0.562465 
        1.95737         1.24239        0.558081 
        1.96349         1.23337        0.553754 
        1.96964         1.22781        0.549461 
        1.97578         1.21958        0.545212 
        1.98192         1.20934        0.541016 
        1.98805         1.20474        0.536863 
        1.99419         1.19719        0.532754 
        2.00033            1.19        0.528686 
        2.00647         1.18682        0.524662 
         2.0126         1.18024        0.520686 
        2.01874         1.17124        0.516745 
        2.02488         1.16875        0.512842 
        2.03101         1.15887        0.508986 
        2.03714         1.15413        0.505173 
        2.04328         1.14763        0.501395 
        2.04941         1.14091        0.497658 
        2.05554         1.13369        0.493963 
        2.06167         1.12953        0.490299 
        2.06781         1.12227        0.486673 
        2.07396         1.11721        0.483077 
        2.08009          1.1124        0.479525 
        2.08622         1.10572        0.476011 
        2.09237         1.10116        0.472527 
        2.09851         1.09302        0.469076 
        2.10464         1.08671        0.465665 
        2.11077         1.08314        0.462293 
        2.11691         1.07554        0.458946 
        2.12305         1.07004        0.455632 
        2.12918         1.06451        0.452359 
        2.13531         1.06081        0.449118 
        2.14145          1.0544        0.445901 
         2.1476         1.04549        0.442711 
        2.15372           1.042        0.439569 
        2.15985         1.03693        0.436454 
        2.16599          1.0324        0.433361 
        2.17213         1.02787          0.4303 
        2.17827         1.02143         0.42727 
         2.1844         1.01657        0.424272 
        2.19054         1.01035        0.421301 
        2.19666         1.00707        0.418363 
         2.2028        0.999735        0.415451 
        2.20893        0.997784        0.412565 
        2.21508         0.99141        0.409702 
        2.22122        0.985357        0.406866 
        2.22736        0.980545        0.404063 
        2.23349        0.975865        0.401287 
        2.23962        0.973297        0.398535 
        2.24577        0.967506        0.395806 
         2.2519        0.963534        0.393107 
        2.25802        0.957605        0.390438 
        2.26417        0.952853        0.387785 
        2.27031        0.948637        0.385155 
        2.27644        0.943003        0.382557 
        2.28257        0.939134        0.379983 
        2.28872        0.934889        0.377428 
        2.29486        0.929471        0.374896 
        2.30099        0.925565        0.372393 
        2.30712        0.922014        0.369912 
        2.31326        0.917679        0.367449 
         2.3194        0.912718         0.36501 
        2.32553          0.9084        0.362598 
        2.33166         0.90404        0.360208 
         2.3378        0.901456        0.357836 
        2.34394        0.894343        0.355485 
        2.35007        0.890531        0.353158 
        2.35619        0.888043        0.350855 
        2.36233        0.883788        0.348567 
        2.36848        0.879509        0.346294 
        2.37462        0.875241        0.344047 
        2.38075        0.871922        0.341822 
        2.38689        0.868311        0.339614 
        2.39303        0.863191        0.337426 
        2.39916        0.861288         0.33526 
        2.40529         0.85486        0.333113 
        2.41143        0.851185        0.330983 
        2.41757        0.847962        0.328871 
         2.4237        0.843188        0.326781 
        2.42983        0.840226        0.324709 
        2.43598        0.836902         0.32265 
        2.44211        0.831975        0.320612 
        2.44823        0.828346        0.318596 
        2.45437        0.825373        0.316592 
        2.46052        0.822082        0.314604 
        2.46665        0.818527        0.312636 
        2.47279        0.814654        0.310686 
        2.47892        0.812033         0.30875 
        2.48507         0.80742         0.30683 
         2.4912        0.804847        0.304929 
