# k  (h/Mpc)    P(k)  (Mpc/h)^3    P_linear(k)  (Mpc/h)^3
     0.00783031         2115.01         2142.63 
       0.013688         2413.79         2416.29 
       0.019231         2243.65         2241.99 
      0.0249154         1872.69         1883.28 
      0.0312784         1464.34         1462.47 
      0.0375637         1141.16         1134.42 
      0.0433917         933.195          931.99 
      0.0492413         814.037         811.251 
      0.0555754         736.756         739.857 
      0.0619321         697.308         693.234 
       0.067871         643.873         646.326 
      0.0738098         582.136         584.441 
      0.0800417         502.985         505.737 
      0.0862327         425.965         425.609 
      0.0921407         361.732         359.358 
      0.0982031         310.009         308.862 
       0.104506         280.159         276.024 
       0.110769         262.051          258.99 
       0.116806         251.868         250.743 
       0.122832         245.558         243.791 
       0.129052         232.513         232.618 
       0.135211         215.569          215.47 
       0.141259         195.929         194.155 
       0.147318         174.641         171.796 
       0.153489         154.146         151.604 
       0.159709         139.215         136.208 
       0.165845         130.253         126.359 
       0.171974         123.339         120.813 
       0.178125         120.267         117.688 
       0.184229         117.374         114.955 
        0.19034         111.899         110.982 
       0.196428         107.021         105.106 
       0.202534         100.627         97.6039 
       0.208729         92.0516         89.3709 
       0.214876         84.2218           81.75 
       0.220989         78.7684         75.5493 
       0.227147         73.6788         71.0092 
        0.23329         70.5689         67.9996 
       0.239377         68.7205         65.9879 
       0.245482         66.0361         64.2892 
       0.251667         64.6925         62.3247 
       0.257832         62.0834         59.7995 
       0.263955         59.0872         56.7306 
       0.270079          55.796         53.3628 
        0.27624         53.0591         50.0311 
       0.282372         50.2743         47.0934 
        0.28843         47.6269         44.7286 
       0.294538          45.627         42.8907 
       0.300721         44.5035         41.4626 
        0.30691         42.8368         40.2545 
       0.313033         41.5744          39.078 
       0.319153         39.7391         37.7763 
       0.325316         38.8985         36.2998 
        0.33145         37.1317         34.7054 
       0.337538         35.7247         33.1055 
       0.343633         34.0702         31.5941 
       0.349808         32.8593          30.234 
       0.355968         31.7605         29.0838 
       0.362074         30.6876         28.1195 
       0.368217         29.7543         27.2765 
       0.374374         28.8325         26.4854 
       0.380519         28.1204         25.6928 
       0.386598          27.306         24.8774 
       0.392688         26.5898         24.0218 
        0.39888         25.6239         23.1414 
       0.405048         24.8346         22.2865 
       0.411186          24.073         21.4871 
       0.417313         23.2354         20.7639 
       0.423458         22.5728          20.113 
       0.429607          21.931         19.5223 
       0.435692         21.2584          18.981 
       0.441815         20.7937         18.4572 
       0.447964         20.3744         17.9333 
       0.454126         19.5782         17.4067 
       0.460267          19.167         16.8835 
       0.466387         18.5317         16.3691 
        0.47254           18.14         15.8695 
       0.478662          17.769         15.4007 
       0.484765         17.1692         14.9652 
       0.490885         16.7559         14.5565 
       0.497035         16.5112         14.1699 
       0.503198         16.0315         13.8014 
       0.509342          15.619         13.4464 
       0.515458          15.236         13.0991 
       0.521598         14.9226         12.7547 
       0.527764         14.5385         12.4157 
       0.533884         14.2834         12.0893 
           0.54         13.9137         11.7754 
       0.546137         13.6501         11.4733 
       0.552299         13.3778         11.1836 
       0.558452         12.9586         10.9082 
       0.564573         12.7444         10.6466 
       0.570708          12.487         10.3942 
       0.576825         12.1671           10.15 
       0.582926         11.9137         9.91173 
       0.589034         11.5844         9.67846 
       0.595184         11.4085         9.44983 
       0.601379         11.1385         9.22672 
       0.607522         10.9504         9.01325 
       0.613639         10.7916         8.80833 
       0.619772         10.4902         8.61001 
       0.625918         10.3965         8.41794 
       0.632068         10.2239         8.23195 
       0.638161         9.95751         8.05338 
         0.6443         9.74916         7.87888 
       0.650464         9.54147         7.70886 
       0.656582         9.46165          7.5449 
       0.662703         9.26954         7.38541 
       0.668861         9.08135         7.22935 
       0.675024         8.89762         7.07749 
       0.681124         8.73689         6.93146 
       0.687237         8.58693          6.7893 
       0.693381          8.4655          6.6506 
       0.699536         8.23083         6.51575 
       0.705665         8.14769         6.38541 
       0.711789         7.98431         6.25889 
       0.717957         7.84228         6.13501 
        0.72409          7.7086          6.0152 
       0.730186         7.59798         5.89928 
       0.736317         7.50315         5.78572 
       0.742472         7.37396         5.67466 
       0.748622         7.25569         5.56658 
        0.75476         7.10808          5.4615 
       0.760888         6.99496         5.35929 
       0.767043         6.90003         5.25928 
       0.773185         6.76042         5.16205 
       0.779291         6.70132         5.06785 
       0.785407         6.59884         4.97589 
       0.791564         6.48947         4.88565 
       0.797719         6.35056         4.79772 
       0.803834         6.31643         4.71252 
       0.809972         6.23728          4.6291 
       0.816124          6.1005         4.54753 
       0.822261         5.99757         4.46815 
       0.828378         5.92481         4.39091 
       0.834502         5.87194         4.31544 
       0.840667         5.75635         4.24126 
       0.846816         5.64887         4.16904 
       0.852925         5.59645         4.09896 
       0.859047         5.51599         4.03035 
       0.865192         5.46292         3.96309 
       0.871341         5.39584         3.89732 
       0.877463         5.30509         3.83334 
       0.883569         5.21771         3.77096 
       0.889708         5.12829         3.70966 
       0.895864          5.0636         3.64956 
       0.902008         5.01627         3.59092 
       0.908149         4.96031         3.53361 
       0.914301         4.88807         3.47746 
       0.920448         4.81104         3.42258 
       0.926574         4.74582         3.36908 
       0.932687         4.68754         3.31684 
       0.938823         4.62619         3.26552 
       0.944975         4.56603         3.21517 
       0.951105         4.51232         3.16607 
       0.957225         4.48661         3.11807 
       0.963368          4.4248         3.07091 
       0.969511         4.36287         3.02473 
       0.975621          4.3062         2.97974 
       0.981748          4.2535         2.93556 
       0.987916         4.21284         2.89199 
        0.99406         4.13848         2.84947 
        1.00019          4.0805         2.80789 
        1.00632         4.05756         2.76718 
        1.01246         4.00521         2.72722 
        1.01859          3.9451         2.68811 
        1.02471         3.91111         2.64981 
        1.03085         3.85985         2.61213 
        1.03698         3.80594         2.57527 
        1.04314         3.77332         2.53895 
        1.04929         3.72807         2.50343 
        1.05541         3.68086         2.46873 
        1.06154         3.64622          2.4346 
        1.06769         3.62603         2.40106 
        1.07382         3.56366         2.36826 
        1.07993         3.51929         2.33616 
        1.08607          3.4987         2.30451 
        1.09222         3.45408         2.27342 
        1.09836         3.41412         2.24295 
        1.10449         3.38334         2.21306 
        1.11063         3.33725         2.18369 
        1.11677         3.31365         2.15486 
         1.1229         3.28253          2.1266 
        1.12903         3.23683         2.09883 
        1.13518         3.20043         2.07153 
        1.14131           3.165         2.04473 
        1.14745         3.12416         2.01842 
        1.15359         3.10503         1.99257 
        1.15973         3.06433         1.96716 
        1.16584         3.03251          1.9423 
        1.17197         3.00277         1.91784 
        1.17811         2.98625         1.89373 
        1.18424         2.94997          1.8701 
        1.19038         2.93141         1.84681 
        1.19652          2.8944         1.82392 
        1.20267         2.86478         1.80142 
        1.20881         2.84555         1.77931 
        1.21495         2.81526          1.7576 
        1.22108          2.7846         1.73625 
         1.2272         2.76254         1.71531 
        1.23334          2.7272         1.69467 
        1.23949         2.69942         1.67431 
        1.24562         2.68149         1.65435 
        1.25174          2.6526         1.63474 
        1.25789         2.63167         1.61539 
        1.26402         2.60916         1.59638 
        1.27014         2.58268         1.57773 
        1.27628         2.56037         1.55932 
        1.28244         2.52842         1.54117 
        1.28858         2.51846         1.52333 
        1.29471         2.48416         1.50581 
        1.30084         2.45885         1.48859 
        1.30697         2.45492         1.47161 
        1.31312         2.41113         1.45486 
        1.31925         2.39318         1.43844 
        1.32537         2.37169         1.42228 
        1.33151         2.36189         1.40631 
        1.33765          2.3299         1.39059 
        1.34378         2.31683         1.37515 
        1.34992         2.29977         1.35993 
        1.35606         2.26632         1.34491 
         1.3622         2.25712         1.33014 
        1.36833          2.2337         1.31562 
        1.37445         2.21404         1.30134 
        1.38059         2.20702         1.28722 
        1.38675         2.18752         1.27327 
        1.39288         2.16872         1.25959 
        1.39901         2.14031         1.24611 
        1.40515         2.12558          1.2328 
         1.4113         2.11034         1.21969 
        1.41742         2.09295         1.20682 
        1.42355         2.07477         1.19412 
         1.4297         2.05908         1.18155 
        1.43585         2.04588         1.16917 
        1.44198         2.03198         1.15702 
        1.44809          2.0107         1.14506 
        1.45423          1.9939         1.13323 
        1.46036         1.97443         1.12158 
        1.46649         1.96357         1.11009 
        1.47263         1.94385         1.09876 
        1.47877         1.92905         1.08758 
        1.48491         1.91453         1.07655 
        1.49104         1.90171         1.06569 
        1.49718         1.88626         1.05497 
        1.50333         1.87352         1.04439 
        1.50947          1.8559         1.03397 
         1.5156          1.8425          1.0237 
        1.52172          1.8289         1.01358 
        1.52787          1.8157         1.00357 
          1.534         1.79834        0.993709 
        1.54013         1.78759        0.983989 
        1.54627         1.77296        0.974383 
        1.55241         1.75763        0.964902 
        1.55855         1.74758        0.955561 
        1.56467         1.73646        0.946369 
         1.5708         1.72163        0.937271 
        1.57695         1.70876         0.92828 
        1.58308          1.6924        0.919426 
        1.58922         1.68625        0.910682 
        1.59535         1.67331        0.902055 
         1.6015         1.65825        0.893527 
        1.60764          1.6488        0.885113 
        1.61376         1.63841        0.876831 
        1.61989         1.62383        0.868648 
        1.62604         1.61237         0.86055 
        1.63218         1.60712        0.852561 
        1.63831         1.58999        0.844691 
        1.64444         1.58086        0.836917 
        1.65059         1.56734        0.829223 
        1.65673         1.55964        0.821633 
        1.66285         1.54613        0.814159 
        1.66898         1.53787        0.806776 
        1.67512         1.52394         0.79947 
        1.68127         1.51421        0.792247 
         1.6874         1.50939        0.785129 
        1.69353          1.4905        0.778103 
        1.69967         1.48331        0.771146 
        1.70581         1.47687        0.764277 
        1.71193         1.46369        0.757518 
        1.71806         1.45703        0.750825 
        1.72421         1.44637          0.7442 
        1.73035         1.43689        0.737663 
        1.73649         1.42675        0.731205 
        1.74262         1.41668        0.724829 
        1.74876         1.41008        0.718525 
        1.75489         1.39726        0.712308 
        1.76101         1.38714        0.706167 
        1.76715         1.38233        0.700089 
        1.77329         1.37395        0.694075 
        1.77943         1.35999        0.688129 
        1.78557         1.35197        0.682262 
        1.79171         1.34813        0.676461 
        1.79785         1.33584        0.670727 
        1.80399          1.3284         0.66506 
        1.81012         1.31943        0.659466 
        1.81625         1.31336        0.653938 
        1.82239         1.30326        0.648466 
        1.82853         1.29216        0.643058 
        1.83466          1.2866        0.637717 
        1.84078         1.28115        0.632443 
        1.84692         1.27324        0.627219 
        1.85306         1.26261        0.622048 
         1.8592         1.25406        0.616943 
        1.86533         1.24688        0.611898 
        1.87147         1.24087        0.606904 
        1.87761         1.23213        0.601963 
        1.88375         1.22471        0.597082 
        1.88988         1.21952        0.592261 
        1.89601         1.20963         0.58749 
        1.90215         1.19931        0.582768 
        1.90829         1.19233          0.5781 
        1.91442         1.18892        0.573482 
        1.92056         1.17983        0.568919 
         1.9267         1.17247          0.5644 
        1.93284         1.16987        0.559928 
        1.93897         1.16114        0.555512 
        1.94509         1.15405        0.551154 
        1.95123         1.14595        0.546831 
        1.95737         1.13814        0.542551 
        1.96349         1.13414        0.538328 
        1.96964          1.1286        0.534138 
        1.97578         1.11781         0.52999 
        1.98192         1.11372        0.525895 
        1.98805         1.10746        0.521842 
        1.99419         1.10312        0.517831 
        2.00033          1.0968        0.513861 
        2.00647         1.08846        0.509933 
         2.0126         1.08491        0.506053 
        2.01874         1.07504        0.502207 
        2.02488         1.07088        0.498398 
        2.03101         1.06257        0.494635 
        2.03714         1.05789        0.490914 
        2.04328          1.0524        0.487227 
        2.04941         1.04417        0.483581 
        2.05554         1.04041        0.479975 
        2.06167         1.03443          0.4764 
        2.06781         1.03067        0.472861 
        2.07396         1.02468        0.469353 
        2.08009         1.01859        0.465887 
        2.08622         1.01341        0.462459 
        2.09237         1.00566        0.459059 
        2.09851         1.00143        0.455693 
        2.10464        0.999006        0.452366 
        2.11077        0.990567        0.449076 
        2.11691        0.985439        0.445811 
        2.12305        0.981311        0.442578 
        2.12918        0.976411        0.439385 
        2.13531        0.969673        0.436224 
        2.14145        0.965422        0.433086 
         2.1476        0.958502        0.429975 
        2.15372         0.95464         0.42691 
        2.15985         0.94926        0.423872 
        2.16599        0.944397        0.420855 
        2.17213        0.936936         0.41787 
        2.17827        0.935355        0.414914 
         2.1844        0.930515         0.41199 
        2.19054        0.926405        0.409093 
        2.19666        0.920778        0.406228 
         2.2028        0.915788        0.403387 
        2.20893        0.912071        0.400572 
        2.21508        0.906706        0.397781 
        2.22122        0.900441        0.395015 
        2.22736        0.897357        0.392282 
        2.23349        0.893504        0.389574 
        2.23962        0.887017        0.386891 
        2.24577        0.884878        0.384231 
         2.2519        0.880203        0.381599 
        2.25802        0.875507        0.378996 
        2.26417         0.87138         0.37641 
        2.27031        0.867196        0.373845 
        2.27644        0.862246        0.371312 
        2.28257        0.856227        0.368802 
        2.28872         0.85437        0.366311 
        2.29486        0.848197        0.363844 
        2.30099        0.844154        0.361403 
        2.30712        0.840245        0.358985 
        2.31326        0.837129        0.356584 
         2.3194        0.834069        0.354206 
        2.32553        0.830463        0.351854 
        2.33166        0.824701        0.349524 
         2.3378        0.820348        0.347212 
        2.34394        0.815369         0.34492 
        2.35007        0.812927        0.342652 
        2.35619        0.809632        0.340407 
        2.36233        0.804166        0.338177 
        2.36848        0.801123        0.335962 
        2.37462        0.798182        0.333772 
        2.38075        0.794016        0.331603 
        2.38689        0.790896        0.329451 
        2.39303        0.785511        0.327319 
        2.39916        0.782877        0.325208 
        2.40529        0.778987        0.323116 
        2.41143        0.775048         0.32104 
        2.41757        0.772151        0.318982 
         2.4237        0.770027        0.316945 
        2.42983        0.764613        0.314927 
        2.43598        0.762015         0.31292 
        2.44211        0.758564        0.310934 
        2.44823        0.754612         0.30897 
        2.45437        0.751359        0.307018 
        2.46052        0.749186         0.30508 
        2.46665        0.744304        0.303163 
        2.47279        0.740957        0.301263 
        2.47892        0.737359        0.299377 
        2.48507        0.735533        0.297506 
         2.4912        0.729832        0.295655 
