# k  (h/Mpc)    P(k)  (Mpc/h)^3    P_linear(k)  (Mpc/h)^3
     0.00783031         107.523         108.543 
       0.013688         123.402         123.833 
       0.019231         115.467         115.385 
      0.0249154         97.1626          97.145 
      0.0312784         75.9681         75.6439 
      0.0375637         59.3026          58.959 
      0.0433917         49.0124         48.7718 
      0.0492413         42.9836          42.794 
      0.0555754         39.3949         39.3149 
      0.0619321         37.0874         36.9823 
       0.067871         34.5021          34.491 
      0.0738098         31.1349          31.131 
      0.0800417          26.886         26.8741 
      0.0862327         22.6576         22.6005 
      0.0921407          19.205         19.1301 
      0.0982031         16.6007         16.5418 
       0.104506          14.986         14.9059 
       0.110769         14.1384         14.0856 
       0.116806          13.698         13.6829 
       0.122832         13.3156          13.296 
       0.129052         12.6389         12.6413 
       0.135211         11.6549         11.6573 
       0.141259         10.4909         10.4717 
       0.147318         9.30034         9.26509 
       0.153489         8.23906         8.20716 
       0.159709          7.4545         7.42443 
       0.165845          6.9788         6.93864 
       0.171974         6.68513          6.6695 
       0.178125         6.52263           6.508 
       0.184229         6.36024         6.34527 
        0.19034          6.1003         6.10196 
       0.196428         5.76279         5.75547 
       0.202534         5.35579         5.33191 
       0.208729         4.90055         4.88474 
       0.214876         4.49497         4.48459 
       0.220989         4.19044         4.16815 
       0.227147         3.95103         3.94072 
        0.23329         3.79769         3.78884 
       0.239377         3.68861         3.68118 
       0.245482         3.58433         3.58135 
       0.251667         3.47008          3.4611 
       0.257832         3.31556         3.31057 
       0.263955          3.1432         3.13533 
       0.270079         2.96015         2.95025 
        0.27624         2.78862         2.77354 
       0.282372         2.63617         2.62119 
        0.28843            2.51          2.5002 
       0.294538         2.41415         2.40515 
       0.300721         2.34047         2.32818 
        0.30691         2.26694         2.25914 
       0.313033         2.19588         2.18925 
       0.319153         2.11144         2.11215 
       0.325316         2.03731         2.02693 
        0.33145         1.94704         1.93807 
       0.337538          1.8605         1.85156 
       0.343633         1.77779          1.7714 
       0.349808         1.70873          1.7003 
       0.355968         1.64904         1.63941 
       0.362074         1.59463         1.58745 
       0.368217         1.54698         1.54019 
       0.374374         1.49819         1.49451 
       0.380519         1.45483         1.44848 
       0.386598         1.40875         1.40126 
       0.392688         1.36246         1.35305 
        0.39888         1.31178         1.30445 
       0.405048           1.266           1.258 
       0.411186         1.22333         1.21521 
       0.417313         1.18296         1.17633 
       0.423458         1.14921         1.14082 
       0.429607         1.11425         1.10815 
       0.435692         1.08342         1.07753 
       0.441815         1.05317         1.04741 
       0.447964         1.02553         1.01744 
       0.454126        0.993247        0.987619 
       0.460267        0.963503        0.958215 
       0.466387        0.934435        0.929726 
        0.47254        0.907376        0.902416 
       0.478662        0.882928         0.87682 
       0.484765        0.857393        0.852796 
       0.490885        0.835748        0.830108 
       0.497035        0.815708        0.808486 
       0.503198        0.793426        0.787656 
       0.509342        0.774454        0.767396 
       0.515458        0.752976        0.747616 
       0.521598        0.733686        0.728218 
       0.527764        0.713404        0.709281 
       0.533884        0.697546        0.691094 
           0.54        0.679489        0.673596 
       0.546137        0.662993        0.656772 
       0.552299         0.64654        0.640659 
       0.558452        0.630098        0.625274 
       0.564573        0.616121        0.610532 
       0.570708        0.601542        0.596208 
       0.576825        0.587448        0.582297 
       0.582926         0.57479        0.568793 
       0.589034        0.559502        0.555656 
       0.595184        0.546977         0.54283 
       0.601379        0.534873        0.530324 
       0.607522        0.523685        0.518326 
       0.613639        0.512727        0.506771 
       0.619772        0.500081         0.49557 
       0.625918         0.48961        0.484722 
       0.632068        0.479672        0.474221 
       0.638161        0.469007        0.464137 
         0.6443         0.45913        0.454274 
       0.650464        0.448577        0.444647 
       0.656582        0.439947        0.435345 
       0.662703        0.430924         0.42629 
       0.668861        0.422884        0.417434 
       0.675024        0.413743        0.408824 
       0.681124        0.404568        0.400553 
       0.687237        0.397292         0.39251 
       0.693381        0.389596        0.384666 
       0.699536        0.380826        0.377033 
       0.705665        0.373453        0.369645 
       0.711789        0.367176        0.362465 
       0.717957        0.359297        0.355423 
        0.72409        0.352948        0.348604 
       0.730186        0.345772        0.342001 
       0.736317        0.340371        0.335531 
       0.742472        0.333683        0.329204 
       0.748622        0.327261        0.323046 
        0.75476         0.32076        0.317062 
       0.760888        0.314879        0.311241 
       0.767043        0.310433        0.305547 
       0.773185        0.304017         0.30001 
       0.779291        0.298606        0.294644 
       0.785407        0.293508        0.289403 
       0.791564        0.288468        0.284259 
       0.797719        0.283592        0.279244 
       0.803834        0.278856        0.274382 
       0.809972        0.273696        0.269619 
       0.816124        0.268903        0.264959 
       0.822261        0.264136        0.260422 
       0.828378        0.259975        0.256006 
       0.834502        0.255906        0.251689 
       0.840667        0.251132        0.247444 
       0.846816        0.247114         0.24331 
       0.852925        0.243645        0.239297 
       0.859047        0.239599        0.235367 
       0.865192        0.235209        0.231513 
       0.871341        0.231378        0.227744 
       0.877463        0.228287        0.224076 
       0.883569        0.224403        0.220498 
       0.889708        0.221006        0.216982 
       0.895864        0.217305        0.213533 
       0.902008        0.213957        0.210168 
       0.908149        0.210578        0.206877 
       0.914301        0.206834        0.203652 
       0.920448        0.203937        0.200499 
       0.926574        0.200773        0.197425 
       0.932687        0.197522        0.194422 
       0.938823        0.195131        0.191472 
       0.944975        0.192216        0.188576 
       0.951105        0.189359        0.185751 
       0.957225        0.186892        0.182989 
       0.963368        0.183901        0.180275 
       0.969511        0.180942        0.177615 
       0.975621        0.178379        0.175024 
       0.981748         0.17632        0.172479 
       0.987916        0.173559        0.169968 
        0.99406        0.170973        0.167517 
        1.00019        0.168796         0.16512 
        1.00632        0.166067        0.162772 
        1.01246        0.163607        0.160467 
        1.01859        0.161626         0.15821 
        1.02471        0.159399        0.155999 
        1.03085        0.157551        0.153824 
        1.03698        0.155049        0.151695 
        1.04314        0.152977        0.149597 
        1.04929        0.150764        0.147544 
        1.05541        0.149052        0.145538 
        1.06154        0.146859        0.143564 
        1.06769        0.144767        0.141625 
        1.07382        0.142947        0.139727 
        1.07993        0.140903         0.13787 
        1.08607        0.139486        0.136038 
        1.09222        0.137374        0.134238 
        1.09836        0.135934        0.132473 
        1.10449        0.134191        0.130742 
        1.11063        0.132113         0.12904 
        1.11677        0.130392        0.127369 
         1.1229        0.128878        0.125731 
        1.12903         0.12722         0.12412 
        1.13518        0.125725        0.122537 
        1.14131        0.124074        0.120982 
        1.14745        0.122156        0.119455 
        1.15359        0.120905        0.117954 
        1.15973          0.1192        0.116479 
        1.16584         0.11805        0.115035 
        1.17197        0.116555        0.113615 
        1.17811        0.115351        0.112214 
        1.18424        0.114078         0.11084 
        1.19038        0.112467        0.109486 
        1.19652        0.110899        0.108155 
        1.20267        0.109894        0.106847 
        1.20881        0.108578         0.10556 
        1.21495        0.107418        0.104297 
        1.22108        0.105957        0.103055 
         1.2272        0.104885        0.101836 
        1.23334        0.103545        0.100634 
        1.23949         0.10241       0.0994487 
        1.24562        0.101221       0.0982859 
        1.25174        0.100136       0.0971435 
        1.25789       0.0991664       0.0960158 
        1.26402       0.0977148       0.0949082 
        1.27014       0.0967495       0.0938208 
        1.27628        0.095717       0.0927472 
        1.28244        0.094435       0.0916885 
        1.28858       0.0935006       0.0906477 
        1.29471       0.0926877       0.0896254 
        1.30084       0.0914932         0.08862 
        1.30697       0.0904597       0.0876284 
        1.31312       0.0892748       0.0866507 
        1.31925       0.0884314        0.085691 
        1.32537       0.0875857       0.0847469 
        1.33151       0.0866883       0.0838137 
        1.33765       0.0857436       0.0828952 
        1.34378       0.0847235       0.0819923 
        1.34992       0.0838293       0.0811022 
        1.35606       0.0829577       0.0802236 
         1.3622       0.0821604       0.0793596 
        1.36833       0.0812017       0.0785104 
        1.37445       0.0802223       0.0776742 
        1.38059        0.079491       0.0768476 
        1.38675       0.0788456       0.0760311 
        1.39288       0.0779846       0.0752298 
        1.39901        0.077143       0.0744405 
        1.40515       0.0764584       0.0736608 
         1.4113       0.0755021       0.0728926 
        1.41742       0.0747972       0.0721383 
        1.42355       0.0741548       0.0713933 
         1.4297       0.0732704       0.0706567 
        1.43585       0.0725965       0.0699308 
        1.44198       0.0719416       0.0692179 
        1.44809       0.0711359       0.0685163 
        1.45423       0.0704811        0.067822 
        1.46036       0.0697903       0.0671385 
        1.46649        0.069247       0.0664642 
        1.47263       0.0684578       0.0657987 
        1.47877       0.0676772       0.0651426 
        1.48491       0.0671135       0.0644944 
        1.49104       0.0663898       0.0638565 
        1.49718       0.0656724       0.0632267 
        1.50333       0.0652636       0.0626044 
        1.50947       0.0645183       0.0619918 
         1.5156       0.0638829       0.0613883 
        1.52172        0.063314       0.0607929 
        1.52787       0.0626964       0.0602043 
          1.534       0.0620484       0.0596241 
        1.54013       0.0614972       0.0590522 
        1.54627       0.0610703       0.0584868 
        1.55241       0.0603535       0.0579288 
        1.55855       0.0597744       0.0573788 
        1.56467       0.0594225       0.0568376 
         1.5708       0.0587839       0.0563018 
        1.57695       0.0582119       0.0557721 
        1.58308       0.0576501       0.0552505 
        1.58922       0.0571739       0.0547352 
        1.59535       0.0566564       0.0542268 
         1.6015       0.0560978        0.053724 
        1.60764       0.0556531       0.0532279 
        1.61376       0.0550824       0.0527395 
        1.61989       0.0546624       0.0522568 
        1.62604       0.0542085       0.0517791 
        1.63218       0.0537156       0.0513077 
        1.63831        0.053234       0.0508433 
        1.64444       0.0527609       0.0503845 
        1.65059       0.0523417       0.0499302 
        1.65673       0.0518988       0.0494821 
        1.66285       0.0514986       0.0490407 
        1.66898       0.0510042       0.0486046 
        1.67512       0.0505117        0.048173 
        1.68127       0.0500707       0.0477462 
         1.6874       0.0497074       0.0473256 
        1.69353        0.049176       0.0469103 
        1.69967       0.0489208        0.046499 
        1.70581       0.0483327       0.0460929 
        1.71193        0.047976       0.0456931 
        1.71806       0.0475565       0.0452972 
        1.72421       0.0472846       0.0449053 
        1.73035       0.0467931       0.0445184 
        1.73649        0.046481       0.0441362 
        1.74262       0.0460644       0.0437588 
        1.74876       0.0456594       0.0433856 
        1.75489         0.04536       0.0430175 
        1.76101        0.044934       0.0426538 
        1.76715       0.0445357       0.0422938 
        1.77329       0.0441203       0.0419375 
        1.77943       0.0438285       0.0415852 
        1.78557       0.0434985       0.0412375 
        1.79171       0.0431665       0.0408937 
        1.79785       0.0428313       0.0405537 
        1.80399       0.0424477       0.0402178 
        1.81012       0.0421318        0.039886 
        1.81625       0.0417737       0.0395582 
        1.82239       0.0414461       0.0392336 
        1.82853         0.04113       0.0389128 
        1.83466       0.0407909       0.0385959 
        1.84078       0.0404687       0.0382829 
        1.84692       0.0401082       0.0379728 
        1.85306       0.0398875       0.0376658 
         1.8592        0.039503       0.0373627 
        1.86533       0.0392655       0.0370631 
        1.87147       0.0389118       0.0367665 
        1.87761       0.0386837        0.036473 
        1.88375       0.0384007        0.036183 
        1.88988       0.0380493       0.0358965 
        1.89601        0.037789        0.035613 
        1.90215       0.0374906       0.0353323 
        1.90829       0.0371354       0.0350548 
        1.91442        0.036966       0.0347802 
        1.92056         0.03665       0.0345089 
         1.9267       0.0363573       0.0342401 
        1.93284       0.0360847       0.0339741 
        1.93897        0.035834       0.0337114 
        1.94509        0.035606       0.0334521 
        1.95123       0.0353072       0.0331948 
        1.95737       0.0350515       0.0329401 
        1.96349       0.0347595       0.0326887 
        1.96964       0.0345264       0.0324391 
        1.97578       0.0342743       0.0321921 
        1.98192       0.0340554       0.0319482 
        1.98805        0.033802       0.0317068 
        1.99419       0.0335193       0.0314678 
        2.00033       0.0332689       0.0312313 
        2.00647       0.0331258       0.0309972 
         2.0126       0.0327861       0.0307659 
        2.01874       0.0326343       0.0305366 
        2.02488       0.0323936       0.0303095 
        2.03101       0.0321743       0.0300851 
        2.03714       0.0318746       0.0298631 
        2.04328       0.0317297       0.0296432 
        2.04941       0.0314272       0.0294257 
        2.05554       0.0312773       0.0292105 
        2.06167       0.0310754       0.0289972 
        2.06781        0.030812        0.028786 
        2.07396       0.0306196       0.0285766 
        2.08009       0.0304154       0.0283696 
        2.08622       0.0302092        0.028165 
        2.09237       0.0299899       0.0279619 
        2.09851       0.0297803       0.0277609 
        2.10464       0.0296187       0.0275621 
        2.11077       0.0293969       0.0273655 
        2.11691       0.0291731       0.0271704 
        2.12305        0.029002       0.0269773 
        2.12918       0.0288288       0.0267864 
        2.13531       0.0285762       0.0265974 
        2.14145       0.0283693       0.0264098 
         2.1476       0.0282041       0.0262238 
        2.15372       0.0280723       0.0260405 
        2.15985       0.0278237       0.0258588 
        2.16599       0.0276458       0.0256783 
        2.17213       0.0274802       0.0254997 
        2.17827       0.0272807       0.0253228 
         2.1844        0.027159       0.0251479 
        2.19054       0.0269528       0.0249745 
        2.19666       0.0267582       0.0248029 
         2.2028        0.026574       0.0246329 
        2.20893        0.026453       0.0244643 
        2.21508       0.0262819       0.0242972 
        2.22122        0.026064       0.0241316 
        2.22736       0.0259294       0.0239678 
        2.23349       0.0257446       0.0238056 
        2.23962       0.0256342       0.0236449 
        2.24577       0.0254452       0.0234854 
         2.2519       0.0252744       0.0233277 
        2.25802       0.0251143       0.0231717 
        2.26417       0.0249479       0.0230167 
        2.27031       0.0247844       0.0228629 
        2.27644       0.0246162        0.022711 
        2.28257       0.0245009       0.0225605 
        2.28872       0.0243489       0.0224111 
        2.29486       0.0242286       0.0222631 
        2.30099       0.0240411       0.0221167 
        2.30712       0.0238393       0.0219715 
        2.31326       0.0237222       0.0218274 
         2.3194       0.0236303       0.0216847 
        2.32553       0.0234472       0.0215435 
        2.33166       0.0233522       0.0214037 
         2.3378       0.0231861       0.0212648 
        2.34394        0.023015       0.0211272 
        2.35007       0.0228681        0.020991 
        2.35619       0.0227023       0.0208561 
        2.36233       0.0226288       0.0207222 
        2.36848       0.0225384       0.0205891 
        2.37462       0.0223555       0.0204575 
        2.38075       0.0222101       0.0203271 
        2.38689       0.0220878       0.0201978 
        2.39303       0.0219731       0.0200696 
        2.39916       0.0218174       0.0199427 
        2.40529       0.0217146       0.0198169 
        2.41143       0.0215597       0.0196921 
        2.41757       0.0214341       0.0195683 
         2.4237       0.0213479       0.0194458 
        2.42983       0.0212316       0.0193244 
        2.43598       0.0211186       0.0192037 
        2.44211       0.0209475       0.0190842 
        2.44823       0.0208499        0.018966 
        2.45437       0.0207174       0.0188484 
        2.46052       0.0205996       0.0187318 
        2.46665       0.0204582       0.0186164 
        2.47279       0.0203531        0.018502 
        2.47892       0.0202185       0.0183884 
        2.48507       0.0201132       0.0182757 
         2.4912       0.0200148       0.0181642 
