# k  (h/Mpc)    P(k)  (Mpc/h)^3    P_linear(k)  (Mpc/h)^3
     0.00783031         14919.1         15030.1 
       0.013688         18653.5         19206.1 
       0.019231         19773.2         20142.7 
      0.0249154         19291.6         19345.3 
      0.0312784         17176.8         17473.8 
      0.0375637         15031.6         15436.3 
      0.0433917         13573.9           13785 
      0.0492413           12171         12486.3 
      0.0555754         11217.5         11445.9 
      0.0619321         10087.7           10646 
       0.067871         9589.18         9979.79 
      0.0738098         9009.92         9295.16 
      0.0800417          8263.9         8518.06 
      0.0862327         7455.11         7710.15 
      0.0921407         6780.77         6962.21 
      0.0982031          6217.8         6277.62 
       0.104506         5580.27         5695.72 
       0.110769         5186.62         5255.97 
       0.116806         4968.04         4940.93 
       0.122832         4675.82            4695 
       0.129052         4431.56         4469.57 
       0.135211         4301.73         4239.95 
       0.141259         3994.96         3991.72 
       0.147318         3708.76          3722.6 
       0.153489         3502.67         3443.47 
       0.159709         3366.16         3178.67 
       0.165845         3079.03         2951.13 
       0.171974          2996.3         2765.51 
       0.178125         2906.44         2619.26 
       0.184229         2683.13         2504.27 
        0.19034         2650.19         2405.98 
       0.196428         2579.75         2311.99 
       0.202534         2435.15         2212.75 
       0.208729         2383.72         2103.73 
       0.214876         2282.25         1989.67 
       0.220989         2176.32          1876.4 
       0.227147         2116.84         1769.28 
        0.23329         2035.18         1674.55 
       0.239377         2025.58         1594.83 
       0.245482         1935.66            1528 
       0.251667         1865.98         1470.36 
       0.257832          1836.9         1418.59 
       0.263955         1760.55         1368.67 
       0.270079         1721.28         1317.54 
        0.27624         1650.03         1264.09 
       0.282372         1634.87         1209.69 
        0.28843         1602.57         1156.68 
       0.294538          1535.1         1106.02 
       0.300721         1509.79         1059.25 
        0.30691         1471.35         1017.62 
       0.313033         1420.41         981.236 
       0.319153         1407.38         948.601 
       0.325316         1390.11         918.088 
        0.33145         1361.27         888.742 
       0.337538          1320.1          859.78 
       0.343633         1291.48         830.602 
       0.349808         1270.94         801.129 
       0.355968         1244.26         772.313 
       0.362074         1211.55         745.024 
       0.368217         1207.59         719.312 
       0.374374         1188.71          695.54 
       0.380519         1150.47          673.73 
       0.386598         1146.96         653.694 
       0.392688          1117.3         634.767 
        0.39888         1097.42         616.233 
       0.405048         1076.79         598.172 
       0.411186         1071.48         580.493 
       0.417313         1069.11         563.116 
       0.423458         1036.59         546.139 
       0.429607         1010.15         529.791 
       0.435692         1003.08         514.372 
       0.441815          983.65         499.699 
       0.447964         975.142         485.822 
       0.454126         961.595         472.649 
       0.460267         950.917         460.123 
       0.466387          935.69         448.114 
        0.47254         919.226         436.393 
       0.478662         909.239         425.003 
       0.484765         900.364         413.934 
       0.490885         889.795         403.148 
       0.497035         874.516         392.656 
       0.503198         873.623         382.533 
       0.509342         857.289         372.864 
       0.515458         840.407          363.66 
       0.521598         840.912         354.799 
       0.527764         820.634         346.236 
       0.533884         812.126         338.031 
           0.54         806.849          330.09 
       0.546137          796.96         322.349 
       0.552299         790.491          314.78 
       0.558452          782.76         307.435 
       0.564573         777.784         300.348 
       0.570708         769.249         293.477 
       0.576825         753.663         286.859 
       0.582926         752.052         280.482 
       0.589034          743.35         274.308 
       0.595184         734.389         268.297 
       0.601379         723.052         262.436 
       0.607522         713.966           256.8 
       0.613639          713.08         251.348 
       0.619772         706.321         246.029 
       0.625918         697.308         240.842 
       0.632068         692.686         235.796 
       0.638161         683.064          230.94 
         0.6443          676.81         226.192 
       0.650464         672.065         221.568 
       0.656582         666.962         217.114 
       0.662703         657.881         212.785 
       0.668861         651.334         208.551 
       0.675024         647.712          204.43 
       0.681124         635.907         200.461 
       0.687237         636.451         196.588 
       0.693381          625.16           192.8 
       0.699536         626.469         189.106 
       0.705665         617.516         185.524 
       0.711789         615.576         182.039 
       0.717957         607.933          178.62 
        0.72409         602.761         175.309 
       0.730186         600.543         172.103 
       0.736317         593.051         168.961 
       0.742472         585.528         165.886 
       0.748622         584.277         162.892 
        0.75476         576.349         159.979 
       0.760888          573.86         157.142 
       0.767043           571.4         154.363 
       0.773185         566.648         151.658 
       0.779291         560.164         149.033 
       0.785407         555.703         146.467 
       0.791564         552.505         143.946 
       0.797719         544.183         141.485 
       0.803834          544.81         139.098 
       0.809972         537.052         136.758 
       0.816124         533.396         134.467 
       0.822261         530.185         132.235 
       0.828378         527.879         130.061 
       0.834502         519.353         127.934 
       0.840667         518.019         125.841 
       0.846816         513.523         123.802 
       0.852925         511.878          121.82 
       0.859047         506.462         119.879 
       0.865192         503.502         117.973 
       0.871341         497.667         116.108 
       0.877463         496.904         114.292 
       0.883569         491.441          112.52 
       0.889708         486.064         110.776 
       0.895864         481.327         109.065 
       0.902008         480.788         107.394 
       0.908149          475.99          105.76 
       0.914301         474.278         104.157 
       0.920448         468.312         102.588 
       0.926574         466.062         101.058 
       0.932687         464.683         99.5627 
       0.938823         458.732         98.0923 
       0.944975         456.385         96.6483 
       0.951105         453.266         95.2387 
       0.957225         447.087         93.8599 
       0.963368          447.72         92.5038 
       0.969511         441.415         91.1746 
       0.975621         439.433         89.8788 
       0.981748         436.814          88.605 
       0.987916         434.131          87.348 
        0.99406         429.874         86.1202 
        1.00019         425.705         84.9185 
        1.00632         424.085          83.741 
        1.01246         420.679         82.5841 
        1.01859          417.17         81.4511 
        1.02471          415.49         80.3409 
        1.03085         412.295         79.2476 
        1.03698         410.376         78.1771 
        1.04314         406.518         77.1219 
        1.04929         405.141         76.0887 
        1.05541         399.555         75.0786 
        1.06154         398.471         74.0845 
        1.06769         394.653          73.107 
        1.07382         391.295         72.1504 
        1.07993          391.01         71.2131 
        1.08607         388.037         70.2887 
        1.09222         384.342         69.3799 
        1.09836         382.017         68.4882 
        1.10449         378.583         67.6134 
        1.11063         377.334         66.7529 
        1.11677         372.976         65.9078 
         1.1229         371.699         65.0788 
        1.12903         368.126         64.2634 
        1.13518         366.742         63.4614 
        1.14131         364.587         62.6736 
        1.14745         360.548         61.8996 
        1.15359         357.898         61.1387 
        1.15973         356.203         60.3902 
        1.16584         354.592         59.6577 
        1.17197         351.718         58.9364 
        1.17811         347.612         58.2248 
        1.18424         346.893         57.5271 
        1.19038         344.589         56.8389 
        1.19652         341.049         56.1622 
        1.20267         339.811         55.4965 
        1.20881         338.076         54.8418 
        1.21495         334.105         54.1988 
        1.22108         333.708         53.5662 
         1.2272         328.577         52.9452 
        1.23334         327.762         52.3326 
        1.23949          325.21         51.7283 
        1.24562         324.764         51.1353 
        1.25174         321.614         50.5525 
        1.25789         318.931          49.977 
        1.26402         317.327         49.4115 
        1.27014         315.709         48.8562 
        1.27628         312.936         48.3078 
        1.28244         310.488         47.7667 
        1.28858         309.221         47.2347 
        1.29471         307.511          46.712 
        1.30084         306.034         46.1978 
        1.30697         302.511         45.6905 
        1.31312         300.721         45.1901 
        1.31925         299.231         44.6987 
        1.32537         297.738         44.2152 
        1.33151         294.637         43.7372 
        1.33765         292.463         43.2665 
        1.34378         290.933         42.8036 
        1.34992         288.306         42.3473 
        1.35606         286.673         41.8966 
         1.3622         285.002         41.4533 
        1.36833         284.233         41.0175 
        1.37445         282.551         40.5882 
        1.38059         279.037         40.1638 
        1.38675         277.881         39.7444 
        1.39288         276.759         39.3327 
        1.39901         274.139          38.927 
        1.40515         272.794         38.5262 
         1.4113         270.691         38.1311 
        1.41742         268.406         37.7432 
        1.42355         267.717         37.3599 
         1.4297         265.698         36.9808 
        1.43585         262.991         36.6071 
        1.44198         262.072           36.24 
        1.44809         260.607         35.8787 
        1.45423         258.713         35.5209 
        1.46036         257.631         35.1687 
        1.46649         255.605         34.8212 
        1.47263         253.139          34.478 
        1.47877         252.147         34.1397 
        1.48491         249.982         33.8054 
        1.49104         247.955         33.4763 
        1.49718         247.087         33.1513 
        1.50333         245.153         32.8301 
        1.50947         243.967         32.5138 
         1.5156         241.921         32.2021 
        1.52172         240.423         31.8946 
        1.52787         238.616         31.5904 
          1.534         238.325         31.2906 
        1.54013         235.954          30.995 
        1.54627         234.445         30.7027 
        1.55241         233.342         30.4141 
        1.55855          231.61         30.1296 
        1.56467         230.056         29.8496 
         1.5708         228.701         29.5723 
        1.57695          227.64         29.2982 
        1.58308         226.518         29.0281 
        1.58922         224.405         28.7613 
        1.59535          222.68         28.4979 
         1.6015         221.707         28.2375 
        1.60764         220.156         27.9805 
        1.61376          218.52         27.7273 
        1.61989         217.091         27.4771 
        1.62604         215.686         27.2295 
        1.63218           214.2          26.985 
        1.63831         213.424         26.7441 
        1.64444         211.553         26.5061 
        1.65059         210.737         26.2704 
        1.65673         209.201         26.0378 
        1.66285         207.803         25.8087 
        1.66898         206.469         25.5823 
        1.67512         205.145         25.3582 
        1.68127         203.981         25.1365 
         1.6874         202.363          24.918 
        1.69353         201.754         24.7022 
        1.69967         200.201         24.4885 
        1.70581         198.827         24.2774 
        1.71193         197.719         24.0696 
        1.71806         195.928         23.8638 
        1.72421         195.216         23.6599 
        1.73035         193.605         23.4587 
        1.73649          192.14         23.2599 
        1.74262         191.425         23.0635 
        1.74876         190.066         22.8693 
        1.75489         189.299         22.6777 
        1.76101         188.235         22.4884 
        1.76715         186.751         22.3009 
        1.77329         185.031         22.1154 
        1.77943          184.03         21.9319 
        1.78557         183.112         21.7508 
        1.79171         182.541         21.5716 
        1.79785         180.926         21.3945 
        1.80399         179.811         21.2194 
        1.81012         178.989         21.0464 
        1.81625          177.29         20.8755 
        1.82239         176.603         20.7062 
        1.82853         175.667         20.5389 
        1.83466         174.159         20.3736 
        1.84078         173.297         20.2103 
        1.84692         172.479         20.0485 
        1.85306         171.013         19.8883 
         1.8592         170.363         19.7301 
        1.86533         168.647         19.5737 
        1.87147         167.951         19.4189 
        1.87761         166.918         19.2656 
        1.88375         165.665         19.1142 
        1.88988         164.937         18.9645 
        1.89601         164.352         18.8164 
        1.90215         163.148         18.6697 
        1.90829         161.735         18.5247 
        1.91442         160.982         18.3812 
        1.92056          159.78         18.2394 
         1.9267         159.076         18.0989 
        1.93284         157.846         17.9598 
        1.93897         156.907         17.8224 
        1.94509          156.28         17.6868 
        1.95123         155.192         17.5522 
        1.95737         154.636          17.419 
        1.96349         153.299         17.2874 
        1.96964          152.29         17.1569 
        1.97578         151.549         17.0276 
        1.98192         150.911         16.8999 
        1.98805         149.758         16.7735 
        1.99419         148.781         16.6485 
        2.00033         148.016         16.5246 
        2.00647         146.739          16.402 
         2.0126         146.038         16.2809 
        2.01874         145.266         16.1608 
        2.02488         144.305         16.0418 
        2.03101         143.866         15.9242 
        2.03714         143.057         15.8079 
        2.04328         141.772         15.6926 
        2.04941         141.176         15.5786 
        2.05554         140.268         15.4658 
        2.06167          139.51          15.354 
        2.06781         138.811         15.2432 
        2.07396         137.657         15.1334 
        2.08009         137.133         15.0249 
        2.08622         136.271         14.9175 
        2.09237         135.153          14.811 
        2.09851         134.672         14.7055 
        2.10464         133.959         14.6012 
        2.11077         133.171         14.4981 
        2.11691         132.444         14.3957 
        2.12305         131.449         14.2943 
        2.12918         130.682         14.1941 
        2.13531         129.727         14.0949 
        2.14145         129.242         13.9964 
         2.1476         128.297         13.8987 
        2.15372         127.581         13.8024 
        2.15985         126.925          13.707 
        2.16599         126.256         13.6122 
        2.17213         125.338         13.5184 
        2.17827         124.817         13.4254 
         2.1844         123.889         13.3335 
        2.19054         123.268         13.2423 
        2.19666         122.469         13.1522 
         2.2028         121.946         13.0628 
        2.20893         121.231         12.9742 
        2.21508         120.308         12.8863 
        2.22122         119.517         12.7992 
        2.22736         119.105         12.7131 
        2.23349         118.499         12.6278 
        2.23962         117.845         12.5433 
        2.24577         116.949         12.4594 
         2.2519         116.177         12.3764 
        2.25802         115.896         12.2943 
        2.26417         115.146         12.2128 
        2.27031         114.338         12.1319 
        2.27644          113.72         12.0519 
        2.28257         113.321         11.9727 
        2.28872         112.471         11.8941 
        2.29486         111.861         11.8161 
        2.30099         110.956         11.7391 
        2.30712         110.591         11.6626 
        2.31326         109.859         11.5868 
         2.3194         109.369         11.5116 
        2.32553           108.7         11.4373 
        2.33166         108.344         11.3636 
         2.3378         107.509         11.2905 
        2.34394         106.699          11.218 
        2.35007         106.198         11.1462 
        2.35619         105.614         11.0751 
        2.36233         105.289         11.0045 
        2.36848         104.616         10.9344 
        2.37462         104.152          10.865 
        2.38075         103.509         10.7963 
        2.38689         102.781         10.7282 
        2.39303         102.324         10.6606 
        2.39916         101.768         10.5937 
        2.40529         101.142         10.5273 
        2.41143         100.422         10.4615 
        2.41757         99.8186         10.3962 
         2.4237         99.4066         10.3316 
        2.42983         98.9308         10.2676 
        2.43598         98.2344         10.2039 
        2.44211         97.7968         10.1409 
        2.44823         97.2803         10.0785 
        2.45437         96.8128         10.0165 
        2.46052         96.1057         9.95497 
        2.46665         95.7734         9.89405 
        2.47279         95.1383         9.83367 
        2.47892         94.6873         9.77375 
        2.48507         94.1778         9.71428 
         2.4912         93.6491         9.65541 
