# k  (h/Mpc)    Pcb(k)  (Mpc/h)^3    Pcb_linear(k)  (Mpc/h)^3
     0.00783031         15298.8         15521.6 
       0.013688         18846.5         18678.6 
       0.019231         18376.3         18327.4 
      0.0249154         16005.4         16321.2 
      0.0312784         13441.9         13557.9 
      0.0375637         11232.4         11194.7 
      0.0433917         9494.54         9619.54 
      0.0492413         8561.23         8592.04 
      0.0555754         7683.33         7892.32 
      0.0619321         7386.81         7359.12 
       0.067871         6668.37         6828.86 
      0.0738098         6057.02          6192.7 
      0.0800417         5288.22         5441.68 
      0.0862327         4657.19         4707.55 
      0.0921407          4162.9         4108.27 
      0.0982031         3682.51         3646.16 
       0.104506         3466.13          3329.8 
       0.110769         3244.95         3139.13 
       0.116806         3089.38            3013 
       0.122832         2958.58         2887.85 
       0.129052         2733.46         2721.46 
       0.135211         2548.81         2511.62 
       0.141259         2389.86         2280.74 
       0.147318         2207.55         2055.45 
       0.153489         2001.43         1859.89 
       0.159709         1885.14         1711.99 
       0.165845         1816.28         1613.12 
       0.171974         1730.14         1547.91 
       0.178125         1657.48         1497.42 
       0.184229         1591.07         1444.68 
        0.19034         1494.13         1378.43 
       0.196428         1452.46         1297.47 
       0.202534         1386.96         1207.56 
       0.208729          1308.2         1117.78 
       0.214876            1243         1039.46 
       0.220989          1196.7         977.313 
       0.227147         1145.75          930.68 
        0.23329         1102.52         896.138 
       0.239377         1083.44         867.772 
       0.245482         1014.06         839.412 
       0.251667         1006.28         806.818 
       0.257832         964.099         769.486 
       0.263955          929.43         729.398 
       0.270079          892.82         689.395 
        0.27624          880.38         652.487 
       0.282372         843.863         621.066 
        0.28843         830.914         595.617 
       0.294538         788.282          574.62 
       0.300721         784.426         556.186 
        0.30691         750.969         538.571 
       0.313033         735.785         520.416 
       0.319153         717.825         501.046 
       0.325316         695.364         480.558 
        0.33145         676.411         460.178 
       0.337538         664.555         440.951 
       0.343633         646.299         423.509 
       0.349808         622.859          407.99 
       0.355968         618.479         394.437 
       0.362074         610.106         382.397 
       0.368217         591.803         370.959 
       0.374374         566.398         359.649 
       0.380519         565.669         348.184 
       0.386598         549.603         336.652 
       0.392688         546.816         325.173 
        0.39888         530.659         313.862 
       0.405048         520.815         303.269 
       0.411186         512.963         293.587 
       0.417313         502.525         284.715 
       0.423458         492.268         276.504 
       0.429607         485.305          268.77 
       0.435692         473.249         261.359 
       0.441815         468.853         254.002 
       0.447964         458.856         246.702 
       0.454126         450.365         239.482 
       0.460267         441.159         232.461 
       0.466387         436.116         225.757 
        0.47254         428.936         219.384 
       0.478662         427.025         213.402 
       0.484765         412.124         207.766 
       0.490885          408.58         202.403 
       0.497035         400.818         197.229 
       0.503198         396.013         192.187 
       0.509342         393.045         187.262 
       0.515458         388.898         182.472 
       0.521598         378.807         177.796 
       0.527764         372.975         173.254 
       0.533884         370.344          168.91 
           0.54         365.232         164.745 
       0.546137         363.333         160.749 
       0.552299         356.189         156.909 
       0.558452         354.363         153.219 
       0.564573         349.372         149.661 
       0.570708         343.214         146.187 
       0.576825         335.941         142.814 
       0.582926         334.464         139.544 
       0.589034         331.266         136.369 
       0.595184         328.341         133.275 
       0.601379         323.215         130.262 
       0.607522         318.785         127.372 
       0.613639         317.145         124.588 
       0.619772         310.282         121.887 
       0.625918         309.212         119.266 
       0.632068         304.002         116.724 
       0.638161         302.747         114.279 
         0.6443         297.776         111.884 
       0.650464         295.018         109.544 
       0.656582         292.441         107.285 
       0.662703         291.751         105.086 
       0.668861         286.693         102.937 
       0.675024          283.46         100.848 
       0.681124          281.42          98.841 
       0.687237         278.507         96.8884 
       0.693381         274.364          94.982 
       0.699536         271.671         93.1253 
       0.705665          269.36         91.3269 
       0.711789         267.804         89.5774 
       0.717957          265.86         87.8608 
        0.72409         263.351         86.1978 
       0.730186         260.002         84.5873 
       0.736317         257.434          83.009 
       0.742472         255.765         81.4651 
       0.748622         253.464         79.9623 
        0.75476         250.823         78.5012 
       0.760888         248.101         77.0795 
       0.767043         248.148         75.6881 
       0.773185         245.253         74.3345 
       0.779291          241.03         73.0221 
       0.785407         240.548           71.74 
       0.791564         237.723         70.4809 
       0.797719         235.226         69.2529 
       0.803834         233.448         68.0621 
       0.809972         232.648         66.8952 
       0.816124         231.764         65.7534 
       0.822261         229.201         64.6414 
       0.828378         226.946         63.5587 
       0.834502         225.763         62.5001 
       0.840667         223.303         61.4589 
       0.846816         221.673         60.4446 
       0.852925         220.641         59.4597 
       0.859047         218.746         58.4949 
       0.865192         216.007         57.5486 
       0.871341         214.392         56.6227 
       0.877463         213.299         55.7215 
       0.883569         212.494         54.8424 
       0.889708         209.957         53.9779 
       0.895864         208.051           53.13 
       0.902008         206.822         52.3021 
       0.908149         205.883         51.4926 
       0.914301         203.137         50.6989 
       0.920448         202.101         49.9229 
       0.926574         200.373         49.1659 
       0.932687         200.447         48.4263 
       0.938823         197.887         47.6994 
       0.944975         196.853         46.9858 
       0.951105         195.694         46.2895 
       0.957225         194.164         45.6085 
       0.963368         191.498          44.939 
       0.969511         190.871          44.283 
       0.975621          189.05         43.6437 
       0.981748         189.044         43.0154 
       0.987916         187.237         42.3956 
        0.99406          185.33         41.7904 
        1.00019         185.149         41.1983 
        1.00632         183.498         40.6183 
        1.01246         182.174         40.0487 
        1.01859          182.03         39.4909 
        1.02471           179.4         38.9446 
        1.03085         177.964         38.4067 
        1.03698         177.116         37.8802 
        1.04314          175.46         37.3614 
        1.04929         174.694         36.8536 
        1.05541         174.505         36.3573 
        1.06154         172.435         35.8691 
        1.06769         172.217          35.389 
        1.07382         170.608         34.9195 
        1.07993         169.257         34.4595 
        1.08607         168.778          34.006 
        1.09222         167.744         33.5602 
        1.09836         166.407          33.123 
        1.10449          164.62         32.6942 
        1.11063         163.382         32.2725 
        1.11677         163.001         31.8585 
         1.1229           161.7         31.4524 
        1.12903         161.057         31.0532 
        1.13518         160.071         30.6605 
        1.14131         158.539         30.2749 
        1.14745         158.486         29.8962 
        1.15359         157.152         29.5239 
        1.15973         156.037         29.1579 
        1.16584         154.812         28.7997 
        1.17197         154.361         28.4471 
        1.17811           153.1         28.0993 
        1.18424         152.414         27.7583 
        1.19038         151.993         27.4221 
        1.19652          150.64         27.0915 
        1.20267         150.053         26.7664 
        1.20881         148.801         26.4468 
        1.21495         147.951         26.1328 
        1.22108         147.024         25.8241 
         1.2272         145.888          25.521 
        1.23334         145.518         25.2222 
        1.23949         144.398         24.9275 
        1.24562         143.601         24.6383 
        1.25174         142.676         24.3541 
        1.25789         141.782         24.0736 
        1.26402         140.465          23.798 
        1.27014         139.586         23.5274 
        1.27628         139.281         23.2603 
        1.28244         138.974         22.9968 
        1.28858         137.764         22.7377 
        1.29471           136.5         22.4833 
        1.30084         136.313          22.233 
        1.30697         134.894         21.9861 
        1.31312         134.337         21.7426 
        1.31925         133.478         21.5037 
        1.32537         133.022         21.2685 
        1.33151         131.803         21.0361 
        1.33765         131.082         20.8072 
        1.34378         130.566         20.5823 
        1.34992         130.106         20.3605 
        1.35606         129.702         20.1416 
         1.3622         128.328         19.9262 
        1.36833         127.403         19.7145 
        1.37445         126.914         19.5061 
        1.38059         126.064            19.3 
        1.38675          125.48         19.0964 
        1.39288         125.002         18.8965 
        1.39901         124.571         18.6996 
        1.40515         123.253         18.5051 
         1.4113          122.73         18.3134 
        1.41742         121.884         18.1252 
        1.42355         121.281         17.9393 
         1.4297         120.718         17.7554 
        1.43585         119.783         17.5742 
        1.44198         119.302         17.3963 
        1.44809         118.764         17.2211 
        1.45423         118.198         17.0477 
        1.46036         117.345          16.877 
        1.46649         116.487         16.7086 
        1.47263         115.847         16.5424 
        1.47877         115.397         16.3785 
        1.48491         114.267         16.2166 
        1.49104         114.263         16.0572 
        1.49718         113.315         15.8998 
        1.50333         112.784         15.7443 
        1.50947         112.232         15.5912 
         1.5156         111.554         15.4404 
        1.52172         110.873         15.2916 
        1.52787         110.218         15.1444 
          1.534         109.724         14.9994 
        1.54013         109.153         14.8564 
        1.54627         108.619         14.7151 
        1.55241         107.773         14.5755 
        1.55855         107.169          14.438 
        1.56467         106.866         14.3026 
         1.5708         105.977         14.1686 
        1.57695         105.743         14.0361 
        1.58308         105.098         13.9056 
        1.58922         104.744         13.7767 
        1.59535         103.977         13.6495 
         1.6015         103.552         13.5237 
        1.60764         102.921         13.3995 
        1.61376         102.506         13.2773 
        1.61989         101.791         13.1565 
        1.62604         101.267         13.0369 
        1.63218         101.018         12.9189 
        1.63831         100.072         12.8026 
        1.64444         99.7003         12.6877 
        1.65059         99.2027          12.574 
        1.65673         98.4007         12.4617 
        1.66285         98.1323         12.3512 
        1.66898         97.7185          12.242 
        1.67512         97.0354         12.1338 
        1.68127          96.577         12.0269 
         1.6874         95.8132         11.9216 
        1.69353         95.4877         11.8175 
        1.69967         95.1867         11.7145 
        1.70581         94.5148         11.6127 
        1.71193         94.0564         11.5125 
        1.71806         93.6282         11.4133 
        1.72421         92.9123          11.315 
        1.73035         92.6955         11.2181 
        1.73649         92.1742         11.1223 
        1.74262         91.4947         11.0277 
        1.74876         91.2278         10.9341 
        1.75489         90.5414         10.8418 
        1.76101         90.0412         10.7506 
        1.76715         89.5206         10.6603 
        1.77329         89.3059          10.571 
        1.77943         88.5208         10.4827 
        1.78557         88.4153         10.3954 
        1.79171         87.5456         10.3092 
        1.79785         87.1918         10.2239 
        1.80399         86.7342         10.1397 
        1.81012         86.4032         10.0564 
        1.81625         85.9635          9.9742 
        1.82239         85.5565         9.89275 
        1.82853         85.1059         9.81225 
        1.83466         84.5647         9.73273 
        1.84078         84.1969         9.65417 
        1.84692         83.7661         9.57636 
        1.85306         83.3139          9.4993 
         1.8592         83.0119         9.42322 
        1.86533         82.4146         9.34801 
        1.87147          81.954         9.27354 
        1.87761         81.6224         9.19985 
        1.88375         81.0685         9.12705 
        1.88988         80.7662         9.05512 
        1.89601          80.295         8.98392 
        1.90215          79.816         8.91343 
        1.90829         79.4478         8.84374 
        1.91442         79.1105         8.77478 
        1.92056          78.567         8.70663 
         1.9267         78.3049         8.63912 
        1.93284         77.8353          8.5723 
        1.93897         77.4994         8.50631 
        1.94509         77.1643         8.44116 
        1.95123         76.7401         8.37653 
        1.95737         76.2211         8.31252 
        1.96349         75.8312         8.24936 
        1.96964         75.4275         8.18666 
        1.97578         75.0455         8.12459 
        1.98192         74.9674          8.0633 
        1.98805         74.2177         8.00262 
        1.99419         73.9861         7.94257 
        2.00033         73.7526         7.88311 
        2.00647         73.2454         7.82427 
         2.0126         72.8959         7.76614 
        2.01874          72.319          7.7085 
        2.02488         72.1006         7.65141 
        2.03101         71.6535         7.59499 
        2.03714         71.1687          7.5392 
        2.04328         70.9778         7.48391 
        2.04941         70.6385         7.42922 
        2.05554         70.3478         7.37511 
        2.06167         69.9625         7.32147 
        2.06781         69.4299         7.26836 
        2.07396         69.1299          7.2157 
        2.08009         68.8866         7.16366 
        2.08622          68.525         7.11218 
        2.09237         68.1906         7.06112 
        2.09851         67.9294         7.01054 
        2.10464         67.4705         6.96055 
        2.11077         67.1864          6.9111 
        2.11691         66.8731         6.86202 
        2.12305         66.4311         6.81342 
        2.12918         66.1062         6.76541 
        2.13531         65.7822         6.71786 
        2.14145         65.3908         6.67065 
         2.1476         65.0267         6.62384 
        2.15372         64.8766         6.57772 
        2.15985          64.434         6.53199 
        2.16599         64.1099         6.48656 
        2.17213         63.8321         6.44162 
        2.17827         63.4724         6.39711 
         2.1844         63.1352         6.35306 
        2.19054         62.9696         6.30942 
        2.19666         62.5703         6.26624 
         2.2028         62.4318         6.22344 
        2.20893         61.9398         6.18101 
        2.21508         61.7304         6.13893 
        2.22122         61.3671         6.09722 
        2.22736         61.0827           6.056 
        2.23349         60.7071         6.01516 
        2.23962         60.3962         5.97468 
        2.24577          60.102         5.93454 
         2.2519         59.8632         5.89482 
        2.25802         59.5979         5.85553 
        2.26417         59.2165         5.81649 
        2.27031         58.9608         5.77777 
        2.27644         58.6809         5.73951 
        2.28257         58.4037          5.7016 
        2.28872         58.0733         5.66397 
        2.29486         57.6472         5.62668 
        2.30099         57.3669          5.5898 
        2.30712         57.2502         5.55324 
        2.31326         56.9284         5.51694 
         2.3194         56.6382         5.48099 
        2.32553         56.3534         5.44542 
        2.33166         56.0115         5.41018 
         2.3378         55.7316          5.3752 
        2.34394         55.4493         5.34053 
        2.35007         55.2128          5.3062 
        2.35619         54.9834         5.27223 
        2.36233         54.7183         5.23847 
        2.36848         54.4669         5.20493 
        2.37462         54.0642         5.17176 
        2.38075         53.9772         5.13891 
        2.38689         53.6414         5.10632 
        2.39303         53.3254         5.07402 
        2.39916         53.1082         5.04203 
        2.40529         52.9024         5.01032 
        2.41143         52.6241         4.97886 
        2.41757         52.3272         4.94766 
         2.4237         52.1544         4.91678 
        2.42983         51.7986         4.88617 
        2.43598         51.5207         4.85574 
        2.44211         51.3196         4.82561 
        2.44823          51.093         4.79581 
        2.45437          50.798         4.76618 
        2.46052         50.5954         4.73678 
        2.46665         50.4065         4.70768 
        2.47279         50.0182         4.67883 
        2.47892         49.8781          4.6502 
        2.48507         49.5985         4.62179 
         2.4912         49.3604         4.59366 
