# k  (h/Mpc)    Pcb(k)  (Mpc/h)^3    Pcb_linear(k)  (Mpc/h)^3
     0.00783031         2870.51         2902.56 
       0.013688         3499.04         3495.71 
       0.019231         3434.85          3430.9 
      0.0249154         3032.42         3055.76 
      0.0312784         2536.45         2538.61 
      0.0375637         2105.42         2096.22 
      0.0433917         1797.56         1801.33 
      0.0492413         1611.14         1608.96 
      0.0555754         1466.69         1477.96 
      0.0619321         1385.89         1378.12 
       0.067871         1271.27         1278.83 
      0.0738098         1152.46         1159.71 
      0.0800417         1009.75         1019.07 
      0.0862327         879.605         881.595 
      0.0921407         772.855         769.371 
      0.0982031         683.319         682.831 
       0.104506         632.279         623.586 
       0.110769         594.177         587.881 
       0.116806         565.708         564.262 
       0.122832         544.617         540.825 
       0.129052         508.774         509.664 
       0.135211         470.439         470.368 
       0.141259         432.024         427.129 
       0.147318         392.778         384.938 
       0.153489         354.766         348.315 
       0.159709         328.615         320.617 
       0.165845         312.927         302.101 
       0.171974         297.091         289.888 
       0.178125         287.521         280.433 
       0.184229          277.83         270.555 
        0.19034         261.091          258.15 
       0.196428         249.634         242.987 
       0.202534         236.015          226.15 
       0.208729         218.496         209.336 
       0.214876         202.969         194.668 
       0.220989         193.791         183.029 
       0.227147         182.936         174.296 
        0.23329         176.227         167.827 
       0.239377         171.645         162.515 
       0.245482         163.193         157.204 
       0.251667         159.334         151.099 
       0.257832         152.608         144.108 
       0.263955         145.281           136.6 
       0.270079         138.207         129.109 
        0.27624         133.258         122.197 
       0.282372         127.455         116.312 
        0.28843         121.972         111.546 
       0.294538          117.31         107.614 
       0.300721         115.033         104.162 
        0.30691         110.279         100.863 
       0.313033         106.914         97.4628 
       0.319153          101.83         93.8353 
       0.325316         99.7114         89.9983 
        0.33145         95.4377         86.1814 
       0.337538         92.7137         82.5807 
       0.343633         89.0954         79.3142 
       0.349808         86.3034         76.4078 
       0.355968          84.013         73.8696 
       0.362074         81.4136         71.6149 
       0.368217         79.0388         69.4727 
       0.374374         76.6732         67.3545 
       0.380519         74.7603         65.2075 
       0.386598         72.5792         63.0477 
       0.392688         70.9091         60.8981 
        0.39888         68.6752         58.7797 
       0.405048          66.867         56.7959 
       0.411186         65.1848         54.9826 
       0.417313         63.1328         53.3211 
       0.423458         61.5248         51.7834 
       0.429607         59.9213          50.335 
       0.435692         57.9966          48.947 
       0.441815         57.1326         47.5693 
       0.447964         56.0828         46.2021 
       0.454126         53.6839         44.8499 
       0.460267         52.8049         43.5351 
       0.466387         51.3416         42.2796 
        0.47254         50.4386         41.0861 
       0.478662         49.5814         39.9657 
       0.484765         48.0867         38.9103 
       0.490885         47.0344         37.9058 
       0.497035         46.3952         36.9369 
       0.503198         45.1137         35.9926 
       0.509342         43.9571         35.0703 
       0.515458          43.066         34.1731 
       0.521598         42.3459         33.2975 
       0.527764         41.4672         32.4468 
       0.533884         40.7548         31.6333 
           0.54         39.8274         30.8532 
       0.546137         39.2333         30.1049 
       0.552299         38.5957         29.3857 
       0.558452         37.4257         28.6946 
       0.564573         36.8187         28.0284 
       0.570708         36.2458         27.3778 
       0.576825          35.418         26.7461 
       0.582926          34.692         26.1337 
       0.589034         33.8203         25.5391 
       0.595184         33.3921         24.9597 
       0.601379         32.7784         24.3954 
       0.607522         32.1108         23.8541 
       0.613639         31.8402         23.3327 
       0.619772         31.0205         22.8269 
       0.625918         30.8201         22.3361 
       0.632068         30.3322           21.86 
       0.638161         29.7065         21.4021 
         0.6443         29.1316         20.9535 
       0.650464         28.6222         20.5154 
       0.656582          28.423         20.0921 
       0.662703         27.8564         19.6804 
       0.668861         27.3543         19.2779 
       0.675024         26.8893         18.8866 
       0.681124         26.4188         18.5108 
       0.687237         25.9618         18.1452 
       0.693381          25.741         17.7882 
       0.699536         25.1005         17.4404 
       0.705665         25.0519         17.1036 
       0.711789          24.455          16.776 
       0.717957         24.1316         16.4545 
        0.72409         23.7894         16.1431 
       0.730186         23.4393         15.8414 
       0.736317         23.1981         15.5459 
       0.742472         22.7879         15.2567 
       0.748622          22.566         14.9753 
        0.75476         22.1669         14.7016 
       0.760888         21.8284         14.4354 
       0.767043         21.5698         14.1748 
       0.773185         21.1986         13.9213 
       0.779291         21.0844         13.6755 
       0.785407         20.8457         13.4354 
       0.791564         20.4603         13.1996 
       0.797719         19.9989         12.9696 
       0.803834         19.9743         12.7466 
       0.809972         19.7783         12.5281 
       0.816124         19.3282         12.3142 
       0.822261         19.1475          12.106 
       0.828378         18.9692         11.9032 
       0.834502         18.7747          11.705 
       0.840667         18.5128           11.51 
       0.846816         18.1795           11.32 
       0.852925         18.0132         11.1356 
       0.859047         17.8124         10.9549 
       0.865192         17.6298         10.7776 
       0.871341         17.4953         10.6042 
       0.877463         17.1776         10.4355 
       0.883569         16.9681         10.2708 
       0.889708          16.723         10.1089 
       0.895864         16.5818         9.95014 
       0.902008         16.4576          9.7951 
       0.908149         16.2738         9.64349 
       0.914301         16.1778         9.49486 
       0.920448         15.8611         9.34952 
       0.926574         15.7225         9.20775 
       0.932687         15.5452         9.06924 
       0.938823          15.342          8.9331 
       0.944975          15.183         8.79947 
       0.951105         15.0445         8.66906 
       0.957225         14.8934         8.54153 
       0.963368         14.7746         8.41615 
       0.969511         14.6342         8.29329 
       0.975621         14.4965         8.17356 
       0.981748         14.2924          8.0559 
       0.987916         14.2057         7.93982 
        0.99406         14.0189         7.82649 
        1.00019         13.8246          7.7156 
        1.00632         13.7763         7.60697 
        1.01246         13.6489         7.50029 
        1.01859         13.4265         7.39584 
        1.02471         13.3775         7.29352 
        1.03085          13.245         7.19279 
        1.03698         13.0287         7.09419 
        1.04314         12.9595         6.99703 
        1.04929         12.7993         6.90192 
        1.05541         12.6581         6.80898 
        1.06154         12.5839         6.71753 
        1.06769         12.5152         6.62764 
        1.07382         12.3476         6.53969 
        1.07993         12.2578         6.45355 
        1.08607         12.1258         6.36862 
        1.09222         12.0443         6.28514 
        1.09836         11.8932         6.20326 
        1.10449         11.8118         6.12295 
        1.11063         11.6758         6.04398 
        1.11677         11.6293         5.96643 
         1.1229         11.5574         5.89039 
        1.12903          11.404         5.81562 
        1.13518         11.2658         5.74208 
        1.14131          11.224         5.66987 
        1.14745         11.1211         5.59894 
        1.15359         11.0468         5.52923 
        1.15973         10.9376         5.46067 
        1.16584         10.7835         5.39359 
        1.17197         10.7449         5.32755 
        1.17811         10.6652         5.26241 
        1.18424         10.5677         5.19856 
        1.19038         10.5224         5.13559 
        1.19652         10.4106         5.07368 
        1.20267         10.3125          5.0128 
        1.20881         10.2735         4.95293 
        1.21495         10.1953         4.89414 
        1.22108         10.0731         4.83632 
         1.2272         9.99728         4.77957 
        1.23334         9.91436          4.7236 
        1.23949         9.82326          4.6684 
        1.24562         9.78369         4.61424 
        1.25174         9.71703         4.56102 
        1.25789         9.63161         4.50849 
        1.26402         9.59646         4.45688 
        1.27014         9.50023         4.40621 
        1.27628          9.3831         4.35617 
        1.28244         9.32152         4.30683 
        1.28858         9.31441         4.25831 
        1.29471         9.21036         4.21066 
        1.30084         9.12014         4.16378 
        1.30697         9.09316         4.11755 
        1.31312         8.97315         4.07195 
        1.31925         8.90999         4.02719 
        1.32537         8.87196         3.98316 
        1.33151         8.81819         3.93962 
        1.33765          8.7449         3.89677 
        1.34378         8.68056         3.85464 
        1.34992         8.60532         3.81311 
        1.35606         8.56902          3.7721 
         1.3622         8.51567         3.73177 
        1.36833         8.42942         3.69213 
        1.37445         8.39128         3.65308 
        1.38059          8.3465         3.61449 
        1.38675         8.26215         3.57636 
        1.39288         8.23665         3.53893 
        1.39901         8.14952         3.50205 
        1.40515         8.11423         3.46562 
         1.4113         8.05566         3.42973 
        1.41742         7.99811         3.39448 
        1.42355         7.93564         3.35966 
         1.4297          7.9038         3.32523 
        1.43585         7.86291         3.29129 
        1.44198         7.81555         3.25796 
        1.44809         7.75619         3.22516 
        1.45423          7.6966         3.19268 
        1.46036          7.6448         3.16072 
        1.46649         7.61384         3.12918 
        1.47263         7.53896         3.09805 
        1.47877         7.49628         3.06736 
        1.48491         7.46264         3.03703 
        1.49104         7.41225         3.00718 
        1.49718         7.37131         2.97771 
        1.50333         7.32797         2.94859 
        1.50947         7.27015         2.91992 
         1.5156         7.23269         2.89168 
        1.52172         7.20091          2.8638 
        1.52787         7.14696         2.83625 
          1.534         7.09555         2.80909 
        1.54013         7.05844         2.78231 
        1.54627         7.00267         2.75583 
        1.55241         6.97104          2.7297 
        1.55855         6.94059         2.70395 
        1.56467         6.88552         2.67859 
         1.5708         6.87123          2.6535 
        1.57695         6.80876         2.62868 
        1.58308         6.76095         2.60424 
        1.58922         6.74196          2.5801 
        1.59535         6.71147         2.55627 
         1.6015         6.65119         2.53271 
        1.60764         6.60488         2.50946 
        1.61376         6.59072         2.48657 
        1.61989         6.54475         2.46394 
        1.62604         6.51056         2.44155 
        1.63218         6.48675         2.41944 
        1.63831         6.44594         2.39767 
        1.64444         6.40663         2.37615 
        1.65059         6.34672         2.35485 
        1.65673         6.34931         2.33383 
        1.66285         6.28134         2.31313 
        1.66898         6.25591         2.29267 
        1.67512         6.23127         2.27242 
        1.68127         6.18998          2.2524 
         1.6874         6.16664         2.23267 
        1.69353         6.11664         2.21318 
        1.69967         6.09664         2.19388 
        1.70581         6.06941         2.17482 
        1.71193         6.02131         2.15606 
        1.71806         6.00303         2.13748 
        1.72421         5.96336         2.11908 
        1.73035         5.94493         2.10092 
        1.73649         5.91132         2.08298 
        1.74262         5.87349         2.06526 
        1.74876         5.85499         2.04773 
        1.75489         5.82356         2.03045 
        1.76101         5.77855         2.01337 
        1.76715         5.76514         1.99647 
        1.77329          5.7227         1.97973 
        1.77943         5.69038         1.96319 
        1.78557         5.67984         1.94686 
        1.79171         5.64733         1.93071 
        1.79785         5.60988         1.91474 
        1.80399          5.5805         1.89895 
        1.81012         5.55963         1.88337 
        1.81625         5.52819         1.86797 
        1.82239           5.507         1.85271 
        1.82853         5.47074         1.83764 
        1.83466         5.44655         1.82274 
        1.84078         5.42417         1.80803 
        1.84692         5.41028         1.79346 
        1.85306         5.36996         1.77903 
         1.8592         5.33936         1.76478 
        1.86533         5.31848         1.75069 
        1.87147         5.29588         1.73675 
        1.87761         5.27282         1.72295 
        1.88375         5.23455         1.70931 
        1.88988         5.22761         1.69584 
        1.89601          5.1976         1.68251 
        1.90215          5.1709         1.66931 
        1.90829         5.14278         1.65625 
        1.91442         5.12025         1.64334 
        1.92056         5.10448         1.63058 
         1.9267         5.07004         1.61793 
        1.93284         5.04706         1.60542 
        1.93897         5.02013         1.59306 
        1.94509         5.00946         1.58086 
        1.95123         4.98253         1.56876 
        1.95737          4.9515         1.55677 
        1.96349         4.93901         1.54494 
        1.96964          4.9127          1.5332 
        1.97578         4.88465         1.52157 
        1.98192         4.87195         1.51009 
        1.98805         4.85115         1.49873 
        1.99419         4.82277         1.48748 
        2.00033         4.81315         1.47635 
        2.00647         4.78482         1.46533 
         2.0126         4.76755         1.45444 
        2.01874         4.74326         1.44365 
        2.02488         4.72593         1.43296 
        2.03101         4.69741         1.42239 
        2.03714         4.67097         1.41194 
        2.04328          4.6578         1.40159 
        2.04941         4.63031         1.39134 
        2.05554         4.61813         1.38121 
        2.06167         4.59362         1.37117 
        2.06781         4.57932         1.36122 
        2.07396         4.56802         1.35136 
        2.08009         4.54321         1.34161 
        2.08622         4.51747         1.33197 
        2.09237             4.5         1.32241 
        2.09851         4.49161         1.31293 
        2.10464          4.4684         1.30357 
        2.11077         4.43745         1.29431 
        2.11691          4.4213         1.28512 
        2.12305         4.40873         1.27602 
        2.12918         4.39784         1.26703 
        2.13531         4.37486         1.25812 
        2.14145         4.35702         1.24928 
         2.1476           4.335         1.24051 
        2.15372         4.31774         1.23188 
        2.15985         4.31595         1.22331 
        2.16599         4.27926          1.2148 
        2.17213         4.26973         1.20639 
        2.17827         4.25777         1.19805 
         2.1844         4.23662          1.1898 
        2.19054          4.2082         1.18163 
        2.19666         4.19762         1.17354 
         2.2028         4.18209         1.16553 
        2.20893         4.16822         1.15758 
        2.21508          4.1483          1.1497 
        2.22122         4.12954         1.14189 
        2.22736          4.1162         1.13417 
        2.23349         4.10725         1.12652 
        2.23962         4.09051         1.11894 
        2.24577         4.06969         1.11142 
         2.2519         4.06143         1.10398 
        2.25802         4.03599         1.09663 
        2.26417         4.02502         1.08931 
        2.27031         4.00577         1.08206 
        2.27644         3.98713          1.0749 
        2.28257         3.97016          1.0678 
        2.28872         3.96627         1.06075 
        2.29486         3.94969         1.05377 
        2.30099         3.92965         1.04686 
        2.30712         3.91473         1.04001 
        2.31326         3.89403         1.03321 
         2.3194         3.88437         1.02648 
        2.32553         3.87546         1.01982 
        2.33166         3.86236         1.01322 
         2.3378         3.84209         1.00667 
        2.34394         3.82913         1.00018 
        2.35007         3.81048        0.993748 
        2.35619          3.8009        0.987384 
        2.36233         3.78583        0.981062 
        2.36848         3.77052        0.974781 
        2.37462         3.76412        0.968569 
        2.38075         3.74704        0.962418 
        2.38689         3.73649        0.956314 
        2.39303         3.71461        0.950265 
        2.39916         3.70411        0.944274 
        2.40529          3.6905        0.938335 
        2.41143         3.67641        0.932443 
        2.41757         3.67523          0.9266 
         2.4237         3.65646        0.920817 
        2.42983         3.63647        0.915084 
        2.43598         3.62596        0.909384 
        2.44211         3.61017        0.903743 
        2.44823         3.59983        0.898162 
        2.45437         3.58808        0.892613 
        2.46052         3.57681        0.887106 
        2.46665         3.56478        0.881656 
        2.47279         3.54577        0.876253 
        2.47892         3.53408        0.870891 
        2.48507         3.52605         0.86557 
         2.4912         3.50943        0.860303 
