# k  (h/Mpc)    Pcb(k)  (Mpc/h)^3    Pcb_linear(k)  (Mpc/h)^3
     0.00783031         4197.86         4225.79 
       0.013688         5060.45         5139.34 
       0.019231         5103.51         5142.45 
      0.0249154         4703.26         4693.51 
      0.0312784         3981.02         3990.54 
      0.0375637          3301.8         3320.76 
      0.0433917            2828         2822.91 
      0.0492413         2456.52         2463.14 
      0.0555754         2216.17         2206.27 
      0.0619321         2008.61         2037.84 
       0.067871         1906.64         1914.37 
      0.0738098         1785.76         1788.93 
      0.0800417         1638.63         1636.41 
      0.0862327         1460.73         1464.51 
      0.0921407         1295.86         1295.51 
      0.0982031         1147.07         1135.21 
       0.104506         999.631         997.678 
       0.110769          903.39         896.761 
       0.116806         848.218         830.833 
       0.122832         796.743         787.728 
       0.129052         766.603         755.966 
       0.135211         741.857         726.377 
       0.141259          699.68         691.555 
       0.147318         650.195          648.09 
       0.153489         603.746         596.803 
       0.159709         558.381         543.029 
       0.165845         501.736         493.629 
       0.171974         474.404         452.163 
       0.178125         443.582          420.28 
       0.184229         414.667         397.716 
        0.19034         403.405          381.88 
       0.196428         390.522         369.669 
       0.202534         369.606         357.872 
       0.208729         361.838         344.023 
       0.214876         347.147         327.442 
       0.220989           322.6         308.583 
       0.227147         310.183          288.63 
        0.23329         293.394         269.506 
       0.239377         280.854         252.742 
       0.245482         264.663          238.87 
       0.251667         252.081         227.866 
       0.257832          248.13         219.357 
       0.263955         235.555         212.386 
       0.270079         227.638           205.9 
        0.27624         218.839         199.053 
       0.282372         212.224         191.502 
        0.28843         208.991         183.331 
       0.294538         198.414         174.699 
       0.300721         189.035         166.085 
        0.30691         184.488         158.063 
       0.313033         175.791          151.06 
       0.319153         172.096         145.076 
       0.325316         165.797         139.985 
        0.33145         160.682         135.578 
       0.337538           155.7         131.563 
       0.343633         151.271         127.611 
       0.349808         146.566         123.506 
       0.355968         142.576         119.237 
       0.362074         139.369         114.897 
       0.368217         135.746         110.551 
       0.374374          132.02         106.363 
       0.380519         126.194         102.484 
       0.386598         123.195         98.9965 
       0.392688         119.484         95.8573 
        0.39888         117.267         92.9704 
       0.405048         114.607         90.3044 
       0.411186         112.276         87.7719 
       0.417313         109.329         85.2851 
       0.423458           106.5         82.7872 
       0.429607         104.307         80.2903 
       0.435692         102.535         77.8397 
       0.441815         99.1116         75.4343 
       0.447964         96.0652         73.1269 
       0.454126         94.2546         70.9492 
       0.460267         93.3976         68.9197 
       0.466387         90.9755          67.035 
        0.47254         89.8609         65.2541 
       0.478662         86.7286         63.5629 
       0.484765         85.2929         61.9323 
       0.490885         83.1268         60.3365 
       0.497035          82.351         58.7593 
       0.503198         80.4246         57.2044 
       0.509342         78.3046         55.6917 
       0.515458         77.2607         54.2353 
       0.521598         75.3279         52.8299 
       0.527764         74.3992           51.48 
       0.533884         73.5476          50.204 
           0.54         71.6362         48.9901 
       0.546137          69.785         47.8224 
       0.552299          68.595         46.6908 
       0.558452         67.2592         45.5939 
       0.564573         66.9113         44.5319 
       0.570708         64.9281         43.4945 
       0.576825         64.2738         42.4857 
       0.582926         63.3968          41.506 
       0.589034         62.1843         40.5543 
       0.595184         61.3645          39.629 
       0.601379         59.8078         38.7316 
       0.607522         58.8032         37.8746 
       0.613639         58.2188         37.0504 
       0.619772         57.1027         36.2506 
       0.625918         56.3315         35.4731 
       0.632068         55.6259         34.7176 
       0.638161         54.5652         33.9899 
         0.6443          54.036         33.2762 
       0.650464         52.7919         32.5785 
       0.656582         52.5362         31.9043 
       0.662703         51.8054         31.2483 
       0.668861         50.5666         30.6075 
       0.675024         50.2723         29.9854 
       0.681124         49.6816         29.3887 
       0.687237          48.674         28.8085 
       0.693381         48.0679         28.2421 
       0.699536         47.6401         27.6901 
       0.705665         46.8654          27.155 
       0.711789         46.1577         26.6337 
       0.717957          45.417          26.122 
        0.72409         44.9787         25.6262 
       0.730186         44.7068         25.1462 
       0.736317         43.8546         24.6761 
       0.742472         43.3292         24.2166 
       0.748622         42.7044         23.7696 
        0.75476         41.9903         23.3353 
       0.760888         41.9031         22.9127 
       0.767043         41.0723         22.4991 
       0.773185         40.6209         22.0965 
       0.779291          40.114         21.7061 
       0.785407         39.5711         21.3245 
       0.791564         39.5246         20.9497 
       0.797719         38.7549          20.584 
       0.803834         38.4873         20.2294 
       0.809972         37.9287          19.882 
       0.816124         37.5541         19.5421 
       0.822261         37.0712         19.2111 
       0.828378         36.8454         18.8889 
       0.834502         36.3987          18.574 
       0.840667         36.0705         18.2643 
       0.846816         35.4639         17.9626 
       0.852925         35.2568         17.6696 
       0.859047         35.0685         17.3826 
       0.865192         34.4918         17.1011 
       0.871341         34.0767         16.8256 
       0.877463         33.7724         16.5574 
       0.883569         33.6198         16.2958 
       0.889708         33.1939         16.0385 
       0.895864         32.8083         15.7862 
       0.902008         32.4848         15.5398 
       0.908149         32.1394         15.2988 
       0.914301         31.9096         15.0626 
       0.920448          31.602         14.8316 
       0.926574         31.1984         14.6063 
       0.932687         30.9092         14.3862 
       0.938823         30.5293         14.1698 
       0.944975         30.2974         13.9575 
       0.951105         30.0659         13.7503 
       0.957225         29.8353         13.5476 
       0.963368         29.4889         13.3484 
       0.969511         29.2352         13.1532 
       0.975621         29.0088          12.963 
       0.981748           28.67         12.7761 
       0.987916         28.4887         12.5917 
        0.99406         28.1352         12.4117 
        1.00019         27.9762         12.2355 
        1.00632         27.7521          12.063 
        1.01246         27.4888         11.8935 
        1.01859         27.2316         11.7276 
        1.02471         26.9937         11.5651 
        1.03085         26.8689         11.4052 
        1.03698         26.6757         11.2486 
        1.04314         26.3968         11.0943 
        1.04929         26.0842         10.9432 
        1.05541         26.0094         10.7956 
        1.06154         25.8103         10.6504 
        1.06769         25.4519         10.5076 
        1.07382         25.3172          10.368 
        1.07993         25.1001         10.2312 
        1.08607         24.9241         10.0963 
        1.09222         24.7252         9.96375 
        1.09836         24.4828         9.83373 
        1.10449          24.395         9.70619 
        1.11063         24.1674         9.58077 
        1.11677         24.1087         9.45763 
         1.1229         23.8443         9.33687 
        1.12903          23.638         9.21812 
        1.13518           23.54         9.10134 
        1.14131         23.3441         8.98665 
        1.14745         23.0799         8.87401 
        1.15359         22.8706         8.76329 
        1.15973         22.7619         8.65442 
        1.16584         22.5801         8.54789 
        1.17197         22.3285         8.44301 
        1.17811         22.2483         8.33957 
        1.18424         22.0086         8.23817 
        1.19038         21.9534         8.13817 
        1.19652         21.7308         8.03987 
        1.20267         21.6504          7.9432 
        1.20881         21.4449         7.84815 
        1.21495         21.3334          7.7548 
        1.22108         21.2586           7.663 
         1.2272         21.0791          7.5729 
        1.23334         20.9502         7.48404 
        1.23949          20.771         7.39641 
        1.24562         20.5648         7.31043 
        1.25174         20.5091         7.22595 
        1.25789          20.395         7.14256 
        1.26402         20.2642         7.06063 
        1.27014         20.1416          6.9802 
        1.27628         19.9391         6.90078 
        1.28244         19.9339         6.82245 
        1.28858         19.7165         6.74545 
        1.29471         19.5512         6.66981 
        1.30084         19.4361          6.5954 
        1.30697         19.3386         6.52202 
        1.31312         19.1957         6.44966 
        1.31925         19.0838         6.37862 
        1.32537         18.9291         6.30873 
        1.33151         18.8069         6.23964 
        1.33765         18.7769         6.17163 
        1.34378         18.6539         6.10477 
        1.34992         18.5224         6.03886 
        1.35606         18.3592         5.97378 
         1.3622         18.2518         5.90978 
        1.36833         18.2031         5.84687 
        1.37445         18.0674         5.78491 
        1.38059         17.9599         5.72365 
        1.38675         17.8519         5.66314 
        1.39288         17.7209         5.60375 
        1.39901         17.6166         5.54523 
        1.40515         17.5469         5.48742 
         1.4113         17.4436         5.43046 
        1.41742         17.3548         5.37452 
        1.42355         17.2125         5.31927 
         1.4297         17.1168         5.26464 
        1.43585         17.0263         5.21079 
        1.44198         16.9771          5.1579 
        1.44809         16.8645         5.10585 
        1.45423         16.7618         5.05432 
        1.46036         16.6601          5.0036 
        1.46649         16.5616         4.95356 
        1.47263         16.4773         4.90417 
        1.47877         16.3918         4.85547 
        1.48491         16.3103         4.80736 
        1.49104         16.2049         4.76001 
        1.49718         16.1429         4.71326 
        1.50333         16.0675         4.66706 
        1.50947          15.973         4.62158 
         1.5156         15.8854         4.57677 
        1.52172         15.7744         4.53256 
        1.52787         15.7422         4.48885 
          1.534         15.6478         4.44576 
        1.54013         15.5776         4.40329 
        1.54627         15.4463          4.3613 
        1.55241         15.3523         4.31985 
        1.55855         15.2941         4.27899 
        1.56467          15.257         4.23878 
         1.5708         15.1696         4.19898 
        1.57695         15.0918         4.15962 
        1.58308         14.9774         4.12087 
        1.58922         14.9159         4.08257 
        1.59535         14.8479         4.04478 
         1.6015         14.7322         4.00742 
        1.60764         14.6866         3.97055 
        1.61376         14.6433         3.93424 
        1.61989         14.5147         3.89836 
        1.62604         14.4812         3.86284 
        1.63218         14.4147         3.82779 
        1.63831         14.3076         3.79326 
        1.64444         14.2396         3.75914 
        1.65059         14.1789         3.72536 
        1.65673         14.1285         3.69203 
        1.66285         14.0195         3.65921 
        1.66898         14.0013         3.62677 
        1.67512         13.9575         3.59466 
        1.68127         13.8573         3.56292 
         1.6874         13.8162         3.53162 
        1.69353         13.6767         3.50073 
        1.69967         13.6414         3.47013 
        1.70581         13.5926          3.4399 
        1.71193         13.5024         3.41016 
        1.71806         13.4574          3.3807 
        1.72421         13.3978         3.35153 
        1.73035         13.3322         3.32274 
        1.73649         13.2881         3.29429 
        1.74262         13.1877          3.2662 
        1.74876         13.1511         3.23842 
        1.75489         13.1037         3.21102 
        1.76101         13.0017         3.18395 
        1.76715         12.9841         3.15715 
        1.77329         12.8972         3.13063 
        1.77943         12.8384          3.1044 
        1.78557         12.8144         3.07851 
        1.79171          12.723         3.05291 
        1.79785         12.6751          3.0276 
        1.80399         12.6045         3.00258 
        1.81012         12.5691         2.97787 
        1.81625         12.5014         2.95346 
        1.82239         12.4379         2.92928 
        1.82853         12.3836         2.90539 
        1.83466         12.3078         2.88178 
        1.84078         12.2776         2.85847 
        1.84692         12.2698         2.83537 
        1.85306         12.1937          2.8125 
         1.8592         12.1421         2.78992 
        1.86533         12.0527          2.7676 
        1.87147         12.0112         2.74549 
        1.87761         11.9693         2.72362 
        1.88375         11.9358         2.70202 
        1.88988          11.843         2.68067 
        1.89601         11.8265         2.65954 
        1.90215         11.7443         2.63862 
        1.90829         11.6875         2.61794 
        1.91442         11.6348         2.59748 
        1.92056         11.6313         2.57725 
         1.9267         11.5743         2.55722 
        1.93284         11.5553         2.53739 
        1.93897         11.4648         2.51781 
        1.94509         11.4202         2.49848 
        1.95123         11.3678          2.4793 
        1.95737         11.3322         2.46031 
        1.96349         11.2598         2.44157 
        1.96964         11.2414         2.42296 
        1.97578         11.2008         2.40455 
        1.98192         11.1582         2.38636 
        1.98805          11.083         2.36836 
        1.99419         11.0545         2.35054 
        2.00033         11.0088          2.3329 
        2.00647         10.9504         2.31544 
         2.0126         10.9226          2.2982 
        2.01874         10.8615          2.2811 
        2.02488          10.804         2.26416 
        2.03101         10.7989         2.24742 
        2.03714         10.7336         2.23087 
        2.04328          10.683         2.21447 
        2.04941          10.633         2.19824 
        2.05554         10.6178         2.18219 
        2.06167         10.5838         2.16628 
        2.06781         10.5369         2.15053 
        2.07396         10.5075         2.13491 
        2.08009         10.4199         2.11947 
        2.08622         10.4178          2.1042 
        2.09237         10.3814         2.08905 
        2.09851         10.3127         2.07405 
        2.10464         10.2973         2.05922 
        2.11077         10.2265         2.04455 
        2.11691         10.2111            2.03 
        2.12305         10.1586         2.01558 
        2.12918         10.0985         2.00134 
        2.13531         10.0826         1.98724 
        2.14145         10.0306         1.97324 
         2.1476         9.99995         1.95935 
        2.15372         9.97659         1.94567 
        2.15985         9.92608         1.93211 
        2.16599          9.8948         1.91864 
        2.17213         9.88084         1.90531 
        2.17827         9.82052         1.89211 
         2.1844         9.78715         1.87905 
        2.19054         9.75673         1.86611 
        2.19666         9.72184          1.8533 
         2.2028         9.68889         1.84061 
        2.20893         9.63394         1.82803 
        2.21508          9.6118         1.81555 
        2.22122         9.55027         1.80318 
        2.22736          9.5302         1.79096 
        2.23349         9.49152         1.77885 
        2.23962         9.47072         1.76685 
        2.24577         9.44688         1.75495 
         2.2519         9.40947         1.74317 
        2.25802         9.33512         1.73152 
        2.26417          9.3393         1.71994 
        2.27031         9.30836         1.70846 
        2.27644         9.28322         1.69712 
        2.28257         9.20542         1.68588 
        2.28872         9.19442         1.67473 
        2.29486         9.16745         1.66367 
        2.30099          9.1317         1.65274 
        2.30712         9.07307          1.6419 
        2.31326         9.04429         1.63114 
         2.3194         9.01577         1.62048 
        2.32553         8.99205         1.60994 
        2.33166         8.94718         1.59949 
         2.3378         8.92822         1.58912 
        2.34394         8.88752         1.57884 
        2.35007          8.8689         1.56867 
        2.35619         8.83158          1.5586 
        2.36233         8.78498         1.54859 
        2.36848         8.75671         1.53865 
        2.37462         8.72756         1.52882 
        2.38075         8.69984         1.51908 
        2.38689         8.68377         1.50942 
        2.39303         8.63478         1.49985 
        2.39916         8.62405         1.49037 
        2.40529         8.59487         1.48097 
        2.41143         8.55025         1.47165 
        2.41757         8.51105          1.4624 
         2.4237         8.49733         1.45325 
        2.42983         8.47131         1.44417 
        2.43598         8.43601         1.43516 
        2.44211          8.4012         1.42623 
        2.44823         8.37621          1.4174 
        2.45437         8.34753         1.40862 
        2.46052         8.33936          1.3999 
        2.46665         8.30193         1.39128 
        2.47279         8.26301         1.38273 
        2.47892         8.22769         1.37425 
        2.48507         8.20637         1.36583 
         2.4912         8.18887         1.35749 
