# k  (h/Mpc)    P(k)  (Mpc/h)^3    P_linear(k)  (Mpc/h)^3
     0.00783031         2868.42         2907.35 
       0.013688         3268.91          3269.1 
       0.019231         3037.86         3034.42 
      0.0249154         2556.04         2572.24 
      0.0312784         2052.01         2050.22 
      0.0375637         1667.28         1658.17 
      0.0433917         1420.83         1421.92 
      0.0492413          1279.1         1276.96 
      0.0555754         1164.88         1173.27 
      0.0619321         1083.71         1077.41 
       0.067871         967.753         971.945 
      0.0738098         848.562         851.475 
      0.0800417         721.404         725.096 
      0.0862327         619.433         618.142 
      0.0921407         547.019         542.956 
      0.0982031         493.902         492.836 
       0.104506         467.879         461.688 
       0.110769         444.113         440.147 
       0.116806         419.149         418.193 
       0.122832         392.927         389.738 
       0.129052         354.593         353.789 
       0.135211         318.209         316.169 
       0.141259         287.853         282.692 
       0.147318         262.789          256.21 
       0.153489         242.322         237.345 
       0.159709         230.122         224.952 
       0.165845         222.621         216.188 
       0.171974         211.579         207.745 
       0.178125         201.881         197.487 
       0.184229         190.135         185.068 
        0.19034          174.31         171.356 
       0.196428         163.467          158.02 
       0.202534         153.756         146.385 
       0.208729           143.5          137.08 
       0.214876         135.639         130.209 
       0.220989         131.278         124.977 
       0.227147         125.213         120.354 
        0.23329         120.284         115.576 
       0.239377         115.686         110.278 
       0.245482         108.341         104.453 
       0.251667         104.044         98.4264 
       0.257832         98.6433         92.7763 
       0.263955         93.7896         87.8647 
       0.270079         89.6057         83.7719 
        0.27624         87.0047         80.3606 
       0.282372         83.9596         77.4128 
        0.28843         80.5549         74.6627 
       0.294538         77.3381         71.8486 
       0.300721         75.2008         68.8876 
        0.30691          71.509         65.8537 
       0.313033         68.7224         62.9149 
       0.319153         65.1845         60.1645 
       0.325316         63.7623         57.6696 
        0.33145         61.1351          55.469 
       0.337538         59.4576         53.5173 
       0.343633         57.2569         51.7145 
       0.349808         55.5719         49.9586 
       0.355968         53.9616         48.2297 
       0.362074         52.1008         46.5175 
       0.368217         50.3281         44.8212 
       0.374374         48.6099         43.1803 
       0.380519         47.2581         41.6337 
       0.386598           45.85         40.2158 
       0.392688          44.767         38.9011 
        0.39888           43.33         37.6564 
       0.405048         42.1799         36.4853 
       0.411186         41.0945         35.3619 
       0.417313         39.7702         34.2683 
       0.423458         38.6713         33.1988 
       0.429607         37.5771          32.158 
       0.435692         36.3191         31.1663 
       0.441815         35.6164         30.2161 
       0.447964         34.9188         29.3132 
       0.454126         33.4604         28.4557 
       0.460267          32.884         27.6438 
       0.466387         31.8956         26.8702 
        0.47254         31.3044         26.1204 
       0.478662         30.7525         25.3963 
       0.484765         29.7425         24.6966 
       0.490885         29.0546         24.0184 
       0.497035         28.6486         23.3617 
       0.503198         27.8134         22.7294 
       0.509342         27.0831         22.1247 
       0.515458         26.4729         21.5483 
       0.521598         25.9878         20.9931 
       0.527764           25.39         20.4561 
       0.533884         24.9594         19.9409 
           0.54         24.3434         19.4422 
       0.546137         23.9456         18.9576 
       0.552299         23.5214         18.4872 
       0.558452         22.7837         18.0336 
       0.564573         22.4106         17.5978 
       0.570708         22.0039         17.1759 
       0.576825         21.4677         16.7697 
       0.582926          21.009         16.3783 
       0.589034         20.4702         15.9993 
       0.595184         20.1943         15.6302 
       0.601379          19.758         15.2702 
       0.607522         19.3847         14.9242 
       0.613639         19.1649           14.59 
       0.619772         18.6564         14.2651 
       0.625918         18.5236         13.9495 
       0.632068         18.2201         13.6434 
       0.638161         17.7946         13.3494 
         0.6443         17.4306         13.0622 
       0.650464         17.0969         12.7827 
       0.656582         16.9752         12.5136 
       0.662703         16.6304         12.2521 
       0.668861         16.3028         11.9967 
       0.675024         15.9985         11.7483 
       0.681124         15.7195         11.5094 
       0.687237         15.4423         11.2766 
       0.693381         15.2805         11.0492 
       0.699536          14.871         10.8278 
       0.705665         14.7926         10.6134 
       0.711789         14.4594          10.405 
       0.717957         14.2315         10.2009 
        0.72409         14.0175         10.0035 
       0.730186         13.8124         9.81254 
       0.736317         13.6503         9.62554 
       0.742472         13.4066         9.44276 
       0.748622         13.2498         9.26491 
        0.75476         12.9959         9.09204 
       0.760888         12.7895         8.92385 
       0.767043         12.6211         8.75927 
       0.773185         12.3916          8.5992 
       0.779291         12.3056         8.44406 
       0.785407         12.1521         8.29253 
       0.791564         11.9331          8.1438 
       0.797719         11.6519          7.9988 
       0.803834         11.6263         7.85827 
       0.809972         11.5071         7.72063 
       0.816124         11.2478         7.58601 
       0.822261         11.0982         7.45498 
       0.828378         10.9827         7.32746 
       0.834502         10.8777         7.20283 
       0.840667         10.6946         7.08031 
       0.846816         10.4956           6.961 
       0.852925          10.393         6.84521 
       0.859047         10.2669         6.73183 
       0.865192         10.1671         6.62066 
       0.871341         10.0635         6.51194 
       0.877463         9.89218         6.40617 
       0.883569         9.75086         6.30303 
       0.889708         9.58602         6.20164 
       0.895864         9.49051         6.10224 
       0.902008         9.41826         6.00523 
       0.908149         9.31176         5.91039 
       0.914301         9.22576         5.81746 
       0.920448         9.06005         5.72662 
       0.926574         8.95925         5.63805 
       0.932687         8.84996         5.55154 
       0.938823         8.73752         5.46655 
       0.944975         8.62846         5.38314 
       0.951105          8.5385         5.30178 
       0.957225         8.47273         5.22225 
       0.963368          8.3834         5.14408 
       0.969511          8.2888         5.06751 
       0.975621          8.1984         4.99291 
       0.981748         8.08467         4.91963 
       0.987916         8.02884         4.84736 
        0.99406         7.90409         4.77682 
        1.00019         7.78769         4.70782 
        1.00632         7.76016         4.64026 
        1.01246         7.67224         4.57392 
        1.01859         7.54536         4.50899 
        1.02471         7.50607         4.44541 
        1.03085         7.41966         4.38284 
        1.03698         7.30678         4.32161 
        1.04314         7.25828         4.26129 
        1.04929         7.16799         4.20227 
        1.05541         7.07889          4.1446 
        1.06154         7.03059         4.08788 
        1.06769         6.99498         4.03214 
        1.07382         6.88704         3.97763 
        1.07993         6.81614         3.92425 
        1.08607         6.76166         3.87164 
        1.09222         6.70039         3.81994 
        1.09836         6.61482         3.76925 
        1.10449         6.56297         3.71954 
        1.11063         6.48253         3.67068 
        1.11677          6.4484         3.62271 
         1.1229         6.40089         3.57569 
        1.12903         6.31274         3.52946 
        1.13518         6.23436         3.48401 
        1.14131         6.19433         3.43939 
        1.14745         6.12901         3.39558 
        1.15359         6.08701         3.35253 
        1.15973         6.01876         3.31021 
        1.16584         5.93909         3.26881 
        1.17197         5.89697         3.22806 
        1.17811         5.86745         3.18787 
        1.18424         5.80589          3.1485 
        1.19038         5.77789         3.10967 
        1.19652         5.70634         3.07151 
        1.20267         5.64952         3.03399 
        1.20881         5.62887         2.99711 
        1.21495         5.57454          2.9609 
        1.22108         5.50456         2.92529 
         1.2272         5.46406         2.89035 
        1.23334         5.40809          2.8559 
        1.23949         5.35607         2.82194 
        1.24562         5.32817         2.78862 
        1.25174         5.28379         2.75589 
        1.25789         5.23814         2.72359 
        1.26402         5.21065         2.69186 
        1.27014         5.15894         2.66072 
        1.27628         5.09933         2.62998 
        1.28244         5.04817         2.59966 
        1.28858         5.04521         2.56987 
        1.29471         4.98022         2.54061 
        1.30084         4.92935         2.51183 
        1.30697         4.92266         2.48346 
        1.31312         4.84373         2.45548 
        1.31925         4.80574         2.42803 
        1.32537          4.7758         2.40102 
        1.33151         4.75557         2.37433 
        1.33765         4.70062         2.34806 
        1.34378         4.66905         2.32224 
        1.34992         4.63319         2.29679 
        1.35606         4.59219         2.27166 
         1.3622         4.56873         2.24696 
        1.36833         4.51933         2.22269 
        1.37445         4.49021         2.19878 
        1.38059         4.47391         2.17516 
        1.38675         4.43215         2.15182 
        1.39288         4.41179         2.12892 
        1.39901         4.35349         2.10637 
        1.40515         4.33211         2.08409 
         1.4113         4.29911         2.06214 
        1.41742         4.26618         2.04059 
        1.42355         4.22647         2.01931 
         1.4297         4.20827         1.99826 
        1.43585         4.18328         1.97753 
        1.44198         4.16028         1.95717 
        1.44809         4.12097         1.93713 
        1.45423         4.08845         1.91731 
        1.46036         4.05245         1.89779 
        1.46649         4.03433         1.87854 
        1.47263         3.99394         1.85954 
        1.47877         3.96833         1.84082 
        1.48491         3.94555         1.82232 
        1.49104         3.91806         1.80411 
        1.49718         3.89255         1.78614 
        1.50333          3.8696         1.76839 
        1.50947         3.83281         1.75091 
         1.5156         3.81308          1.7337 
        1.52172         3.79204         1.71672 
        1.52787         3.76419         1.69993 
          1.534         3.73199         1.68338 
        1.54013         3.71359         1.66708 
        1.54627         3.68155         1.65096 
        1.55241         3.65642         1.63505 
        1.55855         3.64115         1.61937 
        1.56467         3.61423         1.60394 
         1.5708         3.59557         1.58867 
        1.57695         3.56503         1.57358 
        1.58308         3.53328         1.55872 
        1.58922         3.52746         1.54403 
        1.59535         3.50713         1.52954 
         1.6015         3.47162         1.51522 
        1.60764         3.44837         1.50109 
        1.61376         3.43409         1.48718 
        1.61989          3.4105         1.47343 
        1.62604         3.38861         1.45982 
        1.63218         3.37881          1.4464 
        1.63831         3.34682         1.43317 
        1.64444         3.33247         1.42011 
        1.65059         3.29461         1.40718 
        1.65673         3.29665         1.39442 
        1.66285         3.26185         1.38186 
        1.66898         3.24314         1.36944 
        1.67512         3.22663         1.35716 
        1.68127         3.20495         1.34501 
         1.6874         3.19146         1.33304 
        1.69353         3.16139         1.32123 
        1.69967         3.15422         1.30952 
        1.70581         3.13593         1.29797 
        1.71193         3.11055          1.2866 
        1.71806         3.09623         1.27534 
        1.72421         3.07748         1.26419 
        1.73035         3.06332         1.25319 
        1.73649         3.04357         1.24232 
        1.74262         3.02229         1.23159 
        1.74876         3.01069         1.22098 
        1.75489         2.99273         1.21051 
        1.76101         2.96965         1.20017 
        1.76715         2.96079         1.18994 
        1.77329         2.94174         1.17982 
        1.77943         2.91598          1.1698 
        1.78557         2.90574         1.15992 
        1.79171         2.89113         1.15015 
        1.79785         2.87375          1.1405 
        1.80399         2.85715         1.13095 
        1.81012         2.83893         1.12153 
        1.81625         2.82837         1.11221 
        1.82239          2.8131         1.10299 
        1.82853         2.79125         1.09388 
        1.83466         2.78004         1.08488 
        1.84078         2.77078         1.07599 
        1.84692         2.75802         1.06719 
        1.85306         2.73593         1.05847 
         1.8592         2.71749         1.04987 
        1.86533         2.70451         1.04136 
        1.87147         2.69277         1.03294 
        1.87761         2.67715         1.02461 
        1.88375         2.66099         1.01638 
        1.88988         2.65123         1.00825 
        1.89601         2.63335          1.0002 
        1.90215         2.61895        0.992238 
        1.90829         2.60384        0.984364 
        1.91442         2.59269        0.976574 
        1.92056         2.58098        0.968876 
         1.9267         2.56342        0.961252 
        1.93284         2.55345        0.953706 
        1.93897         2.53935        0.946256 
        1.94509         2.53077          0.9389 
        1.95123         2.51461        0.931605 
        1.95737         2.49524        0.924381 
        1.96349         2.49108        0.917253 
        1.96964         2.48045        0.910179 
        1.97578         2.45948        0.903176 
        1.98192         2.45333        0.896262 
        1.98805         2.43983        0.889418 
        1.99419         2.42567        0.882646 
        2.00033         2.41888        0.875941 
        2.00647          2.4039        0.869307 
         2.0126         2.39686        0.862754 
        2.01874         2.37755        0.856257 
        2.02488         2.36897        0.849822 
        2.03101         2.35456        0.843465 
        2.03714         2.34205        0.837179 
        2.04328         2.33086        0.830949 
        2.04941         2.31718        0.824788 
        2.05554         2.30974        0.818694 
        2.06167         2.29852        0.812653 
        2.06781          2.2905        0.806673 
        2.07396         2.28137        0.800744 
        2.08009          2.2689        0.794884 
        2.08622         2.25635         0.78909 
        2.09237         2.24047        0.783342 
        2.09851         2.23916        0.777651 
        2.10464         2.22857        0.772025 
        2.11077         2.21196        0.766462 
        2.11691         2.20247        0.760941 
        2.12305         2.19603        0.755474 
        2.12918         2.18807        0.750074 
        2.13531          2.1766        0.744726 
        2.14145         2.16639        0.739418 
         2.1476         2.15339        0.734155 
        2.15372          2.1418         0.72897 
        2.15985         2.14128        0.723829 
        2.16599         2.12261        0.718724 
        2.17213         2.11281        0.713673 
        2.17827         2.10883        0.708672 
         2.1844         2.09882        0.703723 
        2.19054         2.08698        0.698819 
        2.19666         2.07656         0.69397 
         2.2028         2.06731        0.689161 
        2.20893         2.05866        0.684396 
        2.21508         2.05012        0.679671 
        2.22122         2.03956        0.674989 
        2.22736         2.03184         0.67036 
        2.23349         2.02434        0.665776 
        2.23962          2.0138        0.661233 
        2.24577         2.00786        0.656727 
         2.2519         2.00167         0.65227 
        2.25802         1.99069        0.647862 
        2.26417         1.98455        0.643481 
        2.27031         1.97263        0.639137 
        2.27644         1.96251        0.634846 
        2.28257         1.94929        0.630594 
        2.28872         1.95084        0.626374 
        2.29486         1.93864        0.622192 
        2.30099         1.92809        0.618057 
        2.30712         1.92046        0.613958 
        2.31326         1.91112        0.609889 
         2.3194         1.90536         0.60586 
        2.32553         1.90117        0.601873 
        2.33166         1.89169        0.597924 
         2.3378         1.88227        0.594005 
        2.34394         1.87408         0.59012 
        2.35007         1.86613        0.586274 
        2.35619         1.85943        0.582468 
        2.36233         1.85163        0.578687 
        2.36848         1.84239        0.574931 
        2.37462          1.8395        0.571217 
        2.38075         1.82805        0.567539 
        2.38689         1.82529         0.56389 
        2.39303         1.81415        0.560273 
        2.39916          1.8076        0.556693 
        2.40529         1.80021        0.553143 
        2.41143         1.79181        0.549623 
        2.41757         1.78746        0.546131 
         2.4237         1.78086        0.542675 
        2.42983         1.76934         0.53925 
        2.43598         1.76353        0.535846 
        2.44211         1.75511        0.532476 
        2.44823         1.75039        0.529143 
        2.45437         1.74256        0.525829 
        2.46052         1.73871        0.522541 
        2.46665         1.73061        0.519287 
        2.47279         1.72177        0.516061 
        2.47892         1.71586        0.512861 
        2.48507         1.71106        0.509684 
         2.4912          1.6995        0.506541 
