# k  (h/Mpc)    Pcb(k)  (Mpc/h)^3    Pcb_linear(k)  (Mpc/h)^3
     0.00783031         17033.3         17100.4 
       0.013688           20925         21526.6 
       0.019231         21982.7         22380.4 
      0.0249154         21321.7         21347.8 
      0.0312784         18815.1         19128.6 
      0.0375637         16293.4         16722.9 
      0.0433917         14542.4         14751.7 
      0.0492413         12877.7           13184 
      0.0555754         11731.9         11933.9 
      0.0619321         10466.7         11017.1 
       0.067871         9945.53         10317.8 
      0.0738098         9389.84         9649.35 
      0.0800417         8663.86         8905.64 
      0.0862327         7853.89          8111.5 
      0.0921407         7162.08         7338.54 
      0.0982031         6550.44         6588.17 
       0.104506         5825.67         5910.09 
       0.110769         5360.02         5370.58 
       0.116806         5083.39         4977.27 
       0.122832          4763.6         4685.44 
       0.129052         4501.59         4451.86 
       0.135211          4391.3         4247.53 
       0.141259         4098.37         4041.49 
       0.147318         3834.26         3813.35 
       0.153489         3633.08         3558.61 
       0.159709          3497.5         3292.58 
       0.165845         3194.13         3040.18 
       0.171974            3092         2815.25 
       0.178125         2983.78         2626.92 
       0.184229         2741.19         2478.53 
        0.19034         2705.08         2362.44 
       0.196428         2632.57         2268.49 
       0.202534         2490.86         2184.08 
       0.208729         2443.23         2098.07 
       0.214876         2342.29         2006.19 
       0.220989         2240.84         1907.24 
       0.227147         2177.76         1803.21 
        0.23329         2092.45         1700.65 
       0.239377         2081.38         1605.88 
       0.245482         1986.42         1521.73 
       0.251667         1913.82         1449.28 
       0.257832         1880.29         1388.93 
       0.263955         1803.53         1337.95 
       0.270079         1764.26         1292.25 
        0.27624         1692.21         1248.06 
       0.282372         1678.43         1203.42 
        0.28843         1643.13         1157.58 
       0.294538         1575.95         1109.99 
       0.300721         1551.26          1061.8 
        0.30691         1509.34         1015.29 
       0.313033         1457.92         972.547 
       0.319153          1444.5         933.965 
       0.325316         1426.77         899.478 
        0.33145         1395.87         868.903 
       0.337538         1354.19         841.308 
       0.343633         1325.84         815.301 
       0.349808          1305.7         789.645 
       0.355968         1277.49         764.132 
       0.362074         1245.27         738.744 
       0.368217         1240.75         713.341 
       0.374374         1220.65         688.416 
       0.380519         1182.14         664.611 
       0.386598         1178.91         642.471 
       0.392688         1147.29         621.883 
        0.39888         1129.24         602.572 
       0.405048         1106.83         584.696 
       0.411186         1101.43         567.962 
       0.417313         1097.74          551.96 
       0.423458         1065.91         536.332 
       0.429607         1039.47         520.987 
       0.435692         1031.61         506.052 
       0.441815          1011.3         491.327 
       0.447964          1003.9         476.994 
       0.454126         989.922          463.21 
       0.460267         979.225         450.123 
       0.466387         962.779         437.777 
        0.47254         947.337         426.033 
       0.478662         936.463         414.918 
       0.484765         927.014         404.306 
       0.490885         916.425         394.048 
       0.497035          900.23          384.04 
       0.503198         899.809         374.256 
       0.509342         882.707         364.749 
       0.515458         865.682         355.551 
       0.521598         867.712         346.604 
       0.527764         846.357         337.929 
       0.533884         836.463         329.653 
           0.54          832.19         321.721 
       0.546137         822.202          314.08 
       0.552299         815.137         306.693 
       0.558452         807.038         299.573 
       0.564573         803.344         292.715 
       0.570708         793.567         286.045 
       0.576825         777.977         279.578 
       0.582926         776.338         273.299 
       0.589034         767.853         267.186 
       0.595184          757.93         261.216 
       0.601379         746.647         255.395 
       0.607522         737.629         249.811 
       0.613639         736.856          244.43 
       0.619772         729.135         239.206 
       0.625918         721.157         234.136 
       0.632068         716.128         229.217 
       0.638161         705.836         224.486 
         0.6443         699.523         219.852 
       0.650464         694.912         215.325 
       0.656582         689.561          210.95 
       0.662703         680.525          206.69 
       0.668861         673.541         202.522 
       0.675024         670.449         198.468 
       0.681124         657.355         194.571 
       0.687237         658.162         190.776 
       0.693381         646.778         187.067 
       0.699536         648.888         183.453 
       0.705665         638.781         179.951 
       0.711789         636.945         176.544 
       0.717957          629.38         173.201 
        0.72409         624.159         169.963 
       0.730186         621.807         166.827 
       0.736317         614.249         163.754 
       0.742472         606.637         160.747 
       0.748622         606.183         157.819 
        0.75476         596.656          154.97 
       0.760888         594.782         152.196 
       0.767043          592.15          149.48 
       0.773185         586.971         146.837 
       0.779291         580.742         144.273 
       0.785407         576.277         141.767 
       0.791564         573.345         139.306 
       0.797719         564.427         136.905 
       0.803834         564.851         134.577 
       0.809972         556.936         132.294 
       0.816124         553.471          130.06 
       0.822261         549.721         127.884 
       0.828378         548.154         125.764 
       0.834502         539.124         123.691 
       0.840667         537.133         121.651 
       0.846816         533.728         119.663 
       0.852925         531.582         117.733 
       0.859047         525.523         115.841 
       0.865192         522.822         113.985 
       0.871341         517.338         112.168 
       0.877463         516.843           110.4 
       0.883569         511.502         108.674 
       0.889708         505.363         106.976 
       0.895864          500.66         105.311 
       0.902008         500.045         103.685 
       0.908149         494.964         102.094 
       0.914301         493.049         100.534 
       0.920448          487.17         99.0081 
       0.926574         484.825         97.5195 
       0.932687         482.989         96.0648 
       0.938823         477.634         94.6346 
       0.944975         475.146         93.2305 
       0.951105         472.041         91.8599 
       0.957225         466.083         90.5195 
       0.963368         466.009         89.2013 
       0.969511          460.81         87.9094 
       0.975621         457.713         86.6502 
       0.981748         455.338         85.4126 
       0.987916         452.358         84.1914 
        0.99406         447.901         82.9988 
        1.00019         444.006         81.8318 
        1.00632         441.913         80.6884 
        1.01246         438.289         79.5652 
        1.01859         435.459         78.4654 
        1.02471         433.738         77.3878 
        1.03085         430.229         76.3268 
        1.03698         428.027          75.288 
        1.04314         423.859         74.2643 
        1.04929         423.056          73.262 
        1.05541         417.561         72.2824 
        1.06154         415.738         71.3184 
        1.06769         412.278         70.3706 
        1.07382         408.338         69.4431 
        1.07993          408.75         68.5346 
        1.08607         405.909         67.6386 
        1.09222         401.778         66.7578 
        1.09836         399.114         65.8938 
        1.10449         395.576         65.0461 
        1.11063         394.579         64.2124 
        1.11677         390.428         63.3937 
         1.1229         388.518         62.5906 
        1.12903         384.902         61.8009 
        1.13518          384.17         61.0241 
        1.14131         381.371         60.2611 
        1.14745         377.605         59.5117 
        1.15359         374.789         58.7749 
        1.15973         373.037         58.0502 
        1.16584         371.447         57.3411 
        1.17197         368.557         56.6428 
        1.17811         364.049         55.9541 
        1.18424         363.639         55.2788 
        1.19038         361.296         54.6127 
        1.19652         357.747         53.9579 
        1.20267         356.035         53.3138 
        1.20881         354.453         52.6804 
        1.21495         350.153         52.0583 
        1.22108         350.331         51.4464 
         1.2272         345.048         50.8458 
        1.23334         343.846         50.2534 
        1.23949          341.33         49.6691 
        1.24562         340.754         49.0957 
        1.25174         337.943         48.5323 
        1.25789         334.856          47.976 
        1.26402         333.328         47.4294 
        1.27014         331.287         46.8928 
        1.27628         328.885         46.3628 
        1.28244         326.033           45.84 
        1.28858         324.702         45.3261 
        1.29471         323.137         44.8211 
        1.30084         321.652         44.3244 
        1.30697         318.026         43.8344 
        1.31312         316.298         43.3512 
        1.31925         314.589         42.8768 
        1.32537         313.081           42.41 
        1.33151         309.787         41.9484 
        1.33765         307.693         41.4941 
        1.34378         306.427         41.0473 
        1.34992         303.682         40.6069 
        1.35606          301.69         40.1719 
         1.3622         299.894         39.7441 
        1.36833          299.47         39.3236 
        1.37445          297.56         38.9094 
        1.38059          293.93         38.4998 
        1.38675         292.653         38.0952 
        1.39288         291.557          37.698 
        1.39901         288.994         37.3066 
        1.40515         287.564           36.92 
         1.4113         285.459         36.5389 
        1.41742         283.345         36.1647 
        1.42355         282.037         35.7951 
         1.4297         280.353         35.4295 
        1.43585         277.638         35.0692 
        1.44198         276.545         34.7152 
        1.44809         274.891         34.3668 
        1.45423         273.054         34.0219 
        1.46036         272.322         33.6824 
        1.46649         269.849         33.3474 
        1.47263         267.387         33.0167 
        1.47877         266.434         32.6906 
        1.48491         264.171         32.3684 
        1.49104         261.762         32.0512 
        1.49718         261.023         31.7381 
        1.50333         259.404         31.4286 
        1.50947         257.762         31.1239 
         1.5156         255.761         30.8237 
        1.52172          254.07         30.5275 
        1.52787         252.449         30.2346 
          1.534         251.882         29.9459 
        1.54013         249.595         29.6612 
        1.54627         247.961         29.3798 
        1.55241           247.1         29.1019 
        1.55855         244.919          28.828 
        1.56467         243.305         28.5585 
         1.5708         241.946         28.2916 
        1.57695          241.12         28.0277 
        1.58308         239.796         27.7678 
        1.58922         237.704          27.511 
        1.59535         235.873         27.2575 
         1.6015         234.881         27.0069 
        1.60764         233.389         26.7596 
        1.61376         231.693          26.516 
        1.61989         230.242         26.2753 
        1.62604         228.928          26.037 
        1.63218         227.203         25.8019 
        1.63831         226.114         25.5701 
        1.64444         224.514         25.3412 
        1.65059         223.714         25.1145 
        1.65673         222.137         24.8908 
        1.66285         220.586         24.6705 
        1.66898         219.104         24.4527 
        1.67512         217.812         24.2372 
        1.68127          216.41         24.0241 
         1.6874         214.821          23.814 
        1.69353         214.419         23.6065 
        1.69967         212.734         23.4011 
        1.70581         211.063         23.1981 
        1.71193          210.05         22.9983 
        1.71806         208.187         22.8005 
        1.72421         207.454         22.6046 
        1.73035          205.86         22.4112 
        1.73649         204.455         22.2201 
        1.74262         203.632         22.0314 
        1.74876         201.859         21.8448 
        1.75489         201.365         21.6607 
        1.76101         199.966         21.4788 
        1.76715          198.72         21.2987 
        1.77329         197.061         21.1205 
        1.77943         195.855         20.9442 
        1.78557         194.906         20.7702 
        1.79171         194.072         20.5981 
        1.79785         192.467          20.428 
        1.80399         191.432         20.2598 
        1.81012         190.562         20.0938 
        1.81625         189.021         19.9296 
        1.82239         188.082         19.7671 
        1.82853         186.958         19.6065 
        1.83466          185.61         19.4477 
        1.84078         184.564          19.291 
        1.84692         183.746         19.1356 
        1.85306         182.391         18.9819 
         1.8592         181.575           18.83 
        1.86533         179.912         18.6799 
        1.87147         179.217         18.5312 
        1.87761         177.967         18.3841 
        1.88375         176.873         18.2388 
        1.88988         176.047         18.0952 
        1.89601         175.254         17.9531 
        1.90215         174.083         17.8123 
        1.90829         172.628         17.6732 
        1.91442         171.625         17.5355 
        1.92056         170.591         17.3994 
         1.9267         169.742         17.2647 
        1.93284         168.412         17.1312 
        1.93897         167.532         16.9995 
        1.94509         166.878         16.8694 
        1.95123         165.756         16.7403 
        1.95737         165.049         16.6125 
        1.96349         163.667         16.4863 
        1.96964         162.638         16.3611 
        1.97578         161.795         16.2371 
        1.98192         161.343         16.1147 
        1.98805         160.205         15.9935 
        1.99419         159.158         15.8736 
        2.00033          158.31         15.7548 
        2.00647          156.89         15.6373 
         2.0126         156.259         15.5211 
        2.01874         155.315          15.406 
        2.02488         154.446         15.2919 
        2.03101         153.611         15.1792 
        2.03714         153.249         15.0678 
        2.04328         151.749         14.9573 
        2.04941         150.951          14.848 
        2.05554         150.057         14.7399 
        2.06167         149.384         14.6327 
        2.06781         148.652         14.5266 
        2.07396         147.313         14.4214 
        2.08009          146.91         14.3174 
        2.08622         146.042         14.2145 
        2.09237         144.754         14.1125 
        2.09851          144.23         14.0114 
        2.10464         143.532         13.9115 
        2.11077         142.813         13.8127 
        2.11691         141.861         13.7146 
        2.12305         140.937         13.6175 
        2.12918         140.087         13.5215 
        2.13531         139.261         13.4265 
        2.14145          138.47         13.3321 
         2.1476         137.445         13.2386 
        2.15372         136.955         13.1464 
        2.15985         136.275          13.055 
        2.16599         135.342         12.9642 
        2.17213         134.428         12.8743 
        2.17827         133.959         12.7854 
         2.1844         132.882         12.6973 
        2.19054         132.225         12.6101 
        2.19666         131.565         12.5238 
         2.2028         130.934         12.4382 
        2.20893         130.148         12.3534 
        2.21508         129.273         12.2693 
        2.22122          128.44         12.1859 
        2.22736         127.898         12.1035 
        2.23349         127.197         12.0218 
        2.23962         126.554         11.9409 
        2.24577          125.55         11.8607 
         2.2519         124.815         11.7813 
        2.25802         124.415         11.7027 
        2.26417         123.708         11.6246 
        2.27031         122.876         11.5472 
        2.27644         122.252         11.4707 
        2.28257         121.776         11.3949 
        2.28872         120.883         11.3197 
        2.29486         120.308         11.2451 
        2.30099           119.3         11.1714 
        2.30712         119.015         11.0983 
        2.31326         118.079         11.0257 
         2.3194         117.595         10.9538 
        2.32553         116.945         10.8827 
        2.33166         116.395         10.8122 
         2.3378         115.613         10.7423 
        2.34394         114.967         10.6729 
        2.35007         114.182         10.6043 
        2.35619         113.762         10.5363 
        2.36233         113.348         10.4688 
        2.36848         112.731         10.4018 
        2.37462         112.026         10.3354 
        2.38075         111.438         10.2697 
        2.38689         110.663         10.2045 
        2.39303          110.23         10.1399 
        2.39916         109.655          10.076 
        2.40529          108.84         10.0125 
        2.41143         108.294         9.94962 
        2.41757          107.66         9.88721 
         2.4237         107.083         9.82545 
        2.42983          106.63         9.76422 
        2.43598          105.86         9.70335 
        2.44211         105.306          9.6431 
        2.44823         104.965         9.58349 
        2.45437          104.35         9.52422 
        2.46052         103.646         9.46541 
        2.46665         103.226         9.40719 
        2.47279         102.595         9.34948 
        2.47892         102.056         9.29222 
        2.48507         101.581         9.23538 
         2.4912         101.079         9.17912 
