# k  (h/Mpc)    P(k)  (Mpc/h)^3    P_linear(k)  (Mpc/h)^3
     0.00783031         4044.11         4073.32 
       0.013688         5059.04         5143.34 
       0.019231         5287.31         5332.59 
      0.0249154         5057.73         5054.57 
      0.0312784          4476.6         4496.76 
      0.0375637         3887.48         3920.24 
      0.0433917         3467.18         3470.39 
      0.0492413         3108.97         3128.84 
      0.0555754         2863.32         2864.16 
      0.0619321         2612.85         2663.93 
       0.067871         2472.01         2494.46 
      0.0738098         2301.44         2315.22 
      0.0800417         2102.84         2108.26 
      0.0862327         1882.05         1893.32 
      0.0921407         1690.51         1697.32 
      0.0982031         1529.58         1522.39 
       0.104506         1371.77         1378.65 
       0.110769         1271.87         1274.24 
       0.116806         1215.02         1201.81 
       0.122832         1145.49         1145.32 
       0.129052          1095.4         1091.18 
       0.135211         1047.04         1032.75 
       0.141259         973.909         967.534 
       0.147318         895.592         896.644 
       0.153489         832.896         824.409 
       0.159709         779.101         757.971 
       0.165845         711.387         703.091 
       0.171974         686.987         660.216 
       0.178125         655.894         627.654 
       0.184229         618.321          602.29 
        0.19034         603.376         579.782 
       0.196428         581.516         556.797 
       0.202534         544.989          531.24 
       0.208729         528.068         502.627 
       0.214876         503.561         472.955 
       0.220989         466.989         444.271 
       0.227147         452.664         418.145 
        0.23329         433.248         395.993 
       0.239377         420.409         378.041 
       0.245482         400.274          363.33 
       0.251667         384.509          350.53 
       0.257832         379.672         338.512 
       0.263955         359.581          326.29 
       0.270079         346.531         313.277 
        0.27624         330.952         299.499 
       0.282372          320.48         285.637 
        0.28843         316.071         272.457 
       0.294538          300.46         260.287 
       0.300721         288.127         249.422 
        0.30691         283.174         240.027 
       0.313033         271.554         231.897 
       0.319153         266.945         224.516 
       0.325316         258.277         217.383 
        0.33145             251         210.279 
       0.337538         242.822         203.065 
       0.343633         235.258         195.749 
       0.349808         228.034         188.396 
       0.355968         222.146         181.353 
       0.362074          217.13         174.841 
       0.368217         212.553         168.854 
       0.374374         207.624          163.42 
       0.380519         198.969         158.452 
       0.386598         195.051         153.857 
       0.392688         189.927         149.427 
        0.39888         186.153         144.989 
       0.405048         182.218         140.601 
       0.411186         179.173         136.263 
       0.417313         174.778         132.022 
       0.423458         170.244         127.928 
       0.429607          166.87          124.04 
       0.435692         163.933          120.43 
       0.441815         159.418         117.039 
       0.447964         154.895         113.833 
       0.454126         152.117         110.779 
       0.460267         150.809         107.849 
       0.466387         147.397         105.004 
        0.47254         145.671         102.194 
       0.478662         140.778         99.4566 
       0.484765         138.777         96.8001 
       0.490885         135.807         94.2226 
       0.497035         134.751         91.7346 
       0.503198          131.73         89.3589 
       0.509342         128.402         87.1062 
       0.515458         126.971         84.9629 
       0.521598         123.896          82.895 
       0.527764         122.549         80.8895 
       0.533884         121.652          78.959 
           0.54         118.466         77.0801 
       0.546137         115.648         75.2389 
       0.552299         114.112         73.4399 
       0.558452         112.006         71.6999 
       0.564573         111.549         70.0296 
       0.570708         108.355         68.4165 
       0.576825         107.212         66.8659 
       0.582926         106.002         65.3736 
       0.589034         104.253           63.93 
       0.595184         103.017         62.5233 
       0.601379         100.446         61.1492 
       0.607522          99.018         59.8241 
       0.613639         98.1309         58.5385 
       0.619772         96.4906         57.2834 
       0.625918         95.4295         56.0611 
       0.632068         93.9368         54.8745 
       0.638161         92.3504         53.7358 
         0.6443         91.7481         52.6245 
       0.650464         89.8917          51.543 
       0.656582         89.5149         50.5008 
       0.662703         88.3889         49.4873 
       0.668861         86.4177         48.4952 
       0.675024         86.2714         47.5287 
       0.681124         84.9507         46.5978 
       0.687237         83.2724         45.6899 
       0.693381         82.7548         44.8019 
       0.699536         81.8462         43.9363 
       0.705665         80.5485         43.0976 
       0.711789         79.4804         42.2819 
       0.717957         78.4914          41.482 
        0.72409         77.8472         40.7075 
       0.730186         77.3301         39.9575 
       0.736317         75.9238         39.2226 
       0.742472         75.0965         38.5035 
       0.748622         74.0064         37.8032 
        0.75476         73.2112          37.122 
       0.760888         72.9942         36.4587 
       0.767043         71.6152         35.8091 
       0.773185         70.8686         35.1768 
       0.779291         70.0495         34.5634 
       0.785407          69.092         33.9639 
       0.791564         69.1213          33.375 
       0.797719         68.1394         32.8004 
       0.803834         67.4735          32.243 
       0.809972         66.8199         31.6966 
       0.816124         66.1149         31.1618 
       0.822261          65.275         30.6408 
       0.828378         65.0175         30.1334 
       0.834502         64.1233          29.637 
       0.840667         63.7026         29.1487 
       0.846816         62.8608         28.6729 
       0.852925         62.4132         28.2107 
       0.859047         62.1665         27.7579 
       0.865192          61.135         27.3135 
       0.871341         60.4751         26.8787 
       0.877463         60.0821         26.4553 
       0.883569         59.8613         26.0422 
       0.889708         59.2372         25.6359 
       0.895864         58.6557         25.2373 
       0.902008         58.0708          24.848 
       0.908149         57.5544         24.4672 
       0.914301         57.1891         24.0938 
       0.920448         56.8075         23.7286 
       0.926574         55.8259         23.3723 
       0.932687          55.554         23.0241 
       0.938823         55.0201         22.6818 
       0.944975         54.4789         22.3456 
       0.951105         54.0636         22.0175 
       0.957225         53.8449         21.6966 
       0.963368         53.2879         21.3811 
       0.969511         52.8186         21.0718 
       0.975621         52.4424         20.7703 
       0.981748         51.8867         20.4739 
       0.987916         51.5543         20.1815 
        0.99406         51.1026          19.896 
        1.00019         50.7004         19.6165 
        1.00632          50.341         19.3427 
        1.01246         49.9455         19.0737 
        1.01859         49.5994         18.8103 
        1.02471         49.0695         18.5522 
        1.03085         48.8921         18.2981 
        1.03698         48.5365         18.0493 
        1.04314           48.19          17.804 
        1.04929         47.6764          17.564 
        1.05541         47.4767         17.3293 
        1.06154         47.2269         17.0984 
        1.06769         46.5512         16.8713 
        1.07382         46.4027         16.6491 
        1.07993         46.0391         16.4314 
        1.08607         45.7021         16.2168 
        1.09222         45.4746         16.0058 
        1.09836         45.0609         15.7988 
        1.10449         44.8483         15.5957 
        1.11063         44.4476          15.396 
        1.11677         44.4135         15.1998 
         1.1229         43.9201         15.0075 
        1.12903         43.6958         14.8183 
        1.13518         43.5651         14.6322 
        1.14131         43.1008         14.4494 
        1.14745         42.6724         14.2699 
        1.15359         42.3386         14.0934 
        1.15973         42.1911         13.9198 
        1.16584         41.9107         13.7499 
        1.17197         41.4151         13.5826 
        1.17811         41.2904         13.4176 
        1.18424          40.786         13.2558 
        1.19038         40.7084         13.0963 
        1.19652         40.4849         12.9394 
        1.20267           40.26         12.7851 
        1.20881         39.9654         12.6334 
        1.21495         39.7729         12.4843 
        1.22108         39.6407         12.3377 
         1.2272         39.3397         12.1938 
        1.23334         39.0858         12.0518 
        1.23949         38.8182         11.9118 
        1.24562         38.4694         11.7744 
        1.25174         38.2964         11.6394 
        1.25789         38.2337         11.5061 
        1.26402          37.946         11.3751 
        1.27014         37.7122         11.2465 
        1.27628         37.3616         11.1195 
        1.28244         37.3225         10.9942 
        1.28858         36.9846          10.871 
        1.29471          36.819           10.75 
        1.30084         36.5281          10.631 
        1.30697         36.3903         10.5135 
        1.31312         36.0885         10.3977 
        1.31925         35.8404          10.284 
        1.32537         35.6668         10.1721 
        1.33151         35.4397         10.0615 
        1.33765         35.3636         9.95254 
        1.34378         35.1705         9.84546 
        1.34992         34.9379         9.73988 
        1.35606         34.7332         9.63563 
         1.3622         34.4794         9.53309 
        1.36833         34.3298         9.43229 
        1.37445         34.1028           9.333 
        1.38059         33.9559         9.23484 
        1.38675         33.6609         9.13785 
        1.39288           33.57         9.04265 
        1.39901         33.3476         8.94885 
        1.40515         33.2204         8.85617 
         1.4113         33.1493         8.76484 
        1.41742         32.9486         8.67514 
        1.42355          32.652         8.58654 
         1.4297         32.4733         8.49891 
        1.43585          32.278         8.41253 
        1.44198         32.1729         8.32769 
        1.44809         31.9922         8.24418 
        1.45423         31.8546         8.16151 
        1.46036         31.6944         8.08012 
        1.46649         31.5149         7.99981 
        1.47263          31.317         7.92053 
        1.47877         31.2113         7.84237 
        1.48491         31.0776         7.76513 
        1.49104         30.8434          7.6891 
        1.49718         30.7413         7.61403 
        1.50333         30.6372         7.53984 
        1.50947         30.4307         7.46679 
         1.5156         30.2693         7.39481 
        1.52172         30.0517         7.32379 
        1.52787         29.9396         7.25356 
          1.534         29.8107         7.18433 
        1.54013         29.7229         7.11608 
        1.54627         29.4632          7.0486 
        1.55241         29.3549         6.98197 
        1.55855         29.2371         6.91631 
        1.56467         29.1601         6.85167 
         1.5708         28.9751         6.78767 
        1.57695         28.8352          6.7244 
        1.58308         28.5905         6.66208 
        1.58922         28.4614          6.6005 
        1.59535         28.3769         6.53973 
         1.6015         28.2421         6.47964 
        1.60764         28.1301         6.42033 
        1.61376         28.0001         6.36193 
        1.61989         27.7857         6.30421 
        1.62604         27.6997         6.24708 
        1.63218         27.5744         6.19068 
        1.63831         27.4534         6.13512 
        1.64444         27.3213         6.08022 
        1.65059          27.189         6.02586 
        1.65673         27.0903         5.97222 
        1.66285         26.9515         5.91938 
        1.66898         26.8199         5.86717 
        1.67512         26.7533         5.81549 
        1.68127         26.6072         5.76438 
         1.6874         26.4783           5.714 
        1.69353         26.3431         5.66425 
        1.69967         26.2251         5.61498 
        1.70581         26.0702         5.56632 
        1.71193         25.8985         5.51841 
        1.71806         25.8621         5.47097 
        1.72421         25.7894         5.42399 
        1.73035         25.6101         5.37761 
        1.73649         25.4763         5.33179 
        1.74262         25.3531         5.28654 
        1.74876         25.2485         5.24178 
        1.75489         25.1659         5.19763 
        1.76101         25.0436           5.154 
        1.76715         24.9511         5.11081 
        1.77329         24.7975         5.06807 
        1.77943         24.7268         5.02579 
        1.78557         24.6186         4.98406 
        1.79171          24.477          4.9428 
        1.79785         24.3877           4.902 
        1.80399         24.2797         4.86166 
        1.81012         24.2104         4.82183 
        1.81625         24.0424         4.78247 
        1.82239         23.9537         4.74349 
        1.82853         23.8574         4.70496 
        1.83466         23.7318         4.66689 
        1.84078         23.6472         4.62929 
        1.84692         23.6004         4.59204 
        1.85306         23.4482         4.55515 
         1.8592          23.378         4.51872 
        1.86533         23.1877         4.48272 
        1.87147         23.1114         4.44706 
        1.87761         23.0364         4.41178 
        1.88375              23         4.37692 
        1.88988         22.8109         4.34248 
        1.89601         22.7441         4.30838 
        1.90215         22.6261         4.27463 
        1.90829         22.5636         4.24125 
        1.91442         22.3718         4.20823 
        1.92056         22.3752         4.17558 
         1.9267         22.2653         4.14325 
        1.93284         22.2423         4.11125 
        1.93897          22.111         4.07964 
        1.94509         22.0041         4.04843 
        1.95123         21.8619         4.01747 
        1.95737         21.8208         3.98681 
        1.96349         21.7004         3.95655 
        1.96964         21.7123         3.92651 
        1.97578         21.5429         3.89678 
        1.98192         21.4601         3.86741 
        1.98805         21.2941         3.83834 
        1.99419         21.3002         3.80957 
        2.00033         21.1948         3.78108 
        2.00647         21.1109         3.75288 
         2.0126         21.0143         3.72502 
        2.01874         20.9109         3.69741 
        2.02488         20.7882         3.67004 
        2.03101         20.7245         3.64301 
        2.03714         20.6313         3.61627 
        2.04328         20.5798         3.58977 
        2.04941         20.4659         3.56355 
        2.05554          20.447         3.53762 
        2.06167         20.3479         3.51191 
        2.06781         20.2529         3.48645 
        2.07396         20.2247         3.46121 
        2.08009         20.0928         3.43626 
        2.08622         20.0071         3.41158 
        2.09237         19.9614          3.3871 
        2.09851         19.8118         3.36286 
        2.10464         19.7638         3.33889 
        2.11077         19.7132         3.31518 
        2.11691         19.6168         3.29165 
        2.12305         19.5508         3.26835 
        2.12918         19.4491         3.24533 
        2.13531         19.3976         3.22253 
        2.14145         19.2717          3.1999 
         2.1476         19.1708         3.17745 
        2.15372         19.1537         3.15534 
        2.15985         19.0831         3.13341 
        2.16599         19.0016         3.11162 
        2.17213          18.963         3.09007 
        2.17827         18.8244         3.06873 
         2.1844         18.7633          3.0476 
        2.19054         18.7403         3.02667 
        2.19666         18.6374         3.00596 
         2.2028          18.587         2.98543 
        2.20893         18.4468         2.96508 
        2.21508         18.4024          2.9449 
        2.22122         18.3075          2.9249 
        2.22736         18.2963         2.90512 
        2.23349         18.2141         2.88553 
        2.23962           18.16         2.86611 
        2.24577         18.0811         2.84686 
         2.2519         17.9983         2.82781 
        2.25802         17.8692         2.80896 
        2.26417          17.869         2.79023 
        2.27031         17.8029         2.77165 
        2.27644         17.7742          2.7533 
        2.28257         17.6308         2.73511 
        2.28872         17.6344         2.71706 
        2.29486         17.5468         2.69917 
        2.30099         17.4419         2.68148 
        2.30712         17.3666         2.66393 
        2.31326         17.3172         2.64652 
         2.3194         17.2556         2.62927 
        2.32553         17.1927          2.6122 
        2.33166         17.1036         2.59529 
         2.3378         17.0751         2.57851 
        2.34394         16.9769         2.56187 
        2.35007         16.9175          2.5454 
        2.35619         16.8656          2.5291 
        2.36233         16.7906          2.5129 
        2.36848         16.7206         2.49681 
        2.37462         16.6547         2.48089 
        2.38075         16.6045         2.46513 
        2.38689          16.555         2.44949 
        2.39303         16.4719         2.43398 
        2.39916         16.4305         2.41863 
        2.40529         16.3704         2.40341 
        2.41143         16.2953         2.38832 
        2.41757         16.2139         2.37334 
         2.4237          16.174         2.35852 
        2.42983          16.129         2.34383 
        2.43598         16.0637         2.32922 
        2.44211         15.9669         2.31476 
        2.44823         15.9569         2.30046 
        2.45437         15.9056         2.28624 
        2.46052         15.8157         2.27213 
        2.46665         15.7869         2.25816 
        2.47279         15.6837         2.24431 
        2.47892         15.6344         2.23057 
        2.48507         15.5843         2.21693 
         2.4912         15.5469         2.20343 
