# k  (h/Mpc)    P(k)  (Mpc/h)^3    P_linear(k)  (Mpc/h)^3
     0.00783031         15467.1         15763.4 
       0.013688         17333.5         17217.7 
       0.019231         15560.9         15509.8 
      0.0249154         12475.3         12675.9 
      0.0312784         9586.75         9614.74 
      0.0375637         7454.66          7378.9 
      0.0433917         6061.31         6079.93 
      0.0492413         5372.55         5349.18 
      0.0555754          4847.3         4928.52 
      0.0619321         4671.09         4618.93 
       0.067871         4204.41         4260.42 
      0.0738098          3746.2         3783.55 
      0.0800417         3171.86         3208.47 
      0.0862327         2684.13         2664.25 
      0.0921407         2323.01         2248.61 
      0.0982031         2013.21          1958.4 
       0.104506         1888.56          1788.6 
       0.110769         1783.58         1708.45 
       0.116806          1716.7         1662.42 
       0.122832         1652.49         1602.29 
       0.129052         1519.53         1499.61 
       0.135211         1393.39         1358.79 
       0.141259         1277.44         1204.27 
       0.147318         1153.61         1060.06 
       0.153489         1031.19         943.754 
       0.159709         962.944         864.663 
       0.165845         922.192         819.103 
       0.171974         882.705         793.553 
       0.178125         851.412         773.402 
       0.184229         817.687         746.957 
        0.19034         761.776         708.321 
       0.196428         732.544         659.068 
       0.202534         693.887          605.18 
       0.208729         644.776         553.668 
       0.214876         605.559         511.405 
       0.220989         578.282         480.237 
       0.227147         553.496         458.569 
        0.23329         531.708         443.207 
       0.239377         520.327         429.999 
       0.245482         484.646         415.375 
       0.251667         478.895         397.408 
       0.257832         457.898         376.519 
       0.263955         438.537         354.514 
       0.270079          417.32         333.356 
        0.27624          408.86          314.63 
       0.282372         393.223         299.354 
        0.28843         380.803         287.309 
       0.294538         361.563         277.379 
       0.300721         358.051         268.361 
        0.30691         341.735         259.332 
       0.313033         333.662         249.765 
       0.319153         321.375          239.55 
       0.325316         312.322         228.958 
        0.33145         300.977         218.707 
       0.337538         295.133         209.295 
       0.343633         284.859          200.95 
       0.349808         274.262         193.564 
       0.355968         270.582          187.08 
       0.362074         265.287         181.175 
       0.368217         257.422         175.438 
       0.374374         246.223         169.698 
       0.380519         243.728         163.882 
       0.386598         237.012         158.139 
       0.392688         233.437         152.519 
        0.39888         227.256         147.082 
       0.405048         221.176         142.064 
       0.411186         216.766          137.47 
       0.417313         212.107         133.239 
       0.423458         206.997         129.274 
       0.429607         203.227         125.481 
       0.435692         197.097         121.819 
       0.441815         194.875         118.205 
       0.447964         190.555         114.642 
       0.454126         184.167          111.16 
       0.460267         181.151         107.822 
       0.466387         178.647         104.663 
        0.47254          174.41         101.655 
       0.478662         173.856         98.8216 
       0.484765         167.351         96.1417 
       0.490885         165.071         93.5704 
       0.497035         162.225         91.0733 
       0.503198         158.645         88.6392 
       0.509342         156.877         86.2805 
       0.515458           154.3         84.0041 
       0.521598         150.663         81.7939 
       0.527764         149.061         79.6545 
       0.533884         146.852         77.6147 
           0.54         144.249         75.6628 
       0.546137         142.998         73.7848 
       0.552299          140.01         71.9698 
       0.558452         138.607         70.2187 
       0.564573         136.326         68.5293 
       0.570708         133.221         66.8873 
       0.576825         131.558         65.3007 
       0.582926         129.069         63.7681 
       0.589034         127.651         62.2825 
       0.595184         126.131         60.8352 
       0.601379         123.938         59.4258 
       0.607522         122.003         58.0749 
       0.613639         120.822         56.7746 
       0.619772         118.427         55.5132 
       0.625918         117.173         54.2887 
       0.632068         115.499         53.1003 
       0.638161         114.517         51.9569 
         0.6443         112.857         50.8375 
       0.650464          111.78         49.7463 
       0.656582         109.683         48.6948 
       0.662703         108.987         47.6738 
       0.668861         107.036         46.6775 
       0.675024         105.542           45.71 
       0.681124         104.758         44.7806 
       0.687237         103.008         43.8758 
       0.693381         101.407          42.992 
       0.699536         100.727         42.1311 
       0.705665         99.9672         41.2973 
       0.711789         98.2375         40.4866 
       0.717957         98.0645         39.6921 
        0.72409         96.2681         38.9234 
       0.730186         94.9196         38.1799 
       0.736317         94.0963         37.4521 
       0.742472         93.2871         36.7408 
       0.748622         92.2623         36.0491 
        0.75476         91.3085         35.3769 
       0.760888         90.2415          34.723 
       0.767043         89.6816         34.0834 
       0.773185         88.7975         33.4613 
       0.779291         87.1469         32.8584 
       0.785407         86.7283         32.2695 
       0.791564         86.2043         31.6915 
       0.797719         84.2736         31.1279 
       0.803834         83.9264         30.5817 
       0.809972         83.1048         30.0468 
       0.816124         82.5238         29.5236 
       0.822261         81.8012         29.0143 
       0.828378         81.1544         28.5187 
       0.834502          80.582         28.0344 
       0.840667         79.3554         27.5582 
       0.846816         78.4247         27.0945 
       0.852925         77.9067         26.6445 
       0.859047         77.0184         26.2039 
       0.865192         76.4291         25.7718 
       0.871341          75.738         25.3493 
       0.877463         74.7448         24.9382 
       0.883569         74.6519         24.5374 
       0.889708         73.7682         24.1433 
       0.895864         73.1373          23.757 
       0.902008         72.5353           23.38 
       0.908149         72.1114         23.0114 
       0.914301         71.3119         22.6503 
       0.920448         70.7617         22.2973 
       0.926574         70.1152         21.9531 
       0.932687         70.0565         21.6169 
       0.938823         68.9748         21.2867 
       0.944975         68.2713         20.9626 
       0.951105         67.7672         20.6465 
       0.957225         67.2616         20.3375 
       0.963368          66.485         20.0338 
       0.969511         66.3725         19.7363 
       0.975621         65.9037         19.4466 
       0.981748          65.389         19.1619 
       0.987916          64.696         18.8812 
        0.99406         64.2779         18.6072 
        1.00019         63.9388         18.3393 
        1.00632         63.2623         18.0769 
        1.01246         62.9682         17.8192 
        1.01859         62.2631         17.5671 
        1.02471         61.7835         17.3201 
        1.03085         61.2511         17.0771 
        1.03698         61.0334         16.8393 
        1.04314         60.4699          16.605 
        1.04929         60.0884         16.3758 
        1.05541         59.4225         16.1518 
        1.06154         59.3776         15.9315 
        1.06769           58.92          15.715 
        1.07382         58.4895         15.5033 
        1.07993         58.1846         15.2959 
        1.08607         57.6277         15.0915 
        1.09222         57.4791         14.8906 
        1.09836         56.8706         14.6937 
        1.10449         56.6404         14.5006 
        1.11063         56.1103         14.3107 
        1.11677          55.751         14.1243 
         1.1229         55.2986         13.9416 
        1.12903          54.876          13.762 
        1.13518         54.7949         13.5854 
        1.14131         54.4317          13.412 
        1.14745         54.0126         13.2417 
        1.15359         53.6779         13.0744 
        1.15973         53.2764           12.91 
        1.16584         52.8557         12.7491 
        1.17197           52.53         12.5907 
        1.17811         52.3637         12.4346 
        1.18424         51.8243         12.2815 
        1.19038         51.6536         12.1307 
        1.19652         51.3342         11.9824 
        1.20267         50.7472         11.8366 
        1.20881         50.6442         11.6933 
        1.21495         50.1904         11.5526 
        1.22108         50.1825         11.4143 
         1.2272          49.476         11.2785 
        1.23334         49.2481         11.1447 
        1.23949         49.1233         11.0127 
        1.24562         48.6706         10.8832 
        1.25174         48.4955         10.7561 
        1.25789         48.3163         10.6306 
        1.26402          47.784         10.5073 
        1.27014         47.6191         10.3862 
        1.27628         47.2979         10.2668 
        1.28244         47.0338          10.149 
        1.28858         46.8713         10.0332 
        1.29471         46.6253         9.91946 
        1.30084          46.326         9.80761 
        1.30697         45.9944         9.69733 
        1.31312         45.7065         9.58859 
        1.31925         45.4375         9.48187 
        1.32537         45.2244         9.37688 
        1.33151         44.8634         9.27311 
        1.33765          44.718         9.17098 
        1.34378         44.4763         9.07059 
        1.34992         44.1569         8.97163 
        1.35606         43.9358         8.87395 
         1.3622          43.667         8.77789 
        1.36833          43.489         8.68349 
        1.37445         43.1657         8.59054 
        1.38059         42.8774         8.49866 
        1.38675         42.6734         8.40791 
        1.39288         42.4775         8.31886 
        1.39901         42.2938         8.23114 
        1.40515         41.9701         8.14449 
         1.4113         41.7704         8.05913 
        1.41742         41.6747         7.97533 
        1.42355         41.3702         7.89256 
         1.4297         41.2347         7.81072 
        1.43585         41.0316         7.73009 
        1.44198         40.6592          7.6509 
        1.44809         40.5351         7.57298 
        1.45423         40.3434         7.49586 
        1.46036         40.1205         7.41995 
        1.46649         39.9339         7.34508 
        1.47263         39.6957         7.27118 
        1.47877         39.3979         7.19834 
        1.48491         39.3769         7.12639 
        1.49104         39.0802         7.05557 
        1.49718         38.7833         6.98567 
        1.50333         38.8013         6.91661 
        1.50947         38.4906         6.84862 
         1.5156         38.3166         6.78165 
        1.52172         38.1613         6.71559 
        1.52787         38.0189         6.65027 
          1.534          37.707          6.5859 
        1.54013         37.5113         6.52245 
        1.54627         37.4498         6.45972 
        1.55241         37.0622         6.39781 
        1.55855         36.9856          6.3368 
        1.56467         36.7185         6.27676 
         1.5708         36.7189         6.21732 
        1.57695         36.5144         6.15857 
        1.58308         36.2918         6.10071 
        1.58922         36.0601         6.04356 
        1.59535         35.9699         5.98716 
         1.6015         35.6922         5.93141 
        1.60764          35.518         5.87639 
        1.61376         35.3844         5.82223 
        1.61989         35.2161         5.76871 
        1.62604         34.9904         5.71574 
        1.63218         34.9896         5.66348 
        1.63831         34.6905         5.61199 
        1.64444         34.5587         5.56112 
        1.65059         34.5366         5.51077 
        1.65673         34.2118         5.46109 
        1.66285         34.0018         5.41217 
        1.66898         33.9461         5.36383 
        1.67512         33.6652         5.31599 
        1.68127         33.5739          5.2687 
         1.6874         33.3759         5.22208 
        1.69353         33.2235         5.17606 
        1.69967         33.1005         5.13049 
        1.70581         33.0196         5.08549 
        1.71193         32.8411          5.0412 
        1.71806         32.5411         4.99734 
        1.72421         32.5296         4.95392 
        1.73035          32.345         4.91107 
        1.73649         32.1215         4.86873 
        1.74262         31.9608         4.82693 
        1.74876         31.8134          4.7856 
        1.75489         31.7313         4.74483 
        1.76101         31.6184         4.70455 
        1.76715         31.4428         4.66469 
        1.77329         31.2864         4.62524 
        1.77943         31.1489         4.58623 
        1.78557         30.9705         4.54773 
        1.79171         30.8945         4.50966 
        1.79785          30.688         4.47202 
        1.80399         30.6681         4.43482 
        1.81012         30.4178         4.39809 
        1.81625         30.3078          4.3618 
        1.82239           30.16         4.32586 
        1.82853         30.0691         4.29035 
        1.83466          29.807         4.25527 
        1.84078         29.6621         4.22062 
        1.84692         29.6158          4.1863 
        1.85306         29.4412         4.15232 
         1.8592          29.306         4.11877 
        1.86533         29.1747         4.08561 
        1.87147         29.0836         4.05278 
        1.87761         28.9329          4.0203 
        1.88375         28.8176         3.98822 
        1.88988         28.6977         3.95651 
        1.89601         28.5547         3.92514 
        1.90215         28.4852         3.89408 
        1.90829         28.3873         3.86338 
        1.91442         28.2256           3.833 
        1.92056          28.029         3.80298 
         1.9267         28.0084         3.77325 
        1.93284         27.7505         3.74382 
        1.93897         27.7128         3.71476 
        1.94509         27.5824         3.68608 
        1.95123         27.4476         3.65762 
        1.95737         27.2996         3.62944 
        1.96349         27.2337         3.60164 
        1.96964         27.0998         3.57405 
        1.97578         26.9361         3.54673 
        1.98192         26.8622         3.51976 
        1.98805         26.7719         3.49306 
        1.99419         26.6567         3.46664 
        2.00033         26.5027         3.44048 
        2.00647         26.4355          3.4146 
         2.0126         26.2495         3.38903 
        2.01874         26.1918         3.36368 
        2.02488         26.0965         3.33857 
        2.03101         25.9565         3.31377 
        2.03714         25.8713         3.28923 
        2.04328         25.7004         3.26492 
        2.04941         25.6221         3.24088 
        2.05554         25.5062          3.2171 
        2.06167         25.4192         3.19352 
        2.06781         25.2852         3.17018 
        2.07396         25.2182         3.14703 
        2.08009         25.0609         3.12416 
        2.08622         24.9278         3.10154 
        2.09237          24.882          3.0791 
        2.09851         24.7861         3.05688 
        2.10464         24.6537         3.03492 
        2.11077         24.5997         3.01319 
        2.11691         24.4153         2.99164 
        2.12305         24.3239         2.97029 
        2.12918          24.226          2.9492 
        2.13531         24.1751         2.92832 
        2.14145         24.0224         2.90759 
         2.1476         23.9278         2.88704 
        2.15372         23.8344         2.86679 
        2.15985         23.7985         2.84672 
        2.16599         23.6275         2.82678 
        2.17213         23.5989         2.80705 
        2.17827         23.4362         2.78752 
         2.1844         23.3768         2.76819 
        2.19054         23.2684         2.74903 
        2.19666         23.1379         2.73009 
         2.2028         23.0498          2.7113 
        2.20893         23.0148         2.69269 
        2.21508         22.9107         2.67423 
        2.22122         22.7609         2.65594 
        2.22736         22.7098         2.63785 
        2.23349         22.5635         2.61994 
        2.23962         22.5156         2.60219 
        2.24577         22.3953         2.58458 
         2.2519         22.3233         2.56716 
        2.25802         22.2452         2.54994 
        2.26417          22.136         2.53282 
        2.27031         22.0087         2.51584 
        2.27644         21.9473         2.49907 
        2.28257         21.8735         2.48245 
        2.28872          21.796         2.46596 
        2.29486          21.682         2.44961 
        2.30099         21.5826         2.43345 
        2.30712         21.5182         2.41743 
        2.31326         21.4444         2.40152 
         2.3194         21.3428         2.38577 
        2.32553         21.2777         2.37019 
        2.33166         21.1741         2.35475 
         2.3378          21.088         2.33943 
        2.34394         20.9976         2.32424 
        2.35007         20.9202          2.3092 
        2.35619         20.8397         2.29432 
        2.36233         20.7278         2.27954 
        2.36848         20.6561         2.26485 
        2.37462         20.5648         2.25033 
        2.38075          20.516         2.23594 
        2.38689         20.4189         2.22167 
        2.39303          20.319         2.20753 
        2.39916         20.2217         2.19352 
        2.40529         20.1991         2.17964 
        2.41143         20.1038         2.16587 
        2.41757         20.0036         2.15221 
         2.4237         19.9459         2.13869 
        2.42983         19.8225          2.1253 
        2.43598         19.7744         2.11198 
        2.44211         19.6734         2.09879 
        2.44823         19.5977         2.08575 
        2.45437         19.5022         2.07279 
        2.46052          19.421         2.05992 
        2.46665         19.3706         2.04719 
        2.47279         19.3096         2.03457 
        2.47892         19.2338         2.02205 
        2.48507         19.1141         2.00962 
         2.4912         19.0566         1.99732 
