# k  (h/Mpc)    P(k)  (Mpc/h)^3    P_linear(k)  (Mpc/h)^3
     0.00783031         16583.7           16893 
       0.013688         20855.1         20704.3 
       0.019231         20654.9         20644.9 
      0.0249154         18283.7           18711 
      0.0312784         15651.5         15845.3 
      0.0375637         13281.1         13282.7 
      0.0433917         11296.3         11505.8 
      0.0492413         10221.6         10301.2 
      0.0555754         9145.49         9456.48 
      0.0619321         8816.29         8823.28 
       0.067871         7972.06         8224.77 
      0.0738098         7301.84         7524.14 
      0.0800417         6435.76         6691.32 
      0.0862327         5734.57          5855.2 
      0.0921407         5166.91         5146.31 
      0.0982031         4582.09         4573.29 
       0.104506         4306.41         4157.48 
       0.110769         4012.83          3892.5 
       0.116806         3809.87         3719.18 
       0.122832         3645.48         3566.24 
       0.129052         3379.65         3381.85 
       0.135211         3177.74         3153.51 
       0.141259         3008.29         2895.61 
       0.147318         2801.81          2632.1 
       0.153489         2548.39         2389.66 
       0.159709         2402.62          2193.2 
       0.165845         2315.55         2051.72 
       0.171974         2199.52         1953.61 
       0.178125         2101.63          1881.2 
       0.184229         2015.26         1816.12 
        0.19034         1906.05         1742.97 
       0.196428         1860.45         1655.63 
       0.202534         1782.26         1555.83 
       0.208729         1692.39         1450.65 
       0.214876         1617.82         1352.52 
       0.220989            1559         1268.67 
       0.227147         1494.51         1201.15 
        0.23329         1437.24         1149.21 
       0.239377         1415.16         1108.17 
       0.245482         1327.78         1071.45 
       0.251667         1320.57         1033.58 
       0.257832         1267.12         992.159 
       0.263955         1224.07          947.16 
       0.270079         1180.17         900.384 
        0.27624         1165.53          854.55 
       0.282372         1117.29         812.904 
        0.28843         1107.98          777.18 
       0.294538         1052.33         746.681 
       0.300721         1046.66         720.398 
        0.30691         1005.51         696.809 
       0.313033         985.671         674.405 
       0.319153         967.209         651.618 
       0.325316         936.307         627.883 
        0.33145         914.246         603.712 
       0.337538         897.752         580.022 
       0.343633         877.272         557.448 
       0.349808         846.715         536.423 
       0.355968         841.003         517.562 
       0.362074         832.408         500.755 
       0.368217         806.413         485.315 
       0.374374         774.866         470.691 
       0.380519         776.035         456.476 
       0.386598         753.715         442.501 
       0.392688         750.966         428.514 
        0.39888         729.068         414.502 
       0.405048         718.962         400.976 
       0.411186         709.018         388.177 
       0.417313         694.362         376.236 
       0.423458         681.229         365.074 
       0.429607         673.065         354.632 
       0.435692         657.728         344.871 
       0.441815         651.973         335.432 
       0.447964         638.765         326.192 
       0.454126         631.643         317.136 
       0.460267         616.521         308.306 
       0.466387         609.572         299.731 
        0.47254         603.837         291.414 
       0.478662         598.913         283.509 
       0.484765         579.944         276.007 
       0.490885         575.971         268.839 
       0.497035         564.643         261.968 
       0.503198         560.375         255.367 
       0.509342         555.415          249.01 
       0.515458         551.338         242.855 
       0.521598         537.023         236.839 
       0.527764         528.275         230.971 
       0.533884         525.852         225.327 
           0.54         519.715         219.876 
       0.546137         516.188         214.598 
       0.552299         508.123         209.497 
       0.558452         504.946         204.603 
       0.564573         498.461         199.912 
       0.570708         491.929         195.366 
       0.576825          479.36         190.969 
       0.582926         480.261         186.706 
       0.589034         475.639         182.559 
       0.595184         471.597         178.507 
       0.601379          464.25         174.549 
       0.607522         458.023         170.745 
       0.613639         457.234         167.074 
       0.619772         447.712         163.507 
       0.625918         445.705         160.043 
       0.632068         438.971         156.683 
       0.638161         437.246         153.455 
         0.6443         430.114         150.296 
       0.650464         427.517         147.216 
       0.656582         423.869         144.242 
       0.662703         422.782         141.347 
       0.668861         415.748         138.514 
       0.675024         412.248         135.756 
       0.681124         408.997         133.102 
       0.687237         405.432         130.516 
       0.693381          399.85          127.99 
       0.699536         394.603         125.528 
       0.705665         392.922         123.145 
       0.711789         391.249         120.826 
       0.717957         387.677         118.552 
        0.72409         385.379          116.35 
       0.730186         379.852         114.216 
       0.736317         377.071         112.125 
       0.742472         374.965         110.078 
       0.748622         370.997         108.085 
        0.75476         366.271         106.146 
       0.760888         362.744         104.258 
       0.767043         363.201         102.409 
       0.773185         359.205          100.61 
       0.779291         354.445         98.8657 
       0.785407         353.184         97.1604 
       0.791564         348.859         95.4853 
       0.797719         346.726         93.8511 
       0.803834         343.011         92.2659 
       0.809972         342.486         90.7121 
       0.816124         341.318         89.1911 
       0.822261         337.031         87.7094 
       0.828378          334.66         86.2662 
       0.834502         331.368         84.8546 
       0.840667         328.905         83.4658 
       0.846816         327.384         82.1124 
       0.852925         325.219         80.7979 
       0.859047         323.043         79.5097 
       0.865192         319.167         78.2458 
       0.871341         316.653         77.0088 
       0.877463         316.253         75.8044 
       0.883569         313.783         74.6292 
       0.889708          310.81         73.4732 
       0.895864         309.355         72.3391 
       0.902008         306.756         71.2315 
       0.908149         303.938          70.148 
       0.914301         301.315         69.0856 
       0.920448         299.744         68.0465 
       0.926574         295.981         67.0326 
       0.932687         296.188         66.0418 
       0.938823          292.96         65.0676 
       0.944975         292.582         64.1111 
       0.951105         289.894         63.1775 
       0.957225         287.991         62.2643 
       0.963368         284.244         61.3662 
       0.969511         283.491         60.4861 
       0.975621         281.328          59.628 
       0.981748         280.366         58.7847 
       0.987916         278.674         57.9524 
        0.99406         274.712         57.1396 
        1.00019         273.862         56.3441 
        1.00632          272.58         55.5647 
        1.01246         270.288          54.799 
        1.01859         270.765         54.0491 
        1.02471         266.264         53.3143 
        1.03085         264.995         52.5908 
        1.03698         263.913         51.8824 
        1.04314          261.38         51.1841 
        1.04929         259.512         50.5004 
        1.05541         260.103         49.8321 
        1.06154         255.794         49.1743 
        1.06769         255.389         48.5275 
        1.07382         253.377         47.8946 
        1.07993         251.914         47.2746 
        1.08607         251.318          46.663 
        1.09222         248.825         46.0618 
        1.09836         247.213          45.472 
        1.10449         244.913         44.8933 
        1.11063         242.943         44.3241 
        1.11677         242.568         43.7651 
         1.1229         240.536         43.2168 
        1.12903         239.446         42.6775 
        1.13518         237.656         42.1471 
        1.14131         235.944          41.626 
        1.14745         235.769         41.1142 
        1.15359         233.634         40.6109 
        1.15973         231.797          40.116 
        1.16584         230.351         39.6316 
        1.17197         230.422         39.1545 
        1.17811         227.379          38.684 
        1.18424         226.185         38.2226 
        1.19038         225.618         37.7675 
        1.19652          223.61           37.32 
        1.20267         223.234         36.8798 
        1.20881         221.226         36.4469 
        1.21495         219.875         36.0217 
        1.22108         218.543         35.6034 
         1.2272         217.158         35.1927 
        1.23334         216.412         34.7877 
        1.23949         214.363         34.3881 
        1.24562         213.643          33.996 
        1.25174         212.368         33.6106 
        1.25789         210.858         33.2301 
        1.26402          208.88         32.8562 
        1.27014         207.824          32.489 
        1.27628         206.759         32.1263 
        1.28244         206.709         31.7686 
        1.28858         204.415         31.4168 
        1.29471         203.195         31.0711 
        1.30084         202.081          30.731 
        1.30697         200.685         30.3956 
        1.31312         199.077         30.0646 
        1.31925         198.227         29.7397 
        1.32537         197.732           29.42 
        1.33151         195.772         29.1038 
        1.33765         194.466         28.7926 
        1.34378         193.884         28.4865 
        1.34992         192.838         28.1847 
        1.35606         192.778         27.8867 
         1.3622          190.68         27.5935 
        1.36833         189.066         27.3053 
        1.37445         188.443         27.0214 
        1.38059          186.85         26.7407 
        1.38675         186.263         26.4633 
        1.39288         185.247          26.191 
        1.39901         184.568         25.9227 
        1.40515         182.754         25.6576 
         1.4113         182.009         25.3963 
        1.41742         180.613         25.1397 
        1.42355         179.835         24.8862 
         1.4297         178.374         24.6354 
        1.43585         177.688         24.3882 
        1.44198          176.88         24.1454 
        1.44809         175.947         23.9064 
        1.45423         175.083         23.6698 
        1.46036         173.768         23.4368 
        1.46649         172.646         23.2068 
        1.47263         171.662         22.9798 
        1.47877         170.518          22.756 
        1.48491          169.02         22.5348 
        1.49104         168.928         22.3171 
        1.49718          167.28          22.102 
        1.50333         166.638         21.8895 
        1.50947         165.648         21.6802 
         1.5156           164.6          21.474 
        1.52172         163.931         21.2705 
        1.52787         162.365         21.0692 
          1.534         162.092         20.8708 
        1.54013         160.989         20.6751 
        1.54627         159.953         20.4817 
        1.55241         158.993         20.2907 
        1.55855         158.133         20.1024 
        1.56467         156.907         19.9171 
         1.5708         156.203         19.7336 
        1.57695         155.703         19.5521 
        1.58308         154.737         19.3733 
        1.58922         153.917         19.1967 
        1.59535         152.647         19.0224 
         1.6015         152.159           18.85 
        1.60764         151.241         18.6798 
        1.61376         150.327         18.5122 
        1.61989         149.519         18.3466 
        1.62604         148.373         18.1826 
        1.63218         148.002         18.0207 
        1.63831         146.884         17.8612 
        1.64444         146.201         17.7036 
        1.65059         145.375         17.5476 
        1.65673         144.325         17.3936 
        1.66285         143.719         17.2418 
        1.66898         142.729         17.0919 
        1.67512         142.363         16.9435 
        1.68127         141.145         16.7967 
         1.6874         140.309         16.6519 
        1.69353         139.761          16.509 
        1.69967          138.79         16.3674 
        1.70581         138.092         16.2276 
        1.71193         137.214         16.0899 
        1.71806         136.662         15.9536 
        1.72421         135.915         15.8185 
        1.73035         135.527         15.6852 
        1.73649         134.543         15.5535 
        1.74262         133.651         15.4234 
        1.74876          133.02         15.2947 
        1.75489         132.189         15.1677 
        1.76101         131.148         15.0422 
        1.76715         130.927          14.918 
        1.77329         130.285         14.7951 
        1.77943         129.407         14.6734 
        1.78557         128.922         14.5534 
        1.79171         127.989         14.4346 
        1.79785         127.238         14.3172 
        1.80399         126.532         14.2011 
        1.81012          125.94         14.0865 
        1.81625         125.377         13.9732 
        1.82239         124.705          13.861 
        1.82853         123.926         13.7501 
        1.83466         123.198         13.6405 
        1.84078         122.638         13.5322 
        1.84692         121.583         13.4249 
        1.85306         121.432         13.3187 
         1.8592         120.533         13.2137 
        1.86533         119.848           13.11 
        1.87147          119.08         13.0073 
        1.87761         118.325         12.9057 
        1.88375           117.7         12.8052 
        1.88988         117.055          12.706 
        1.89601         116.524         12.6077 
        1.90215         115.881         12.5104 
        1.90829         115.289         12.4142 
        1.91442         114.777          12.319 
        1.92056         113.962         12.2249 
         1.9267         113.604         12.1317 
        1.93284         112.812         12.0394 
        1.93897         112.206         11.9483 
        1.94509         111.754         11.8583 
        1.95123         111.145          11.769 
        1.95737         110.544         11.6805 
        1.96349         109.936         11.5932 
        1.96964         108.998         11.5066 
        1.97578         108.431         11.4208 
        1.98192         108.135          11.336 
        1.98805         107.447         11.2521 
        1.99419         106.965         11.1691 
        2.00033         106.254         11.0868 
        2.00647         105.892         11.0054 
         2.0126         105.071          10.925 
        2.01874         104.493         10.8453 
        2.02488         104.219         10.7662 
        2.03101         103.352         10.6882 
        2.03714         102.854         10.6109 
        2.04328          102.31         10.5344 
        2.04941         101.774         10.4587 
        2.05554         101.153         10.3837 
        2.06167         100.846         10.3095 
        2.06781         100.024         10.2359 
        2.07396         99.7293          10.163 
        2.08009         99.1811         10.0908 
        2.08622         98.4742         10.0195 
        2.09237         98.1049         9.94875 
        2.09851         97.5419         9.87866 
        2.10464         97.1096         9.80937 
        2.11077         96.5398         9.74082 
        2.11691         96.1817         9.67278 
        2.12305         95.4934         9.60539 
        2.12918         94.8927         9.53881 
        2.13531         94.4803         9.47286 
        2.14145         93.8037         9.40738 
         2.1476         93.3259         9.34245 
        2.15372         92.9768         9.27846 
        2.15985         92.5077           9.215 
        2.16599         91.8499         9.15197 
        2.17213          91.491         9.08959 
        2.17827         90.9746         9.02781 
         2.1844          90.406         8.96667 
        2.19054         90.1046         8.90607 
        2.19666          89.673         8.84612 
         2.2028         89.0948         8.78668 
        2.20893         88.7298         8.72775 
        2.21508         88.2104          8.6693 
        2.22122         87.7352         8.61137 
        2.22736         87.2331          8.5541 
        2.23349         86.8757         8.49736 
        2.23962         86.4727          8.4411 
        2.24577         85.9812         8.38532 
         2.2519         85.6406         8.33011 
        2.25802         84.9745         8.27549 
        2.26417          84.654         8.22122 
        2.27031          84.179         8.16738 
        2.27644          83.646         8.11418 
        2.28257         83.1963         8.06147 
        2.28872         83.0206         8.00912 
        2.29486          82.335         7.95725 
        2.30099         81.8478         7.90595 
        2.30712         81.6178         7.85508 
        2.31326         81.1293         7.80458 
         2.3194         80.6758         7.75455 
        2.32553         80.3919         7.70504 
        2.33166         79.9296         7.65599 
         2.3378         79.4001          7.6073 
        2.34394         79.0473         7.55903 
        2.35007          78.705         7.51124 
        2.35619         78.3097         7.46392 
        2.36233           77.79          7.4169 
        2.36848         77.3933          7.3702 
        2.37462         76.9756         7.32399 
        2.38075         76.6549         7.27823 
        2.38689         76.2292         7.23282 
        2.39303         75.7293         7.18781 
        2.39916         75.4765         7.14324 
        2.40529         75.2243         7.09904 
        2.41143         74.5866         7.05519 
        2.41757         74.3741         7.01169 
         2.4237         73.9943         6.96864 
        2.42983          73.551         6.92596 
        2.43598         73.1209         6.88353 
        2.44211         72.9609         6.84152 
        2.44823         72.4715         6.79995 
        2.45437         71.9482         6.75863 
        2.46052         71.6883         6.71761 
        2.46665         71.4428           6.677 
        2.47279         70.9207         6.63675 
        2.47892         70.6282          6.5968 
        2.48507         70.2417         6.55715 
         2.4912         69.9575          6.5179 
