# k  (h/Mpc)    Pcb(k)  (Mpc/h)^3    Pcb_linear(k)  (Mpc/h)^3
     0.00783031         597.229         603.111 
       0.013688         738.663         740.735 
       0.019231         739.068         739.338 
      0.0249154         667.635         670.468 
      0.0312784         568.086         568.008 
      0.0375637         477.671         476.266 
      0.0433917         412.697         412.621 
      0.0492413         370.091         369.467 
      0.0555754         338.299         339.203 
      0.0619321          317.54         316.513 
       0.067871         294.332         295.059 
      0.0738098         269.164         269.936 
      0.0800417         239.037         240.067 
      0.0862327         209.893         210.076 
      0.0921407         184.882         184.646 
      0.0982031         164.023          164.09 
       0.104506         149.998         149.174 
       0.110769         140.242         139.668 
       0.116806         133.338         133.451 
       0.122832         128.211         127.965 
       0.129052         121.074          121.35 
       0.135211          112.88         113.157 
       0.141259         104.105         103.904 
       0.147318         95.0173         94.4489 
       0.153489         86.1406         85.7497 
       0.159709         79.1719         78.7003 
       0.165845         74.5265         73.6242 
       0.171974          70.486         70.1037 
       0.178125         67.9467         67.5056 
       0.184229         65.6905         65.1706 
        0.19034         62.5971         62.5458 
       0.196428          59.784         59.4119 
       0.202534         56.5858         55.8309 
       0.208729         52.6293         52.0566 
       0.214876         48.9544         48.5352 
       0.220989         46.3125         45.5264 
       0.227147         43.5618         43.1037 
        0.23329         41.7008         41.2397 
       0.239377          40.302          39.767 
       0.245482          38.757         38.4495 
       0.251667         37.6553         37.0906 
       0.257832         36.1003         35.6041 
       0.263955         34.5337         33.9894 
       0.270079         32.8896         32.3108 
        0.27624         31.4484         30.6661 
       0.282372         29.9652         29.1716 
        0.28843         28.5606         27.8897 
       0.294538         27.4519         26.7954 
       0.300721         26.6518         25.8521 
        0.30691         25.6341         25.0056 
       0.313033         24.8374         24.2017 
       0.319153         23.7943         23.3839 
       0.325316         23.2504          22.532 
        0.33145         22.3293         21.6648 
       0.337538         21.5043         20.8147 
       0.343633         20.6327         20.0045 
       0.349808         19.9483         19.2501 
       0.355968         19.2798         18.5733 
       0.362074         18.6401         17.9701 
       0.368217         18.0921         17.4161 
       0.374374         17.4905         16.8912 
       0.380519         17.0456         16.3812 
       0.386598          16.568         15.8797 
       0.392688         16.1188         15.3777 
        0.39888         15.5795         14.8749 
       0.405048          15.124         14.3895 
       0.411186         14.6831         13.9303 
       0.417313         14.1901         13.5017 
       0.423458         13.8171         13.1011 
       0.429607         13.4028         12.7264 
       0.435692         13.0326         12.3761 
       0.441815         12.7128         12.0374 
       0.447964         12.4475         11.7058 
       0.454126         12.0265         11.3809 
       0.460267         11.7337         11.0639 
       0.466387         11.3752         10.7563 
        0.47254         11.1241         10.4578 
       0.478662         10.8721         10.1741 
       0.484765          10.551         9.90487 
       0.490885         10.2942         9.64768 
       0.497035         10.1291         9.40106 
       0.503198         9.84765          9.1642 
       0.509342         9.61814         8.93607 
       0.515458         9.37358         8.71519 
       0.521598         9.17218          8.4993 
       0.527764         8.93348          8.2887 
       0.533884         8.77357         8.08618 
           0.54         8.56094         7.89054 
       0.546137         8.38294         7.70114 
       0.552299         8.20556          7.5181 
       0.558452         7.97282         7.34248 
       0.564573         7.84124         7.17414 
       0.570708         7.67443         7.01098 
       0.576825         7.48311         6.85319 
       0.582926         7.34982         6.70022 
       0.589034         7.14209         6.55141 
       0.595184          7.0192         6.40597 
       0.601379          6.8644         6.26394 
       0.607522          6.7584         6.12744 
       0.613639         6.65264          5.9957 
       0.619772         6.47103         5.86769 
       0.625918         6.38242         5.74337 
       0.632068         6.27769         5.62281 
       0.638161         6.12528         5.50695 
         0.6443         6.00105         5.39361 
       0.650464         5.87052         5.28306 
       0.656582         5.80034         5.17635 
       0.662703         5.68907         5.07246 
       0.668861         5.59434         4.97078 
       0.675024         5.47413         4.87181 
       0.681124         5.36775         4.77657 
       0.687237         5.28928         4.68377 
       0.693381          5.1995          4.5931 
       0.699536         5.06346         4.50478 
       0.705665          4.9911         4.41923 
       0.711789         4.91243         4.33603 
       0.717957         4.81911         4.25444 
        0.72409         4.73734         4.17539 
       0.730186         4.66042         4.09884 
       0.736317          4.6116         4.02378 
       0.742472         4.53202         3.95033 
       0.748622         4.44485          3.8788 
        0.75476         4.35354         3.80921 
       0.760888         4.29035         3.74146 
       0.767043         4.24078         3.67513 
       0.773185         4.15146         3.61056 
       0.779291         4.10233         3.54795 
       0.785407         4.03263         3.48675 
       0.791564         3.97324         3.42664 
       0.797719         3.91364         3.36799 
       0.803834         3.86509         3.31111 
       0.809972         3.80819         3.25535 
       0.816124         3.73514         3.20076 
       0.822261          3.6691         3.14759 
       0.828378         3.62474          3.0958 
       0.834502         3.58741         3.04514 
       0.840667         3.51051          2.9953 
       0.846816         3.45738         2.94674 
       0.852925         3.42676         2.89956 
       0.859047         3.37592         2.85333 
       0.865192         3.32942         2.80798 
       0.871341         3.28703         2.76358 
       0.877463         3.24388         2.72036 
       0.883569         3.18489         2.67819 
       0.889708         3.13734         2.63671 
       0.895864          3.0984           2.596 
       0.902008         3.05124         2.55626 
       0.908149         3.01708         2.51738 
       0.914301         2.96045         2.47925 
       0.920448          2.9249         2.44196 
       0.926574           2.883         2.40557 
       0.932687         2.84937         2.37002 
       0.938823         2.81955         2.33506 
       0.944975         2.77999         2.30073 
       0.951105         2.74761         2.26723 
       0.957225          2.7264         2.23446 
       0.963368         2.68523         2.20223 
       0.969511         2.64495         2.17064 
       0.975621         2.60515         2.13985 
       0.981748         2.58241         2.10958 
       0.987916         2.54719         2.07972 
        0.99406         2.50633         2.05055 
        1.00019         2.48303           2.022 
        1.00632          2.4502         1.99403 
        1.01246         2.42206         1.96655 
        1.01859         2.39462         1.93964 
        1.02471         2.36269         1.91327 
        1.03085         2.33787         1.88731 
        1.03698         2.30531         1.86189 
        1.04314         2.28304         1.83683 
        1.04929         2.25294         1.81229 
        1.05541         2.22892         1.78831 
        1.06154         2.20221          1.7647 
        1.06769         2.18042         1.74149 
        1.07382         2.15178         1.71878 
        1.07993         2.12068         1.69653 
        1.08607          2.1095         1.67458 
        1.09222         2.07987           1.653 
        1.09836         2.06415         1.63184 
        1.10449         2.03978         1.61107 
        1.11063         2.01063         1.59064 
        1.11677         1.98858         1.57058 
         1.1229         1.96777         1.55091 
        1.12903          1.9439         1.53155 
        1.13518         1.92844         1.51252 
        1.14131         1.90102         1.49382 
        1.14745         1.87058         1.47545 
        1.15359         1.86172         1.45739 
        1.15973         1.83305         1.43963 
        1.16584         1.82632         1.42225 
        1.17197         1.80349         1.40513 
        1.17811         1.78675         1.38824 
        1.18424          1.7723         1.37168 
        1.19038          1.7491         1.35535 
        1.19652          1.7299         1.33929 
        1.20267         1.71725          1.3235 
        1.20881         1.69339         1.30796 
        1.21495         1.68154          1.2927 
        1.22108         1.66452         1.27769 
         1.2272         1.65225         1.26295 
        1.23334         1.63055         1.24842 
        1.23949         1.61297         1.23408 
        1.24562         1.60142            1.22 
        1.25174          1.5835         1.20617 
        1.25789         1.56945         1.19252 
        1.26402         1.54893          1.1791 
        1.27014         1.53485         1.16592 
        1.27628         1.52824         1.15291 
        1.28244         1.50531         1.14007 
        1.28858         1.49382         1.12745 
        1.29471         1.47945         1.11504 
        1.30084         1.46355         1.10284 
        1.30697         1.45268          1.0908 
        1.31312         1.43135         1.07892 
        1.31925         1.42455         1.06726 
        1.32537         1.41152         1.05579 
        1.33151         1.40036         1.04444 
        1.33765         1.38443         1.03327 
        1.34378         1.36946         1.02229 
        1.34992         1.36316         1.01146 
        1.35606         1.34485         1.00076 
         1.3622         1.33691        0.990241 
        1.36833         1.32376        0.979898 
        1.37445          1.3086         0.96971 
        1.38059         1.29908        0.959636 
        1.38675         1.29521        0.949682 
        1.39288         1.27732         0.93991 
        1.39901          1.2656        0.930282 
        1.40515         1.25601        0.920768 
         1.4113         1.24433        0.911391 
        1.41742         1.23371        0.902182 
        1.42355         1.22918        0.893084 
         1.4297         1.21215        0.884085 
        1.43585         1.20375        0.875215 
        1.44198         1.19806        0.866501 
        1.44809         1.18168        0.857924 
        1.45423         1.17321        0.849431 
        1.46036          1.1637         0.84107 
        1.46649         1.15372        0.832819 
        1.47263         1.14338        0.824673 
        1.47877          1.1325         0.81664 
        1.48491         1.12374        0.808702 
        1.49104         1.11483        0.800887 
        1.49718         1.10849         0.79317 
        1.50333         1.09669        0.785543 
        1.50947         1.09053        0.778033 
         1.5156         1.08004        0.770632 
        1.52172         1.07127        0.763329 
        1.52787         1.06158        0.756106 
          1.534         1.05569        0.748985 
        1.54013         1.04386        0.741965 
        1.54627         1.03569        0.735022 
        1.55241         1.02723        0.728168 
        1.55855         1.01999        0.721412 
        1.56467         1.01423         0.71476 
         1.5708         1.00261        0.708174 
        1.57695         0.99852        0.701662 
        1.58308        0.990266        0.695247 
        1.58922        0.982023        0.688909 
        1.59535        0.974664        0.682652 
         1.6015        0.967349        0.676466 
        1.60764        0.961212        0.670359 
        1.61376         0.95206        0.664345 
        1.61989        0.945973          0.6584 
        1.62604        0.937917        0.652516 
        1.63218        0.933774        0.646707 
        1.63831         0.92417        0.640983 
        1.64444        0.917126        0.635327 
        1.65059        0.911843        0.629726 
        1.65673        0.903544        0.624199 
        1.66285        0.896883        0.618755 
        1.66898        0.893312        0.613374 
        1.67512        0.883197        0.608047 
        1.68127        0.877254        0.602779 
         1.6874        0.873576        0.597585 
        1.69353        0.864717        0.592456 
        1.69967        0.858511        0.587376 
        1.70581        0.854249        0.582357 
        1.71193        0.847125        0.577417 
        1.71806        0.842415        0.572523 
        1.72421        0.835612        0.567677 
        1.73035         0.82851        0.562893 
        1.73649        0.824889        0.558166 
        1.74262         0.81876        0.553496 
        1.74876        0.812203        0.548878 
        1.75489        0.805373        0.544321 
        1.76101        0.800297        0.539819 
        1.76715        0.795385        0.535361 
        1.77329        0.790381        0.530948 
        1.77943         0.78367        0.526584 
        1.78557        0.778288        0.522275 
        1.79171        0.774711        0.518014 
        1.79785        0.768617          0.5138 
        1.80399        0.763586        0.509635 
        1.81012        0.759467        0.505521 
        1.81625        0.753097        0.501455 
        1.82239        0.749098        0.497427 
        1.82853        0.740895        0.493446 
        1.83466        0.737919        0.489513 
        1.84078        0.732117        0.485627 
        1.84692        0.729418        0.481778 
        1.85306        0.724057        0.477965 
         1.8592        0.720017          0.4742 
        1.86533        0.714698        0.470478 
        1.87147         0.71015        0.466792 
        1.87761        0.705678        0.463144 
        1.88375        0.698967        0.459539 
        1.88988        0.696759        0.455977 
        1.89601        0.690995        0.452451 
        1.90215        0.687329         0.44896 
        1.90829        0.681992        0.445508 
        1.91442        0.677763        0.442091 
        1.92056        0.674271        0.438714 
         1.9267        0.669085        0.435369 
        1.93284        0.666436        0.432057 
        1.93897        0.661592        0.428786 
        1.94509        0.657555        0.425556 
        1.95123         0.65266        0.422351 
        1.95737        0.649396        0.419177 
        1.96349        0.644197        0.416045 
        1.96964        0.641152        0.412935 
        1.97578        0.636734        0.409856 
        1.98192        0.634513        0.406814 
        1.98805         0.62897        0.403804 
        1.99419        0.626011        0.400823 
        2.00033        0.623428        0.397872 
        2.00647        0.617991        0.394951 
         2.0126        0.614675        0.392065 
        2.01874        0.611338        0.389203 
        2.02488        0.608254        0.386367 
        2.03101        0.602785        0.383565 
        2.03714        0.598726        0.380794 
        2.04328        0.597251        0.378047 
        2.04941        0.593158         0.37533 
        2.05554        0.589211        0.372641 
        2.06167        0.585804        0.369975 
        2.06781        0.581396        0.367335 
        2.07396        0.577757        0.364717 
        2.08009        0.575193         0.36213 
        2.08622        0.571539         0.35957 
        2.09237        0.570163         0.35703 
        2.09851        0.566622        0.354515 
        2.10464        0.563395        0.352028 
        2.11077        0.559543        0.349568 
        2.11691        0.555924        0.347127 
        2.12305        0.552987        0.344708 
        2.12918        0.549999        0.342319 
        2.13531        0.546579        0.339952 
        2.14145         0.54384        0.337602 
         2.1476         0.54023        0.335272 
        2.15372        0.538629        0.332976 
        2.15985        0.534094        0.330699 
        2.16599        0.530705        0.328436 
        2.17213        0.528449        0.326198 
        2.17827        0.526674        0.323981 
         2.1844        0.523849        0.321787 
        2.19054        0.520944        0.319612 
        2.19666        0.517086        0.317461 
         2.2028        0.514615        0.315327 
        2.20893        0.511884        0.313213 
        2.21508        0.509497        0.311115 
        2.22122        0.504976        0.309036 
        2.22736        0.502851        0.306981 
        2.23349        0.501744        0.304945 
        2.23962         0.49846        0.302926 
        2.24577        0.494452        0.300924 
         2.2519        0.492768        0.298943 
        2.25802        0.489845        0.296983 
        2.26417         0.48678        0.295035 
        2.27031        0.484275        0.293103 
        2.27644        0.482461        0.291194 
        2.28257        0.479878        0.289302 
        2.28872        0.477071        0.287423 
        2.29486         0.47437        0.285562 
        2.30099        0.471839        0.283721 
        2.30712        0.469925        0.281896 
        2.31326        0.467196        0.280083 
         2.3194        0.466292        0.278288 
        2.32553        0.463486        0.276511 
        2.33166        0.460938        0.274751 
         2.3378         0.45851        0.273003 
        2.34394        0.454636        0.271271 
        2.35007        0.453144        0.269556 
        2.35619        0.451078        0.267858 
        2.36233        0.447703        0.266171 
        2.36848        0.446543        0.264495 
        2.37462        0.443576        0.262836 
        2.38075        0.442692        0.261194 
        2.38689        0.439649        0.259565 
        2.39303        0.438367        0.257949 
        2.39916        0.434672         0.25635 
        2.40529        0.433261        0.254764 
        2.41143        0.431474         0.25319 
        2.41757        0.429138        0.251629 
         2.4237        0.427089        0.250084 
        2.42983        0.425252        0.248552 
        2.43598        0.423134        0.247029 
        2.44211        0.421361        0.245522 
        2.44823         0.41936         0.24403 
        2.45437        0.416526        0.242547 
        2.46052         0.41585        0.241075 
        2.46665        0.412924        0.239618 
        2.47279        0.410773        0.238173 
        2.47892         0.40841         0.23674 
        2.48507        0.407074        0.235317 
         2.4912        0.405358        0.233908 
