# k  (h/Mpc)    P(k)  (Mpc/h)^3    P_linear(k)  (Mpc/h)^3
     0.00783031         11545.1         11742.9 
       0.013688         14469.7         14393.1 
       0.019231         14363.4         14352.9 
      0.0249154         12770.9         13009.1 
      0.0312784         10922.7         11017.1 
      0.0375637         9249.65         9235.64 
      0.0433917         7894.34         8000.31 
      0.0492413         7129.87         7162.85 
      0.0555754         6411.57         6575.57 
      0.0619321         6150.76         6135.34 
       0.067871         5590.84          5719.2 
      0.0738098         5117.09         5232.05 
      0.0800417         4516.33         4652.96 
      0.0862327         4010.53         4071.56 
      0.0921407         3592.51         3578.63 
      0.0982031         3181.16         3180.18 
       0.104506         2975.29         2891.04 
       0.110769         2773.69         2706.78 
       0.116806         2628.47         2586.27 
       0.122832         2522.96         2479.92 
       0.129052         2346.25          2351.7 
       0.135211         2202.52         2192.92 
       0.141259         2072.71         2013.58 
       0.147318         1920.07         1830.34 
       0.153489         1742.93         1661.75 
       0.159709         1636.14         1525.13 
       0.165845         1567.72         1426.76 
       0.171974         1485.32         1358.53 
       0.178125         1422.84         1308.18 
       0.184229         1370.11         1262.92 
        0.19034         1286.97         1212.05 
       0.196428         1256.58         1151.32 
       0.202534         1204.99         1081.92 
       0.208729         1137.05         1008.78 
       0.214876         1075.83         940.538 
       0.220989         1035.89         882.229 
       0.227147         986.388         835.277 
        0.23329         948.158         799.156 
       0.239377         930.417         770.618 
       0.245482          870.91         745.086 
       0.251667         864.381         718.752 
       0.257832          830.98         689.947 
       0.263955         801.894         658.654 
       0.270079         770.813         626.127 
        0.27624         759.916         594.254 
       0.282372          727.94         565.293 
        0.28843         712.944         540.451 
       0.294538          677.28         519.242 
       0.300721         673.982         500.965 
        0.30691         644.242         484.561 
       0.313033         631.621         468.982 
       0.319153         614.177         453.135 
       0.325316         595.741          436.63 
        0.33145         578.769         419.822 
       0.337538          570.07         403.348 
       0.343633         552.668          387.65 
       0.349808         533.499         373.029 
       0.355968         529.226         359.913 
       0.362074         520.367         348.226 
       0.368217         505.683         337.489 
       0.374374         484.458         327.319 
       0.380519         482.166         317.434 
       0.386598         469.651         307.716 
       0.392688         466.802         297.989 
        0.39888         453.326         288.245 
       0.405048         444.041         278.839 
       0.411186         436.493         269.939 
       0.417313         428.122         261.635 
       0.423458          419.96         253.873 
       0.429607         412.568         246.611 
       0.435692         402.415         239.824 
       0.441815          399.12          233.26 
       0.447964         390.835         226.835 
       0.454126         380.611         220.537 
       0.460267          374.56         214.397 
       0.466387         370.313         208.434 
        0.47254          362.84          202.65 
       0.478662          361.93         197.153 
       0.484765         349.832         191.936 
       0.490885           346.3         186.951 
       0.497035         340.298         182.173 
       0.503198         334.684         177.583 
       0.509342         332.102         173.162 
       0.515458         328.248         168.882 
       0.521598          320.93         164.698 
       0.527764         315.792         160.618 
       0.533884         313.252         156.693 
           0.54         308.807         152.902 
       0.546137         307.394         149.232 
       0.552299         300.953         145.685 
       0.558452         299.112         142.282 
       0.564573         294.578          139.02 
       0.570708         289.059         135.858 
       0.576825         284.204           132.8 
       0.582926         281.827         129.836 
       0.589034         279.111         126.952 
       0.595184         276.353         124.134 
       0.601379         272.958         121.382 
       0.607522         268.512         118.737 
       0.613639         267.067         116.184 
       0.619772         261.009         113.703 
       0.625918         259.931         111.294 
       0.632068         255.943         108.958 
       0.638161         254.851         106.713 
         0.6443          250.63         104.516 
       0.650464         248.213         102.374 
       0.656582         246.369         100.306 
       0.662703         244.987         98.2933 
       0.668861         240.593          96.323 
       0.675024         237.812         94.4051 
       0.681124         236.702         92.5595 
       0.687237         233.733         90.7612 
       0.693381         230.226         89.0043 
       0.699536         228.458         87.2928 
       0.705665         226.736         85.6351 
       0.711789         224.293         84.0229 
       0.717957         223.159         82.4417 
        0.72409         220.609         80.9101 
       0.730186         217.972         79.4265 
       0.736317         215.716         77.9721 
       0.742472         214.584         76.5488 
       0.748622         212.676         75.1627 
        0.75476         210.884         73.8142 
       0.760888         208.195         72.5014 
       0.767043         208.049         71.2159 
       0.773185         205.624         69.9648 
       0.779291         201.853         68.7515 
       0.785407         201.411         67.5657 
       0.791564         199.451         66.4008 
       0.797719         196.899         65.2643 
       0.803834         195.876          64.162 
       0.809972         194.578         63.0815 
       0.816124         194.216         62.0238 
       0.822261         191.687         60.9934 
       0.828378         189.964         59.9898 
       0.834502         189.617         59.0081 
       0.840667         186.785         58.0424 
       0.846816         185.304         57.1012 
       0.852925         184.641         56.1871 
       0.859047         182.763         55.2913 
       0.865192         181.015         54.4124 
       0.871341         179.465         53.5522 
       0.877463         178.192         52.7147 
       0.883569         177.573         51.8974 
       0.889708         175.751         51.0935 
       0.895864         173.697         50.3048 
       0.902008         172.991         49.5346 
       0.908149         172.342         48.7812 
       0.914301         170.208         48.0424 
       0.920448         169.008         47.3198 
       0.926574         168.044         46.6147 
       0.932687         167.821         45.9257 
       0.938823         165.628         45.2482 
       0.944975         164.196         44.5831 
       0.951105         163.548         43.9339 
       0.957225         161.916         43.2988 
       0.963368         160.033         42.6743 
       0.969511         159.646         42.0622 
       0.975621         158.487         41.4655 
       0.981748         158.187          40.879 
       0.987916         156.383         40.3003 
        0.99406         155.123         39.7351 
        1.00019         154.995         39.1819 
        1.00632         153.468         38.6399 
        1.01246         152.534         38.1074 
        1.01859         151.757         37.5859 
        1.02471          150.24          37.075 
        1.03085         148.742         36.5718 
        1.03698          148.23         36.0792 
        1.04314         146.854         35.5936 
        1.04929         146.006         35.1182 
        1.05541         145.531         34.6534 
        1.06154         144.422          34.196 
        1.06769         144.265         33.7462 
        1.07382         142.928         33.3061 
        1.07993         141.737         32.8749 
        1.08607         140.943         32.4496 
        1.09222         140.435         32.0315 
        1.09836         139.193         31.6214 
        1.10449         137.908         31.2189 
        1.11063         136.931         30.8231 
        1.11677         136.687         30.4344 
         1.1229         135.392         30.0531 
        1.12903         134.728         29.6781 
        1.13518         134.429         29.3092 
        1.14131         133.044         28.9469 
        1.14745         132.569         28.5909 
        1.15359         131.649          28.241 
        1.15973         131.124         27.8968 
        1.16584         129.721         27.5599 
        1.17197         129.207         27.2282 
        1.17811         128.544          26.901 
        1.18424         127.906         26.5801 
        1.19038         127.463         26.2636 
        1.19652         126.472         25.9525 
        1.20267         125.709         25.6464 
        1.20881         124.713         25.3453 
        1.21495         124.155         25.0496 
        1.22108         123.547         24.7587 
         1.2272         122.387         24.4732 
        1.23334         121.939         24.1915 
        1.23949         120.991         23.9136 
        1.24562         120.463         23.6409 
        1.25174         119.436         23.3729 
        1.25789         118.971         23.1083 
        1.26402         118.134         22.8483 
        1.27014         117.512         22.5929 
        1.27628         116.996         22.3408 
        1.28244         116.456          22.092 
        1.28858         116.031         21.8473 
        1.29471         114.743          21.607 
        1.30084         114.455         21.3705 
        1.30697         113.589         21.1372 
        1.31312         113.221         20.9071 
        1.31925         112.272         20.6811 
        1.32537         111.821         20.4588 
        1.33151         110.778         20.2389 
        1.33765         110.463         20.0225 
        1.34378         109.832         19.8096 
        1.34992         109.565         19.5997 
        1.35606          108.84         19.3925 
         1.3622         107.916         19.1886 
        1.36833         107.481         18.9882 
        1.37445         106.814         18.7908 
        1.38059         106.283         18.5956 
        1.38675         105.562         18.4027 
        1.39288         105.244         18.2133 
        1.39901         104.768         18.0267 
        1.40515         103.946         17.8424 
         1.4113         103.268         17.6607 
        1.41742         103.007         17.4822 
        1.42355         102.252         17.3059 
         1.4297         101.797         17.1316 
        1.43585         100.953         16.9597 
        1.44198         100.664         16.7908 
        1.44809         100.011         16.6246 
        1.45423         99.4757           16.46 
        1.46036         99.2029          16.298 
        1.46649         98.4618         16.1381 
        1.47263         97.8954         15.9803 
        1.47877         97.6843         15.8246 
        1.48491         96.6916         15.6708 
        1.49104         96.5437         15.5194 
        1.49718         95.8116         15.3698 
        1.50333         95.3954          15.222 
        1.50947         94.9399         15.0765 
         1.5156         94.3226         14.9331 
        1.52172          93.783         14.7916 
        1.52787         93.4596         14.6516 
          1.534         92.7974         14.5136 
        1.54013         92.3009         14.3776 
        1.54627         91.9867          14.243 
        1.55241         91.3261         14.1102 
        1.55855         91.0052         13.9793 
        1.56467         90.6095         13.8504 
         1.5708         89.9592         13.7228 
        1.57695         89.8802         13.5966 
        1.58308         88.9528         13.4723 
        1.58922         88.8452         13.3495 
        1.59535         88.3497         13.2282 
         1.6015         87.7395         13.1083 
        1.60764         87.3308           12.99 
        1.61376          87.126         12.8735 
        1.61989         86.4202         12.7583 
        1.62604         86.2134         12.6443 
        1.63218         85.7193         12.5317 
        1.63831         84.9193         12.4208 
        1.64444         84.7305         12.3112 
        1.65059         84.2696         12.2026 
        1.65673         83.6006         12.0955 
        1.66285         83.4079           11.99 
        1.66898         82.9112         11.8858 
        1.67512         82.4324         11.7825 
        1.68127         82.1046         11.6805 
         1.6874         81.6323         11.5798 
        1.69353           81.18         11.4804 
        1.69967         80.7233          11.382 
        1.70581         80.5332         11.2847 
        1.71193         80.2211          11.189 
        1.71806         79.6049         11.0942 
        1.72421         79.1592         11.0003 
        1.73035         78.8147         10.9076 
        1.73649         78.4434          10.816 
        1.74262         78.0131         10.7255 
        1.74876         77.7052          10.636 
        1.75489         77.0831         10.5477 
        1.76101          76.911         10.4604 
        1.76715         76.3658          10.374 
        1.77329         76.1461         10.2885 
        1.77943          75.543          10.204 
        1.78557         75.4473         10.1205 
        1.79171         74.8551         10.0379 
        1.79785         74.5028         9.95625 
        1.80399          74.266         9.87553 
        1.81012         73.9766         9.79582 
        1.81625         73.3891         9.71702 
        1.82239         73.1393         9.63898 
        1.82853         72.8364         9.56184 
        1.83466         72.4306         9.48562 
        1.84078         72.1487         9.41033 
        1.84692         71.5988         9.33573 
        1.85306         71.2778         9.26185 
         1.8592         70.9124         9.18889 
        1.86533         70.5765         9.11677 
        1.87147         70.1071         9.04534 
        1.87761         69.8843         8.97465 
        1.88375         69.4978          8.9048 
        1.88988         69.2148         8.83578 
        1.89601         68.7918         8.76745 
        1.90215         68.4902          8.6998 
        1.90829          68.208         8.63289 
        1.91442          67.861         8.56669 
        1.92056         67.3392         8.50125 
         1.9267          67.193         8.43643 
        1.93284         66.7265         8.37225 
        1.93897         66.3976         8.30887 
        1.94509         66.1258         8.24628 
        1.95123          65.786         8.18418 
        1.95737         65.5449         8.12267 
        1.96349         65.0372         8.06197 
        1.96964         64.8807         8.00171 
        1.97578         64.5715         7.94204 
        1.98192         64.2708         7.88311 
        1.98805         63.9972         7.82477 
        1.99419         63.5227         7.76702 
        2.00033         63.2968         7.70982 
        2.00647         63.0293         7.65322 
         2.0126         62.5356         7.59729 
        2.01874         62.2689         7.54184 
        2.02488         62.0611         7.48689 
        2.03101         61.7982         7.43259 
        2.03714         61.4067         7.37889 
        2.04328         61.1956         7.32566 
        2.04941         60.8524           7.273 
        2.05554         60.6047          7.2209 
        2.06167         60.2533         7.16924 
        2.06781         59.9774         7.11808 
        2.07396         59.6347         7.06736 
        2.08009           59.45         7.01721 
        2.08622         59.1598         6.96762 
        2.09237         58.7738          6.9184 
        2.09851         58.6504         6.86966 
        2.10464         58.2301         6.82147 
        2.11077         57.9278         6.77381 
        2.11691          57.641         6.72649 
        2.12305         57.4364         6.67963 
        2.12918         57.1852         6.63333 
        2.13531         56.8008         6.58746 
        2.14145         56.5561         6.54193 
         2.1476         56.3403         6.49678 
        2.15372         56.0531         6.45228 
        2.15985         55.7648         6.40815 
        2.16599         55.4773         6.36431 
        2.17213         55.2802         6.32094 
        2.17827         54.9793         6.27798 
         2.1844         54.6557         6.23546 
        2.19054         54.3903         6.19332 
        2.19666          54.113         6.15163 
         2.2028          54.046         6.11029 
        2.20893         53.7612         6.06931 
        2.21508         53.4218         6.02867 
        2.22122         53.2229         5.98838 
        2.22736         52.9926         5.94855 
        2.23349         52.7024          5.9091 
        2.23962         52.3545         5.86998 
        2.24577          52.111         5.83118 
         2.2519          51.816         5.79279 
        2.25802          51.737         5.75481 
        2.26417         51.3427         5.71707 
        2.27031         51.1895         5.67963 
        2.27644         50.9914         5.64264 
        2.28257         50.6579         5.60598 
        2.28872         50.3631         5.56958 
        2.29486         50.2318         5.53351 
        2.30099         49.9949         5.49783 
        2.30712         49.7769         5.46246 
        2.31326         49.4685         5.42734 
         2.3194          49.184         5.39255 
        2.32553         48.9597         5.35812 
        2.33166         48.7471         5.32401 
         2.3378         48.5065         5.29015 
        2.34394         48.2438         5.25658 
        2.35007         47.9867         5.22335 
        2.35619         47.7987         5.19044 
        2.36233         47.6951         5.15775 
        2.36848         47.3908         5.12527 
        2.37462         47.1524         5.09314 
        2.38075         46.9865         5.06131 
        2.38689         46.7482         5.02974 
        2.39303         46.5204         4.99844 
        2.39916          46.311         4.96744 
        2.40529         46.1243          4.9367 
        2.41143         45.9024         4.90621 
        2.41757         45.6219         4.87596 
         2.4237         45.5057         4.84602 
        2.42983          45.229         4.81634 
        2.43598         45.0001         4.78683 
        2.44211         44.8571         4.75762 
        2.44823         44.5926         4.72872 
        2.45437          44.387         4.69998 
        2.46052         44.0991         4.67145 
        2.46665         43.9515         4.64322 
        2.47279         43.7814         4.61522 
        2.47892         43.6046         4.58744 
        2.48507         43.3328         4.55987 
         2.4912         43.2074         4.53257 
