# k  (h/Mpc)    P(k)  (Mpc/h)^3    P_linear(k)  (Mpc/h)^3
     0.00783031         2529.29         2550.49 
       0.013688         3165.01         3211.02 
       0.019231          3289.1         3312.11 
      0.0249154         3129.35         3127.73 
      0.0312784         2772.51         2780.57 
      0.0375637         2417.76         2431.82 
      0.0433917         2164.97         2164.24 
      0.0492413          1953.6         1961.82 
      0.0555754         1803.46         1801.62 
      0.0619321         1649.76         1673.58 
       0.067871         1550.74         1559.41 
      0.0738098         1432.89         1437.56 
      0.0800417         1300.86         1300.66 
      0.0862327         1161.29         1164.54 
      0.0921407         1043.94         1045.84 
      0.0982031         948.376         944.002 
       0.104506         858.856         862.664 
       0.110769         801.522         803.568 
       0.116806         766.154         760.361 
       0.122832         722.025         723.038 
       0.129052          686.28         684.051 
       0.135211          648.77         641.594 
       0.141259         600.077         596.457 
       0.147318          550.39         550.629 
       0.153489         511.356         507.038 
       0.159709         478.582         469.264 
       0.165845          441.34         439.265 
       0.171974         426.834         415.894 
       0.178125         408.079         397.143 
       0.184229         386.443         380.808 
        0.19034         374.464         364.641 
       0.196428         357.945         347.509 
       0.202534         334.475         329.146 
       0.208729         321.271         310.032 
       0.214876         305.798         291.718 
       0.220989         284.353         275.175 
       0.227147         275.797         260.787 
        0.23329         264.626         248.741 
       0.239377         256.242         238.641 
       0.245482         244.757         229.661 
       0.251667         234.533         221.041 
       0.257832         230.016         212.409 
       0.263955         217.646         203.603 
       0.270079         208.979          194.66 
        0.27624         199.128         185.808 
       0.282372         192.085         177.473 
        0.28843         188.753         169.938 
       0.294538         180.298         163.142 
       0.300721         172.674         157.021 
        0.30691         169.467         151.478 
       0.313033         162.828         146.355 
       0.319153         159.852         141.404 
       0.325316         153.293         136.475 
        0.33145         148.319         131.599 
       0.337538         143.612         126.838 
       0.343633         139.259         122.232 
       0.349808         134.651         117.814 
       0.355968         130.741         113.709 
       0.362074         128.148         109.943 
       0.368217         124.752         106.431 
       0.374374         122.015         103.124 
       0.380519         116.885         99.9754 
       0.386598         113.968         96.9619 
       0.392688         110.735         94.0125 
        0.39888         108.641         91.0868 
       0.405048         106.091         88.2577 
       0.411186         103.631         85.5483 
       0.417313         100.832         82.9704 
       0.423458         98.1325         80.5192 
       0.429607         96.4076         78.1965 
       0.435692         94.7936         76.0165 
       0.441815         91.4922         73.9205 
       0.447964         88.8549         71.8946 
       0.454126         87.2631         69.9319 
       0.460267         86.5202         68.0353 
       0.466387         84.2594         66.2006 
        0.47254         83.1519          64.416 
       0.478662         80.3844         62.7055 
       0.484765         78.9609         61.0671 
       0.490885         76.8676         59.4904 
       0.497035         76.0811          57.971 
       0.503198           74.23         56.5098 
       0.509342         72.3678         55.1068 
       0.515458         71.5229         53.7569 
       0.521598         69.8156         52.4445 
       0.527764         68.9549         51.1679 
       0.533884         67.8755         49.9402 
           0.54          66.333          48.752 
       0.546137         64.4993         47.5982 
       0.552299         63.4951          46.479 
       0.558452         62.2585         45.4007 
       0.564573         61.8911         44.3645 
       0.570708         60.1003         43.3601 
       0.576825         59.4557         42.3906 
       0.582926         58.6155         41.4532 
       0.589034         57.5246         40.5429 
       0.595184         56.7735         39.6537 
       0.601379          55.285         38.7849 
       0.607522         54.5153         37.9486 
       0.613639         53.8508         37.1406 
       0.619772         52.8977         36.3545 
       0.625918         51.9996         35.5904 
       0.632068         51.5375         34.8488 
       0.638161         50.5178         34.1358 
         0.6443         49.9225          33.438 
       0.650464         48.7674         32.7575 
       0.656582          48.514         32.1008 
       0.662703         47.9573         31.4617 
       0.668861         46.7657         30.8364 
       0.675024         46.4084         30.2278 
       0.681124         45.9457         29.6419 
       0.687237          45.033         29.0706 
       0.693381         44.3698         28.5121 
       0.699536         44.1076         27.9676 
       0.705665         43.3287         27.4399 
       0.711789         42.6419         26.9264 
       0.717957         41.9188         26.4228 
        0.72409         41.5356         25.9349 
       0.730186         41.3408         25.4624 
       0.736317         40.5635         24.9992 
       0.742472         40.0857         24.5459 
       0.748622         39.4853         24.1044 
        0.75476         38.6595         23.6749 
       0.760888         38.5969         23.2565 
       0.767043         37.9421         22.8468 
       0.773185         37.6011         22.4479 
       0.779291         37.1528          22.061 
       0.785407         36.5819         21.6827 
       0.791564         36.4889          21.311 
       0.797719         35.7781         20.9482 
       0.803834         35.5626         20.5963 
       0.809972          34.985         20.2513 
       0.816124         34.6405         19.9136 
       0.822261         34.2765         19.5845 
       0.828378         33.9935         19.2639 
       0.834502         33.6463         18.9503 
       0.840667         33.3181         18.6417 
       0.846816         32.6525         18.3409 
       0.852925         32.5911         18.0488 
       0.859047         32.2845         17.7624 
       0.865192         31.8213         17.4814 
       0.871341         31.4526         17.2063 
       0.877463         31.1655         16.9385 
       0.883569          31.022         16.6771 
       0.889708         30.5898         16.4199 
       0.895864         30.2227         16.1676 
       0.902008         29.8913         15.9211 
       0.908149         29.6123           15.68 
       0.914301         29.4528         15.4435 
       0.920448         29.0663         15.2122 
       0.926574         28.7654         14.9864 
       0.932687         28.4906         14.7658 
       0.938823         28.1529         14.5488 
       0.944975         27.9415         14.3358 
       0.951105         27.6955         14.1278 
       0.957225         27.5366         13.9244 
       0.963368         27.1436         13.7243 
       0.969511         26.9164         13.5282 
       0.975621         26.6912         13.3369 
       0.981748         26.3889          13.149 
       0.987916         26.2402         12.9635 
        0.99406         25.9252         12.7823 
        1.00019         25.7638         12.6049 
        1.00632         25.5548         12.4311 
        1.01246         25.3481         12.2604 
        1.01859         25.0591         12.0932 
        1.02471         24.8454         11.9293 
        1.03085         24.7522         11.7679 
        1.03698         24.5388         11.6098 
        1.04314         24.2684         11.4541 
        1.04929         24.0131         11.3015 
        1.05541          23.931         11.1524 
        1.06154         23.7627         11.0056 
        1.06769         23.4905         10.8612 
        1.07382         23.2514           10.72 
        1.07993         23.0628         10.5816 
        1.08607         22.9542         10.4451 
        1.09222         22.7264         10.3108 
        1.09836         22.5631         10.1791 
        1.10449         22.4002         10.0499 
        1.11063         22.2574         9.92281 
        1.11677         22.1696         9.79796 
         1.1229         21.9383         9.67549 
        1.12903         21.7748         9.55503 
        1.13518         21.5811         9.43653 
        1.14131         21.4674         9.32013 
        1.14745         21.1886         9.20577 
        1.15359         21.0281         9.09332 
        1.15973         20.8818         8.98272 
        1.16584         20.7299         8.87447 
        1.17197         20.5421         8.76786 
        1.17811         20.4277         8.66269 
        1.18424         20.2796         8.55956 
        1.19038         20.1895         8.45783 
        1.19652         19.9921          8.3578 
        1.20267         19.8902          8.2594 
        1.20881         19.6942         8.16262 
        1.21495         19.5689         8.06755 
        1.22108         19.5271         7.97402 
         1.2272         19.3668          7.8822 
        1.23334         19.2418         7.79163 
        1.23949         19.0897         7.70228 
        1.24562         18.9095         7.61459 
        1.25174         18.8417          7.5284 
        1.25789         18.6981         7.44329 
        1.26402         18.6147         7.35966 
        1.27014         18.5124         7.27752 
        1.27628         18.2991         7.19639 
        1.28244         18.3036         7.11635 
        1.28858         18.0999         7.03765 
        1.29471         17.9107         6.96031 
        1.30084          17.816         6.88422 
        1.30697         17.7897         6.80915 
        1.31312          17.614         6.73511 
        1.31925         17.5303          6.6624 
        1.32537         17.4018         6.59085 
        1.33151          17.298         6.52009 
        1.33765         17.2163         6.45043 
        1.34378         17.1361         6.38193 
        1.34992         17.0055         6.31438 
        1.35606          16.848         6.24766 
         1.3622         16.7342         6.18204 
        1.36833         16.7057         6.11752 
        1.37445         16.6135         6.05396 
        1.38059         16.5098         5.99112 
        1.38675         16.3932         5.92902 
        1.39288         16.2561         5.86806 
        1.39901         16.1972         5.80798 
        1.40515         16.0928         5.74862 
         1.4113          15.991         5.69011 
        1.41742         15.9298         5.63265 
        1.42355         15.7861         5.57588 
         1.4297          15.721         5.51972 
        1.43585         15.6475         5.46436 
        1.44198         15.5832         5.40998 
        1.44809         15.4725         5.35645 
        1.45423         15.3656         5.30344 
        1.46036         15.2883         5.25125 
        1.46649          15.194         5.19975 
        1.47263         15.1434          5.1489 
        1.47877         15.0481         5.09876 
        1.48491         14.9656         5.04921 
        1.49104         14.8677         5.00043 
        1.49718         14.8096         4.95225 
        1.50333         14.7314         4.90464 
        1.50947         14.6555         4.85775 
         1.5156         14.5817         4.81155 
        1.52172         14.4906         4.76596 
        1.52787         14.4274         4.72086 
          1.534         14.3611         4.67641 
        1.54013          14.285         4.63258 
        1.54627         14.1837         4.58923 
        1.55241         14.0866         4.54644 
        1.55855         14.0595         4.50425 
        1.56467         13.9918         4.46272 
         1.5708         13.9337          4.4216 
        1.57695         13.8316         4.38093 
        1.58308         13.7443         4.34087 
        1.58922         13.6975         4.30129 
        1.59535         13.6169         4.26222 
         1.6015         13.5042         4.22358 
        1.60764         13.4735         4.18544 
        1.61376         13.4318         4.14788 
        1.61989         13.3246         4.11075 
        1.62604         13.2986           4.074 
        1.63218          13.236         4.03772 
        1.63831         13.1377         4.00197 
        1.64444          13.059         3.96663 
        1.65059         12.9956         3.93165 
        1.65673         12.9663         3.89712 
        1.66285         12.8826         3.86311 
        1.66898         12.8529          3.8295 
        1.67512         12.7847         3.79622 
        1.68127         12.6736         3.76331 
         1.6874         12.6584         3.73086 
        1.69353         12.5644         3.69882 
        1.69967         12.5187         3.66708 
        1.70581         12.4669         3.63573 
        1.71193         12.4139         3.60486 
        1.71806         12.3648         3.57429 
        1.72421         12.2831         3.54401 
        1.73035         12.2333         3.51412 
        1.73649         12.1992         3.48458 
        1.74262         12.0742         3.45541 
        1.74876          12.084         3.42655 
        1.75489         12.0195         3.39809 
        1.76101         11.9364         3.36996 
        1.76715         11.9102          3.3421 
        1.77329         11.8549         3.31453 
        1.77943         11.7682         3.28727 
        1.78557         11.7665         3.26034 
        1.79171           11.69         3.23372 
        1.79785         11.6646         3.20739 
        1.80399         11.5658         3.18136 
        1.81012         11.5446         3.15566 
        1.81625         11.4589         3.13025 
        1.82239         11.4204         3.10508 
        1.82853         11.3608         3.08021 
        1.83466         11.2926         3.05563 
        1.84078         11.2796         3.03135 
        1.84692         11.2439         3.00729 
        1.85306         11.1921         2.98347 
         1.8592          11.143         2.95994 
        1.86533         11.0859         2.93668 
        1.87147         11.0323         2.91364 
        1.87761          10.994         2.89084 
        1.88375         10.9442         2.86832 
        1.88988         10.8788         2.84605 
        1.89601         10.8631         2.82402 
        1.90215          10.789          2.8022 
        1.90829         10.7498         2.78062 
        1.91442         10.6993         2.75927 
        1.92056         10.7005         2.73816 
         1.9267         10.6223         2.71726 
        1.93284         10.6101         2.69655 
        1.93897          10.533         2.67611 
        1.94509         10.4884         2.65592 
        1.95123         10.4685         2.63589 
        1.95737         10.4267         2.61605 
        1.96349         10.3422         2.59647 
        1.96964         10.3151         2.57703 
        1.97578         10.2885         2.55779 
        1.98192         10.2328         2.53878 
        1.98805         10.1982         2.51996 
        1.99419         10.1638         2.50133 
        2.00033         10.1217         2.48288 
        2.00647         10.0851         2.46463 
         2.0126         10.0497         2.44659 
        2.01874         9.97873          2.4287 
        2.02488         9.95713         2.41097 
        2.03101         9.91722         2.39346 
        2.03714         9.86834         2.37614 
        2.04328         9.82073         2.35897 
        2.04941         9.77878         2.34198 
        2.05554         9.76761         2.32518 
        2.06167         9.72745         2.30851 
        2.06781         9.67439         2.29201 
        2.07396         9.65544         2.27565 
        2.08009         9.58549         2.25948 
        2.08622         9.58796         2.24348 
        2.09237          9.5517          2.2276 
        2.09851         9.48387         2.21188 
        2.10464         9.47323         2.19634 
        2.11077         9.40763         2.18096 
        2.11691         9.40786          2.1657 
        2.12305         9.34777         2.15058 
        2.12918         9.30208         2.13565 
        2.13531         9.28422         2.12085 
        2.14145         9.24603         2.10616 
         2.1476         9.21626          2.0916 
        2.15372         9.17431         2.07724 
        2.15985         9.14645         2.06301 
        2.16599         9.11487         2.04887 
        2.17213         9.10388         2.03488 
        2.17827         9.04639         2.02102 
         2.1844         9.02413         2.00731 
        2.19054         8.99355         1.99371 
        2.19666         8.95579         1.98027 
         2.2028         8.91738         1.96693 
        2.20893         8.88693         1.95371 
        2.21508         8.85961          1.9406 
        2.22122         8.80107         1.92761 
        2.22736         8.78349         1.91476 
        2.23349         8.75401         1.90203 
        2.23962         8.73041         1.88941 
        2.24577         8.69888          1.8769 
         2.2519         8.68237         1.86451 
        2.25802          8.5975         1.85226 
        2.26417         8.60415         1.84009 
        2.27031         8.56241         1.82801 
        2.27644         8.53699         1.81608 
        2.28257         8.48629         1.80425 
        2.28872          8.4793         1.79251 
        2.29486         8.44636         1.78087 
        2.30099         8.42845         1.76937 
        2.30712         8.37735         1.75795 
        2.31326         8.34292         1.74662 
         2.3194         8.32125          1.7354 
        2.32553         8.28442          1.7243 
        2.33166         8.25803         1.71329 
         2.3378         8.23877         1.70237 
        2.34394         8.21219         1.69154 
        2.35007         8.17012         1.68082 
        2.35619         8.15396         1.67021 
        2.36233         8.10906         1.65966 
        2.36848         8.09048         1.64919 
        2.37462         8.06591         1.63882 
        2.38075         8.04604         1.62856 
        2.38689         8.02155         1.61837 
        2.39303         7.96864         1.60828 
        2.39916         7.95729         1.59828 
        2.40529         7.92623         1.58836 
        2.41143         7.89705         1.57853 
        2.41757         7.86997         1.56877 
         2.4237         7.84826         1.55911 
        2.42983         7.82739         1.54954 
        2.43598         7.80213         1.54002 
        2.44211         7.77997          1.5306 
        2.44823         7.73423         1.52128 
        2.45437           7.715           1.512 
        2.46052         7.69955          1.5028 
        2.46665         7.67375          1.4937 
        2.47279         7.64997         1.48467 
        2.47892         7.60526         1.47571 
        2.48507         7.58942         1.46681 
         2.4912         7.56451         1.45801 
