# k  (h/Mpc)    P(k)  (Mpc/h)^3    P_linear(k)  (Mpc/h)^3
     0.00783031         1384.82         1395.91 
       0.013688         1787.02         1809.06 
       0.019231         1893.21         1903.86 
      0.0249154         1827.85         1828.16 
      0.0312784         1647.42         1651.08 
      0.0375637         1457.15         1463.27 
      0.0433917         1316.81         1315.82 
      0.0492413         1199.48         1202.96 
      0.0555754         1114.04         1112.81 
      0.0619321         1028.56         1039.72 
       0.067871          969.26         973.252 
      0.0738098         898.805         901.092 
      0.0800417         819.277         819.076 
      0.0862327         735.391         736.956 
      0.0921407         663.679          665.08 
      0.0982031         604.861         603.303 
       0.104506         551.317         553.926 
       0.110769         516.059         517.992 
       0.116806         493.551         491.558 
       0.122832         466.884          468.44 
       0.129052         444.249         443.967 
       0.135211         419.615         417.103 
       0.141259         389.189         388.477 
       0.147318         358.117         359.444 
       0.153489         332.908         331.905 
       0.159709         311.265         308.134 
       0.165845         288.766         289.327 
       0.171974         278.576         274.694 
       0.178125          266.68         262.896 
       0.184229         253.828         252.487 
        0.19034         245.583          242.03 
       0.196428         234.467          230.84 
       0.202534         219.853         218.809 
       0.208729          210.22         206.309 
       0.214876         199.987         194.391 
       0.220989         186.429         183.694 
       0.227147         180.452         174.449 
        0.23329         173.182         166.743 
       0.239377         167.347         160.279 
       0.245482          160.44         154.488 
       0.251667         153.864         148.858 
       0.257832         150.244         143.155 
       0.263955         142.711         137.295 
       0.270079         136.959         131.335 
        0.27624         130.386         125.451 
       0.282372         125.487          119.94 
        0.28843         122.697          114.99 
       0.294538         117.567         110.548 
       0.300721         112.637         106.559 
        0.30691         110.309         102.936 
       0.313033         106.268         99.5664 
       0.319153         104.256         96.2785 
       0.325316         99.5596          92.982 
        0.33145         96.2549         89.7043 
       0.337538         93.2987         86.5027 
       0.343633         90.5015         83.4118 
       0.349808         87.4153         80.4592 
       0.355968         84.6547         77.7285 
       0.362074         82.9253         75.2308 
       0.368217         80.5257         72.9028 
       0.374374         78.9089         70.7053 
       0.380519         75.6739         68.6034 
       0.386598         73.5578           66.58 
       0.392688         71.4521         64.5906 
        0.39888         70.0092         62.6123 
       0.405048         68.2677         60.6981 
       0.411186         66.4459         58.8675 
       0.417313          64.616         57.1304 
       0.423458         62.7593         55.4819 
       0.429607          61.708         53.9224 
       0.435692         60.6046         52.4585 
       0.441815         58.3939         51.0481 
       0.447964         56.7154         49.6809 
       0.454126         55.7408         48.3524 
       0.460267         55.1601         47.0651 
       0.466387         53.5864         45.8178 
        0.47254         52.7643         44.6042 
       0.478662         51.1456         43.4419 
       0.484765         50.1023         42.3295 
       0.490885         48.7074         41.2597 
       0.497035         47.9245         40.2295 
       0.503198         46.8512         39.2383 
       0.509342          45.653         38.2853 
       0.515458         45.0864         37.3667 
       0.521598         44.0475         36.4721 
       0.527764          43.467         35.6009 
       0.533884         42.4337         34.7622 
           0.54         41.6132         33.9501 
       0.546137         40.3955         33.1615 
       0.552299         39.7496         32.3966 
       0.558452         38.9623           31.66 
       0.564573         38.5755         30.9521 
       0.570708         37.5787         30.2655 
       0.576825         37.0598         29.6021 
       0.582926          36.423         28.9601 
       0.589034         35.7385         28.3361 
       0.595184         35.2833         27.7261 
       0.601379         34.3454         27.1297 
       0.607522         33.8471         26.5555 
       0.613639         33.2627         26.0004 
       0.619772         32.7446         25.4603 
       0.625918         32.0877         24.9352 
       0.632068          31.821         24.4254 
       0.638161          31.181         23.9351 
         0.6443         30.6948         23.4551 
       0.650464         29.9458         22.9867 
       0.656582         29.7776         22.5343 
       0.662703         29.4367         22.0939 
       0.668861           28.66         21.6627 
       0.675024         28.3183         21.2428 
       0.681124         28.1542         20.8384 
       0.687237          27.594          20.444 
       0.693381          27.002         20.0583 
       0.699536         26.9007         19.6822 
       0.705665          26.407         19.3176 
       0.711789         25.9283         18.9627 
       0.717957         25.4261         18.6144 
        0.72409         25.2186         18.2768 
       0.730186         25.0819         17.9497 
       0.736317         24.5764         17.6289 
       0.742472         24.2748         17.3149 
       0.748622          23.901         17.0089 
        0.75476         23.3185         16.7111 
       0.760888         23.2303         16.4209 
       0.767043         22.8445         16.1367 
       0.773185         22.6067         15.8598 
       0.779291         22.4274         15.5912 
       0.785407         22.0263         15.3284 
       0.791564         21.8589         15.0702 
       0.797719         21.4126         14.8181 
       0.803834         21.3046         14.5735 
       0.809972         20.9141         14.3335 
       0.816124         20.6904         14.0986 
       0.822261         20.4697         13.8695 
       0.828378         20.2296         13.6464 
       0.834502         20.0388          13.428 
       0.840667         19.8334          13.213 
       0.846816         19.4156         13.0035 
       0.852925         19.3328         12.7998 
       0.859047         19.1026         12.6002 
       0.865192         18.8457         12.4042 
       0.871341         18.5973         12.2123 
       0.877463         18.4157         12.0254 
       0.883569          18.302         11.8429 
       0.889708         18.0064         11.6634 
       0.895864         17.7914         11.4871 
       0.902008         17.5821         11.3149 
       0.908149         17.3656         11.1464 
       0.914301         17.2781         10.9811 
       0.920448         17.0249         10.8194 
       0.926574         16.9251         10.6615 
       0.932687         16.6812         10.5071 
       0.938823         16.4784         10.3553 
       0.944975         16.3453         10.2062 
       0.951105         16.1537         10.0606 
       0.957225         16.0664         9.91806 
       0.963368         15.8413         9.77787 
       0.969511         15.6791         9.64041 
       0.975621          15.528         9.50637 
       0.981748         15.3221         9.37456 
       0.987916         15.2129         9.24445 
        0.99406         15.0882         9.11732 
        1.00019          14.956         8.99287 
        1.00632          14.824         8.87088 
        1.01246         14.6708         8.75099 
        1.01859         14.5037         8.63354 
        1.02471         14.3317         8.51842 
        1.03085         14.2895         8.40502 
        1.03698         14.1486         8.29394 
        1.04314         13.9897         8.18442 
        1.04929          13.806         8.07716 
        1.05541         13.7477         7.97227 
        1.06154         13.6276         7.86901 
        1.06769         13.5515         7.76744 
        1.07382         13.3255         7.66801 
        1.07993         13.2122         7.57058 
        1.08607         13.1582         7.47445 
        1.09222          12.991         7.37992 
        1.09836         12.9593         7.28715 
        1.10449         12.7433          7.1961 
        1.11063         12.7104         7.10653 
        1.11677         12.6204         7.01853 
         1.1229          12.504         6.93218 
        1.12903         12.4171         6.84724 
        1.13518         12.2315         6.76366 
        1.14131         12.1656         6.68154 
        1.14745         12.0093         6.60084 
        1.15359         11.9294         6.52147 
        1.15973         11.8259          6.4434 
        1.16584         11.7418         6.36696 
        1.17197         11.6421         6.29167 
        1.17811         11.5414         6.21738 
        1.18424         11.4641         6.14451 
        1.19038         11.3955         6.07261 
        1.19652         11.3063          6.0019 
        1.20267         11.2163         5.93233 
        1.20881         11.1037         5.86389 
        1.21495         11.0159         5.79664 
        1.22108         10.9651         5.73047 
         1.2272         10.8594          5.6655 
        1.23334         10.8298         5.60139 
        1.23949         10.7086         5.53814 
        1.24562         10.6276         5.47605 
        1.25174         10.5668         5.41501 
        1.25789         10.4285         5.35472 
        1.26402         10.4019         5.29547 
        1.27014         10.3417         5.23727 
        1.27628          10.213         5.17977 
        1.28244         10.1991         5.12304 
        1.28858         10.1245         5.06723 
        1.29471          9.9869          5.0124 
        1.30084         9.92023         4.95843 
        1.30697         9.90589         4.90518 
        1.31312         9.80213         4.85264 
        1.31925         9.74206         4.80105 
        1.32537         9.68423         4.75026 
        1.33151         9.60733         4.70004 
        1.33765         9.53101         4.65057 
        1.34378         9.51863         4.60193 
        1.34992         9.42124         4.55395 
        1.35606         9.35524         4.50656 
         1.3622         9.28545         4.45993 
        1.36833         9.22846         4.41409 
        1.37445         9.16204         4.36891 
        1.38059         9.11244         4.32424 
        1.38675         9.04155         4.28009 
        1.39288         8.97571         4.23674 
        1.39901         8.91135         4.19401 
        1.40515         8.86238         4.15178 
         1.4113         8.79283         4.11016 
        1.41742         8.75463         4.06927 
        1.42355         8.67856         4.02886 
         1.4297         8.64317         3.98889 
        1.43585         8.59196         3.94948 
        1.44198         8.53159         3.91076 
        1.44809         8.49113         3.87263 
        1.45423         8.42054         3.83487 
        1.46036          8.3786         3.79769 
        1.46649         8.32042           3.761 
        1.47263         8.28192         3.72476 
        1.47877          8.2248         3.68902 
        1.48491         8.18668          3.6537 
        1.49104         8.11686         3.61891 
        1.49718         8.09185         3.58456 
        1.50333         8.03357          3.5506 
        1.50947         7.96036         3.51715 
         1.5156         7.95009         3.48419 
        1.52172         7.90327         3.45165 
        1.52787          7.8538         3.41947 
          1.534         7.80673         3.38774 
        1.54013         7.76626         3.35645 
        1.54627         7.71568          3.3255 
        1.55241         7.65467         3.29494 
        1.55855         7.64298         3.26481 
        1.56467         7.58404         3.23514 
         1.5708         7.54589         3.20576 
        1.57695         7.48071          3.1767 
        1.58308          7.4376         3.14808 
        1.58922         7.41362         3.11979 
        1.59535           7.371         3.09186 
         1.6015         7.31493         3.06423 
        1.60764         7.29205         3.03696 
        1.61376         7.25876          3.0101 
        1.61989         7.18928         2.98355 
        1.62604         7.16566         2.95726 
        1.63218         7.13127          2.9313 
        1.63831         7.10344         2.90572 
        1.64444         7.04326         2.88044 
        1.65059         7.01502          2.8554 
        1.65673         6.98383         2.83069 
        1.66285         6.94794         2.80634 
        1.66898         6.90236         2.78227 
        1.67512         6.86019         2.75844 
        1.68127         6.82124         2.73487 
         1.6874         6.80331         2.71163 
        1.69353         6.74819         2.68867 
        1.69967         6.72616         2.66593 
        1.70581         6.67754         2.64346 
        1.71193          6.6583         2.62134 
        1.71806         6.62579         2.59942 
        1.72421         6.58208         2.57772 
        1.73035         6.54949         2.55629 
        1.73649         6.51796          2.5351 
        1.74262         6.48137         2.51418 
        1.74876         6.46529         2.49348 
        1.75489         6.42683         2.47306 
        1.76101          6.3821         2.45287 
        1.76715          6.3715         2.43289 
        1.77329         6.33896          2.4131 
        1.77943         6.28929         2.39353 
        1.78557         6.27554          2.3742 
        1.79171         6.25042         2.35509 
        1.79785         6.21188         2.33618 
        1.80399         6.16007         2.31749 
        1.81012          6.1473         2.29903 
        1.81625         6.11657         2.28078 
        1.82239         6.09012          2.2627 
        1.82853         6.05545         2.24483 
        1.83466         6.01418         2.22717 
        1.84078         5.99251         2.20971 
        1.84692          5.9699         2.19242 
        1.85306         5.94122          2.1753 
         1.8592         5.92471         2.15838 
        1.86533         5.89314         2.14166 
        1.87147         5.86091         2.12509 
        1.87761         5.84855          2.1087 
        1.88375         5.81047          2.0925 
        1.88988         5.78208         2.07648 
        1.89601         5.75459         2.06063 
        1.90215         5.71433         2.04493 
        1.90829         5.71361          2.0294 
        1.91442         5.66996         2.01404 
        1.92056         5.66218         1.99885 
         1.9267         5.62371          1.9838 
        1.93284         5.61824          1.9689 
        1.93897          5.5718         1.95418 
        1.94509         5.54666         1.93964 
        1.95123         5.52812         1.92521 
        1.95737         5.50746         1.91093 
        1.96349         5.46676         1.89682 
        1.96964         5.44873         1.88282 
        1.97578         5.43246         1.86895 
        1.98192         5.39969         1.85525 
        1.98805         5.38622         1.84169 
        1.99419         5.36554         1.82826 
        2.00033         5.32156         1.81497 
        2.00647         5.31956         1.80181 
         2.0126         5.29116          1.7888 
        2.01874         5.27752          1.7759 
        2.02488         5.24649         1.76312 
        2.03101         5.21363         1.75049 
        2.03714         5.20331         1.73799 
        2.04328         5.18071         1.72561 
        2.04941         5.15684         1.71335 
        2.05554         5.14281         1.70123 
        2.06167         5.11216          1.6892 
        2.06781         5.09642         1.67729 
        2.07396         5.06872         1.66548 
        2.08009          5.0583         1.65381 
        2.08622         5.03547         1.64226 
        2.09237         5.02746          1.6308 
        2.09851         4.98621         1.61944 
        2.10464         4.97387         1.60822 
        2.11077         4.96385         1.59711 
        2.11691         4.94038         1.58609 
        2.12305         4.91366         1.57517 
        2.12918         4.89929         1.56438 
        2.13531          4.8724         1.55369 
        2.14145         4.86265         1.54308 
         2.1476         4.83241         1.53255 
        2.15372         4.82019         1.52218 
        2.15985         4.80347         1.51189 
        2.16599         4.78561         1.50166 
        2.17213         4.76853         1.49155 
        2.17827         4.73835         1.48153 
         2.1844         4.71878         1.47161 
        2.19054         4.70709         1.46178 
        2.19666           4.691         1.45205 
         2.2028         4.65791         1.44241 
        2.20893         4.65633         1.43285 
        2.21508         4.64401         1.42336 
        2.22122         4.60647         1.41396 
        2.22736         4.60031         1.40466 
        2.23349         4.57816         1.39545 
        2.23962         4.56878         1.38632 
        2.24577         4.53779         1.37726 
         2.2519         4.52848          1.3683 
        2.25802          4.5069         1.35943 
        2.26417          4.4911         1.35061 
        2.27031         4.47276         1.34187 
        2.27644         4.45977         1.33322 
        2.28257         4.44299         1.32466 
        2.28872         4.42783         1.31615 
        2.29486         4.40538         1.30773 
        2.30099         4.38943         1.29939 
        2.30712         4.37789         1.29112 
        2.31326         4.36035         1.28291 
         2.3194         4.34391         1.27478 
        2.32553         4.32992         1.26673 
        2.33166         4.31929         1.25876 
         2.3378         4.30071         1.25084 
        2.34394         4.28175         1.24299 
        2.35007         4.25964         1.23522 
        2.35619         4.25387         1.22752 
        2.36233         4.23495         1.21988 
        2.36848         4.22583         1.21228 
        2.37462         4.20957         1.20476 
        2.38075          4.1981         1.19732 
        2.38689         4.18166         1.18993 
        2.39303         4.16532          1.1826 
        2.39916         4.14772         1.17535 
        2.40529         4.13304         1.16816 
        2.41143         4.12654         1.16102 
        2.41757         4.11486         1.15394 
         2.4237         4.09301         1.14693 
        2.42983         4.08787         1.13998 
        2.43598         4.07278         1.13307 
        2.44211         4.04915         1.12623 
        2.44823         4.03556         1.11946 
        2.45437         4.02106         1.11273 
        2.46052         4.01095         1.10605 
        2.46665         4.00027         1.09944 
        2.47279         3.97171         1.09288 
        2.47892         3.96939         1.08637 
        2.48507         3.95666         1.07991 
         2.4912         3.94688         1.07351 
