# k  (h/Mpc)    Pcb(k)  (Mpc/h)^3    Pcb_linear(k)  (Mpc/h)^3
     0.00783031         1315.75         1327.42 
       0.013688         1772.24         1772.52 
       0.019231         1925.07         1925.47 
      0.0249154         1895.17         1908.94 
      0.0312784          1772.8         1777.98 
      0.0375637         1610.23         1609.05 
      0.0433917         1453.39          1460.3 
      0.0492413         1335.34         1336.84 
      0.0555754         1225.07         1234.63 
      0.0619321         1159.41         1156.06 
       0.067871         1085.36          1092.6 
      0.0738098         1020.81         1028.98 
      0.0800417         944.703         956.425 
      0.0862327         871.112         878.547 
      0.0921407         798.774         803.078 
      0.0982031         724.329         730.339 
       0.104506         666.226         665.054 
       0.110769         614.155         613.251 
       0.116806         572.259         575.174 
       0.122832         546.257         546.075 
       0.129052         517.636         521.374 
       0.135211          494.08         498.257 
       0.141259         472.713         474.095 
       0.147318         448.164         447.399 
       0.153489         417.125         418.277 
       0.159709         389.403         388.796 
       0.165845         366.763         361.683 
       0.171974         340.515         338.169 
       0.178125         322.114          318.85 
       0.184229          308.32         303.657 
        0.19034         292.073         291.437 
       0.196428         284.463           280.9 
       0.202534         276.521         270.681 
       0.208729         264.031         259.733 
       0.214876         250.393         247.941 
       0.220989         241.833          235.52 
       0.227147         226.343         222.917 
        0.23329         215.351         210.981 
       0.239377         206.548         200.365 
       0.245482         195.271         191.215 
       0.251667         190.308         183.441 
       0.257832          183.64         176.885 
       0.263955         177.618         171.096 
       0.270079         172.228         165.561 
        0.27624         168.324         159.905 
       0.282372         162.022         154.019 
        0.28843         155.404         147.989 
       0.294538         149.396         141.866 
       0.300721         145.322          135.87 
        0.30691         138.677         130.292 
       0.313033         134.195         125.328 
       0.319153         128.099          120.94 
       0.325316         126.103         117.019 
        0.33145         121.946         113.473 
       0.337538         119.241         110.141 
       0.343633         115.561         106.859 
       0.349808         112.419         103.512 
       0.355968         109.273         100.128 
       0.362074         105.892         96.7798 
       0.368217          102.93         93.4842 
       0.374374         99.6604          90.337 
       0.380519         97.0989         87.4064 
       0.386598         94.5251         84.7356 
       0.392688         92.6099         82.2789 
        0.39888         90.0873         79.9577 
       0.405048         88.1816         77.7728 
       0.411186         86.3495         75.6713 
       0.417313         83.5595         73.6045 
       0.423458         81.7002         71.5521 
       0.429607         79.5158         69.5207 
       0.435692         77.1271         67.5492 
       0.441815         75.9762         65.6324 
       0.447964         74.7565         63.7957 
       0.454126         71.9084         62.0534 
       0.460267         70.6274         60.4197 
       0.466387         68.7617         58.8833 
        0.47254         67.8496         57.4107 
       0.478662         66.6678         56.0001 
       0.484765         64.9528         54.6347 
       0.490885         63.5184         53.2944 
       0.497035         62.7125         51.9717 
       0.503198         61.1759         50.6763 
       0.509342         59.6624         49.4217 
       0.515458         58.5483         48.2149 
       0.521598         57.6564         47.0494 
       0.527764         56.5143          45.929 
       0.533884         55.5397         44.8661 
           0.54         54.5452         43.8469 
       0.546137         53.6912         42.8596 
       0.552299         52.9039         41.8983 
       0.558452         51.3105         40.9651 
       0.564573         50.6518         40.0605 
       0.570708         49.9458         39.1754 
       0.576825         48.7223         38.3149 
       0.582926         47.9439         37.4805 
       0.589034         46.6943         36.6713 
       0.595184         46.1396         35.8845 
       0.601379         45.4434         35.1194 
       0.607522         44.6119         34.3856 
       0.613639         44.2792         33.6777 
       0.619772         43.1544         32.9888 
       0.625918         42.9772         32.3181 
       0.632068         42.2691         31.6653 
       0.638161         41.4618         31.0352 
         0.6443         40.6845          30.416 
       0.650464         40.0246         29.8102 
       0.656582          39.786         29.2247 
       0.662703         39.0628          28.655 
       0.668861          38.423         28.0985 
       0.675024         37.7984         27.5578 
       0.681124         37.1783         27.0382 
       0.687237         36.6111         26.5317 
       0.693381         36.3079          26.036 
       0.699536         35.4314         25.5519 
       0.705665         35.3182         25.0818 
       0.711789         34.6332         24.6234 
       0.717957         34.2139         24.1731 
        0.72409           33.71         23.7366 
       0.730186         33.2912         23.3137 
       0.736317         32.9795         22.8991 
       0.742472         32.4303         22.4935 
       0.748622         32.1059         22.0984 
        0.75476         31.5421         21.7138 
       0.760888         31.2039         21.3392 
       0.767043         30.8555         20.9719 
       0.773185         30.3067         20.6141 
       0.779291           30.15         20.2667 
       0.785407         29.7623         19.9267 
       0.791564         29.2504         19.5925 
       0.797719         28.7704         19.2661 
       0.803834         28.6816         18.9493 
       0.809972         28.4408         18.6386 
       0.816124         27.7799         18.3344 
       0.822261         27.6401         18.0379 
       0.828378         27.3122         17.7489 
       0.834502         27.0309         17.4661 
       0.840667         26.7184         17.1878 
       0.846816         26.2944         16.9164 
       0.852925         26.0754         16.6526 
       0.859047         25.7882         16.3939 
       0.865192         25.5832         16.1399 
       0.871341         25.3881         15.8911 
       0.877463         24.9642         15.6488 
       0.883569         24.6487         15.4122 
       0.889708         24.3299         15.1792 
       0.895864         24.2098         14.9506 
       0.902008         24.0068         14.7272 
       0.908149         23.7579         14.5085 
       0.914301         23.5703          14.294 
       0.920448         23.1282          14.084 
       0.926574         22.9731         13.8791 
       0.932687         22.7703         13.6787 
       0.938823         22.4823         13.4816 
       0.944975         22.2339         13.2879 
       0.951105         22.0927         13.0988 
       0.957225         21.8862         12.9138 
       0.963368         21.6701         12.7317 
       0.969511         21.5088         12.5531 
       0.975621         21.3169          12.379 
       0.981748         21.0751         12.2077 
       0.987916         20.9272         12.0387 
        0.99406         20.6628         11.8735 
        1.00019         20.3739         11.7117 
        1.00632         20.3877         11.5532 
        1.01246         20.1548         11.3974 
        1.01859         19.8819         11.2447 
        1.02471         19.7935          11.095 
        1.03085         19.6248         10.9476 
        1.03698         19.3404         10.8031 
        1.04314         19.2407         10.6607 
        1.04929         18.9979         10.5212 
        1.05541         18.8339         10.3848 
        1.06154         18.6887         10.2505 
        1.06769         18.6171         10.1184 
        1.07382         18.3654         9.98905 
        1.07993         18.2689         9.86228 
        1.08607         18.0938         9.73722 
        1.09222         17.9513         9.61421 
        1.09836         17.7592         9.49349 
        1.10449          17.656           9.375 
        1.11063         17.5129         9.25842 
        1.11677         17.4099         9.14388 
         1.1229         17.2956         9.03149 
        1.12903         17.1198         8.92091 
        1.13518         16.9272          8.8121 
        1.14131         16.8187         8.70519 
        1.14745         16.6877         8.60012 
        1.15359         16.5819         8.49677 
        1.15973         16.4672          8.3951 
        1.16584          16.243         8.29556 
        1.17197         16.1699         8.19751 
        1.17811         16.0797         8.10075 
        1.18424         15.9554         8.00584 
        1.19038         15.8757         7.91219 
        1.19652         15.7216         7.82009 
        1.20267         15.5528         7.72946 
        1.20881         15.5483          7.6403 
        1.21495         15.4171         7.55269 
        1.22108          15.246         7.46648 
         1.2272         15.1613         7.38183 
        1.23334         14.9993          7.2983 
        1.23949         14.9084         7.21588 
        1.24562         14.8627         7.13497 
        1.25174         14.7336         7.05543 
        1.25789         14.6478         6.97687 
        1.26402         14.5673         6.89965 
        1.27014         14.4525         6.82379 
        1.27628         14.3005         6.74886 
        1.28244         14.2009         6.67491 
        1.28858         14.1772         6.60218 
        1.29471         14.0361          6.5307 
        1.30084         13.9114         6.46035 
        1.30697         13.9074         6.39093 
        1.31312         13.6973         6.32244 
        1.31925         13.6416         6.25518 
        1.32537          13.569         6.18897 
        1.33151         13.4966         6.12349 
        1.33765         13.3757           6.059 
        1.34378         13.2796         5.99557 
        1.34992         13.1949         5.93302 
        1.35606         13.1304         5.87122 
         1.3622         13.0618         5.81043 
        1.36833         12.9721         5.75064 
        1.37445         12.9011         5.69173 
        1.38059         12.8501         5.63347 
        1.38675         12.7303         5.57589 
        1.39288         12.6559         5.51935 
        1.39901         12.5334         5.46363 
        1.40515         12.5032         5.40856 
         1.4113          12.442         5.35427 
        1.41742         12.3559         5.30093 
        1.42355         12.2602         5.24823 
         1.4297         12.1663         5.19609 
        1.43585         12.1375         5.14468 
        1.44198         12.0971         5.09417 
        1.44809         11.9811         5.04444 
        1.45423         11.9034         4.99519 
        1.46036         11.8498         4.94669 
        1.46649          11.766         4.89881 
        1.47263         11.6808         4.85154 
        1.47877         11.6272         4.80492 
        1.48491         11.5565         4.75883 
        1.49104         11.5051         4.71345 
        1.49718         11.4447         4.66863 
        1.50333         11.3727         4.62433 
        1.50947         11.3047         4.58069 
         1.5156         11.2465         4.53769 
        1.52172         11.1833         4.49524 
        1.52787         11.1142         4.45325 
          1.534         11.0513         4.41185 
        1.54013         11.0105         4.37102 
        1.54627         10.9171         4.33064 
        1.55241         10.8769         4.29076 
        1.55855         10.8281         4.25145 
        1.56467         10.7472         4.21274 
         1.5708         10.7181          4.1744 
        1.57695          10.622         4.13649 
        1.58308          10.576         4.09913 
        1.58922         10.5404         4.06222 
        1.59535         10.4921         4.02577 
         1.6015         10.4168         3.98973 
        1.60764         10.3576         3.95414 
        1.61376           10.32         3.91909 
        1.61989         10.2649         3.88444 
        1.62604          10.199         3.85013 
        1.63218         10.1717         3.81626 
        1.63831         10.1265         3.78287 
        1.64444          10.076         3.74988 
        1.65059         9.97388          3.7172 
        1.65673         9.94895         3.68495 
        1.66285         9.86722         3.65317 
        1.66898         9.84581         3.62176 
        1.67512          9.8008         3.59066 
        1.68127          9.7502          3.5599 
         1.6874         9.70668         3.52957 
        1.69353         9.65219         3.49961 
        1.69967         9.59751         3.46993 
        1.70581         9.54177         3.44061 
        1.71193         9.51435         3.41174 
        1.71806         9.48468         3.38314 
        1.72421          9.4072         3.35481 
        1.73035         9.38469         3.32684 
        1.73649         9.34317          3.2992 
        1.74262         9.26769         3.27189 
        1.74876         9.25408         3.24488 
        1.75489         9.22545         3.21823 
        1.76101         9.14865         3.19188 
        1.76715         9.11521          3.1658 
        1.77329         9.07773         3.13998 
        1.77943          9.0097         3.11443 
        1.78557         9.00311         3.08921 
        1.79171         8.93474         3.06427 
        1.79785         8.90222         3.03959 
        1.80399         8.84847          3.0152 
        1.81012         8.82475          2.9911 
        1.81625         8.76471         2.96728 
        1.82239         8.74069         2.94369 
        1.82853          8.7018         2.92036 
        1.83466         8.66817         2.89732 
        1.84078         8.61849         2.87454 
        1.84692         8.60332         2.85198 
        1.85306          8.5395         2.82962 
         1.8592         8.49578         2.80755 
        1.86533         8.47312         2.78572 
        1.87147          8.4343         2.76411 
        1.87761         8.39179         2.74271 
        1.88375         8.35892         2.72156 
        1.88988           8.315         2.70067 
        1.89601         8.29629         2.67998 
        1.90215         8.26247         2.65949 
        1.90829         8.21819         2.63923 
        1.91442           8.186         2.61917 
        1.92056         8.13764         2.59935 
         1.9267         8.11051         2.57971 
        1.93284         8.07454         2.56026 
        1.93897         8.04053         2.54105 
        1.94509         7.98868         2.52208 
        1.95123         7.96021         2.50326 
        1.95737         7.92181         2.48461 
        1.96349         7.89561         2.46621 
        1.96964         7.87419         2.44793 
        1.97578         7.82897         2.42984 
        1.98192         7.80254         2.41196 
        1.98805         7.77558         2.39426 
        1.99419         7.74727         2.37675 
        2.00033         7.72046         2.35939 
        2.00647          7.6819         2.34222 
         2.0126         7.65732         2.32525 
        2.01874         7.60423         2.30842 
        2.02488         7.58844         2.29174 
        2.03101         7.54351         2.27526 
        2.03714         7.51556         2.25895 
        2.04328         7.48165         2.24279 
        2.04941         7.44509          2.2268 
        2.05554          7.4196         2.21098 
        2.06167         7.39908         2.19529 
        2.06781         7.37018         2.17975 
        2.07396         7.35195         2.16434 
        2.08009          7.3139         2.14911 
        2.08622         7.27008         2.13404 
        2.09237         7.27519         2.11909 
        2.09851         7.22529         2.10427 
        2.10464         7.19493         2.08963 
        2.11077         7.15961         2.07514 
        2.11691         7.14674         2.06076 
        2.12305         7.11897         2.04651 
        2.12918         7.10193         2.03243 
        2.13531         7.05917         2.01849 
        2.14145         7.03766         2.00464 
         2.1476         7.00111         1.99091 
        2.15372         6.98251         1.97737 
        2.15985         6.96086         1.96395 
        2.16599         6.92475         1.95061 
        2.17213         6.90574         1.93742 
        2.17827         6.88186         1.92435 
         2.1844         6.85082         1.91141 
        2.19054         6.83479         1.89859 
        2.19666         6.79782          1.8859 
         2.2028         6.77122         1.87332 
        2.20893         6.75789         1.86084 
        2.21508         6.71846         1.84847 
        2.22122         6.69673         1.83621 
        2.22736         6.67226         1.82408 
        2.23349         6.66755         1.81206 
        2.23962         6.62423         1.80015 
        2.24577         6.59625         1.78834 
         2.2519         6.59365         1.77664 
        2.25802         6.54966         1.76508 
        2.26417         6.52585         1.75358 
        2.27031         6.50356         1.74217 
        2.27644         6.48446          1.7309 
        2.28257          6.4591         1.71973 
        2.28872         6.44187         1.70864 
        2.29486         6.41322         1.69765 
        2.30099         6.39232         1.68677 
        2.30712         6.36872         1.67599 
        2.31326         6.33683         1.66528 
         2.3194         6.32759         1.65468 
        2.32553         6.29059         1.64418 
        2.33166         6.28031         1.63378 
         2.3378          6.2601         1.62346 
        2.34394         6.23803         1.61322 
        2.35007         6.20861         1.60309 
        2.35619          6.1984         1.59305 
        2.36233         6.18093         1.58308 
        2.36848         6.14434         1.57317 
        2.37462         6.12934         1.56337 
        2.38075         6.11705         1.55366 
        2.38689         6.07776         1.54403 
        2.39303         6.06928         1.53448 
        2.39916         6.04721         1.52502 
        2.40529         6.02454         1.51564 
        2.41143         6.01171         1.50634 
        2.41757         5.98928         1.49711 
         2.4237         5.97112         1.48797 
        2.42983         5.92383         1.47891 
        2.43598         5.93322          1.4699 
        2.44211          5.9009         1.46098 
        2.44823         5.88485         1.45216 
        2.45437         5.85574         1.44338 
        2.46052         5.84203         1.43467 
        2.46665          5.8276         1.42605 
        2.47279          5.8089          1.4175 
        2.47892           5.789         1.40902 
        2.48507         5.77418         1.40059 
         2.4912         5.74059         1.39226 
