#  k  (h/Mpc)          P(k)  (Mpc/h)^3     P_linear(k) (Mpc/h)^3
     0.00783031         13673.3         13868.3 
       0.013688         16923.7           16783 
       0.019231           16686         16648.6 
      0.0249154         14784.1         15067.2 
      0.0312784         12663.5         12777.3 
      0.0375637         10758.9         10740.5 
      0.0433917         9188.25         9321.95 
      0.0492413         8302.57         8345.69 
      0.0555754         7433.99         7639.99 
      0.0619321          7112.6         7094.26 
       0.067871         6423.86          6581.1 
      0.0738098         5860.43         5997.61 
      0.0800417         5162.09         5323.84 
      0.0862327         4592.41         4661.72 
      0.0921407          4131.6         4107.62 
      0.0982031         3669.49         3661.97 
       0.104506         3444.85         3336.48 
       0.110769         3209.36         3123.08 
       0.116806         3037.08         2975.79 
       0.122832         2902.34         2840.79 
       0.129052         2685.94         2680.64 
       0.135211         2516.49         2490.03 
       0.141259         2370.66         2282.26 
       0.147318         2200.72         2075.54 
       0.153489         2001.74         1888.82 
       0.159709         1885.51         1738.92 
       0.165845         1811.73         1630.47 
       0.171974         1718.37         1553.12 
       0.178125          1642.8         1492.88 
       0.184229         1577.01         1436.32 
        0.19034         1481.02         1372.95 
       0.196428         1444.17         1299.66 
       0.202534         1383.28         1218.81 
       0.208729         1307.74         1136.11 
       0.214876         1242.28         1060.65 
       0.220989         1197.05         996.985 
       0.227147         1143.21         945.721 
        0.23329            1099          905.54 
       0.239377         1079.16         872.595 
       0.245482         1009.85         841.999 
       0.251667         1002.34         810.007 
       0.257832         961.836         775.453 
       0.263955         928.261         738.854 
       0.270079         892.735         701.787 
        0.27624         880.862         666.247 
       0.282372         843.828         634.415 
        0.28843         830.225         607.217 
       0.294538         787.952         583.802 
       0.300721         784.219         563.186 
        0.30691         750.249         544.211 
       0.313033         735.409         525.877 
       0.319153         717.297         507.214 
       0.325316         694.887         487.983 
        0.33145         676.163         468.741 
       0.337538         665.203         450.196 
       0.343633         646.308         432.758 
       0.349808         623.408         416.619 
       0.355968         619.015         402.117 
       0.362074         610.123         389.068 
       0.368217          592.17         376.906 
       0.374374         566.994         365.243 
       0.380519         565.779         353.833 
       0.386598         550.381         342.637 
       0.392688         547.722         331.524 
        0.39888         531.541         320.503 
       0.405048         521.555         309.973 
       0.411186          513.42         300.072 
       0.417313         503.158         290.848 
       0.423458         493.483         282.206 
       0.429607         485.782         274.064 
       0.435692         474.004         266.396 
       0.441815         469.912         258.943 
       0.447964         459.963         251.638 
       0.454126         450.565         244.489 
       0.460267         442.058         237.554 
       0.466387         437.054          230.86 
        0.47254          429.34         224.396 
       0.478662         427.823         218.267 
       0.484765         413.264         212.456 
       0.490885         409.657         206.893 
       0.497035          401.99         201.539 
       0.503198         396.777         196.378 
       0.509342         393.742         191.401 
       0.515458         389.647         186.583 
       0.521598         380.058         181.879 
       0.527764         373.808         177.301 
       0.533884         371.422         172.911 
           0.54         366.262         168.682 
       0.546137         364.531         164.593 
       0.552299         357.182         160.639 
       0.558452         355.355          156.84 
       0.564573         350.188         153.194 
       0.570708         344.103         149.658 
       0.576825         337.011         146.239 
       0.582926         335.412         142.924 
       0.589034         332.313         139.701 
       0.595184          329.23         136.553 
       0.601379         324.562         133.483 
       0.607522         319.806         130.537 
       0.613639         318.268         127.697 
       0.619772         311.069         124.937 
       0.625918          310.08         122.257 
       0.632068         305.043         119.655 
       0.638161         303.822         117.153 
         0.6443         298.694         114.706 
       0.650464         295.983          112.32 
       0.656582         293.825         110.018 
       0.662703         292.726          107.78 
       0.668861         287.492          105.59 
       0.675024         284.353          103.46 
       0.681124         282.554         101.411 
       0.687237          279.54         99.4144 
       0.693381         275.385         97.4635 
       0.699536         272.807         95.5628 
       0.705665         270.573         93.7221 
       0.711789         268.674         91.9324 
       0.717957         266.821         90.1777 
        0.72409         264.163         88.4787 
       0.730186         261.068         86.8339 
       0.736317         258.343          85.222 
       0.742472         256.909         83.6452 
       0.748622         254.527         82.1099 
        0.75476         252.056         80.6167 
       0.760888         249.158         79.1632 
       0.767043         249.279         77.7401 
       0.773185         246.211         76.3553 
       0.779291         241.949         75.0125 
       0.785407         241.448         73.7004 
       0.791564         238.687         72.4118 
       0.797719         236.189         71.1549 
       0.803834         234.582         69.9361 
       0.809972         233.547         68.7417 
       0.816124         232.968         67.5728 
       0.822261             230         66.4345 
       0.828378         227.908         65.3261 
       0.834502         226.985         64.2422 
       0.840667         224.182         63.1761 
       0.846816         222.588         62.1374 
       0.852925         221.596         61.1288 
       0.859047         219.647         60.1407 
       0.865192         217.111         59.1713 
       0.871341          215.45         58.2228 
       0.877463         214.144         57.2995 
       0.883569         213.416         56.3988 
       0.889708          210.98          55.513 
       0.895864         208.751          54.644 
       0.902008         207.783         53.7957 
       0.908149         206.934          52.966 
       0.914301         204.147         52.1526 
       0.920448          202.96         51.3572 
       0.926574         201.447         50.5812 
       0.932687         201.466         49.8231 
       0.938823         198.927         49.0779 
       0.944975         197.651         48.3463 
       0.951105         196.612         47.6324 
       0.957225         194.927         46.9342 
       0.963368         192.407         46.2477 
       0.969511         191.752         45.5751 
       0.975621         189.999         44.9195 
       0.981748         190.038         44.2752 
       0.987916          188.08         43.6395 
        0.99406         186.161         43.0188 
        1.00019         186.127         42.4115 
        1.00632         184.405         41.8165 
        1.01246         183.094         41.2321 
        1.01859          182.79         40.6599 
        1.02471         180.382         40.0993 
        1.03085         178.746         39.5475 
        1.03698         177.977         39.0072 
        1.04314         176.371         38.4748 
        1.04929          175.44         37.9536 
        1.05541         175.287         37.4443 
        1.06154         173.343         36.9431 
        1.06769         173.141         36.4503 
        1.07382         171.557         35.9682 
        1.07993         170.119          35.496 
        1.08607         169.529         35.0303 
        1.09222         168.635         34.5726 
        1.09836         167.214         34.1236 
        1.10449          165.46         33.6832 
        1.11063         164.148         33.2502 
        1.11677          163.89         32.8249 
         1.1229         162.563         32.4079 
        1.12903         161.817         31.9978 
        1.13518         160.964         31.5945 
        1.14131         159.391         31.1984 
        1.14745         159.214         30.8093 
        1.15359         157.954         30.4269 
        1.15973         157.018         30.0508 
        1.16584         155.554         29.6829 
        1.17197         155.089         29.3205 
        1.17811         154.004         28.9632 
        1.18424         153.235         28.6129 
        1.19038          152.81         28.2674 
        1.19652         151.484         27.9277 
        1.20267         150.859         27.5937 
        1.20881         149.505         27.2652 
        1.21495         148.839         26.9426 
        1.22108         147.925         26.6253 
         1.2272         146.694         26.3138 
        1.23334         146.249         26.0067 
        1.23949         145.185         25.7037 
        1.24562         144.395         25.4064 
        1.25174         143.228         25.1143 
        1.25789         142.428          24.826 
        1.26402         141.323         24.5426 
        1.27014         140.426         24.2645 
        1.27628         140.022         23.9898 
        1.28244         139.636         23.7188 
        1.28858         138.581         23.4525 
        1.29471         137.191         23.1908 
        1.30084         136.962         22.9333 
        1.30697         135.724         22.6794 
        1.31312         135.175          22.429 
        1.31925         134.262         22.1832 
        1.32537         133.683         21.9413 
        1.33151          132.44         21.7022 
        1.33765         131.913         21.4668 
        1.34378         131.269         21.2354 
        1.34992         130.843         21.0072 
        1.35606         130.332          20.782 
         1.3622         129.024         20.5604 
        1.36833         128.129         20.3426 
        1.37445         127.547         20.1281 
        1.38059         126.837          19.916 
        1.38675         126.166         19.7065 
        1.39288         125.713         19.5009 
        1.39901         125.259         19.2983 
        1.40515         124.024         19.0981 
         1.4113         123.309         18.9009 
        1.41742         122.652         18.7072 
        1.42355         121.934         18.5158 
         1.4297         121.385         18.3266 
        1.43585         120.373         18.1401 
        1.44198         120.005         17.9569 
        1.44809         119.349         17.7766 
        1.45423         118.706         17.5982 
        1.46036         118.045         17.4225 
        1.46649         117.148         17.2491 
        1.47263         116.543          17.078 
        1.47877         116.153         16.9093 
        1.48491         114.927         16.7426 
        1.49104         114.903         16.5785 
        1.49718         113.885         16.4165 
        1.50333         113.434         16.2564 
        1.50947         112.929         16.0988 
         1.5156         112.135         15.9435 
        1.52172         111.464         15.7902 
        1.52787         110.881         15.6387 
          1.534         110.294         15.4893 
        1.54013         109.689         15.3421 
        1.54627         109.223         15.1965 
        1.55241         108.329         15.0527 
        1.55855         107.761         14.9111 
        1.56467         107.521         14.7716 
         1.5708         106.599         14.6336 
        1.57695         106.383         14.4971 
        1.58308          105.62         14.3627 
        1.58922         105.317         14.2299 
        1.59535         104.552         14.0988 
         1.6015         104.062         13.9692 
        1.60764         103.473         13.8413 
        1.61376          103.16         13.7154 
        1.61989          102.34         13.5909 
        1.62604         101.937         13.4677 
        1.63218         101.515         13.3461 
        1.63831          100.59         13.2263 
        1.64444         100.306         13.1079 
        1.65059         99.7934         12.9907 
        1.65673          98.881         12.8751 
        1.66285         98.6767         12.7612 
        1.66898         98.2372         12.6486 
        1.67512         97.6141         12.5372 
        1.68127         97.0997          12.427 
         1.6874         96.3439         12.3184 
        1.69353         95.9528         12.2112 
        1.69967         95.6349          12.105 
        1.70581         95.0468         12.0001 
        1.71193         94.6507         11.8968 
        1.71806         94.1186         11.7946 
        1.72421         93.3946         11.6933 
        1.73035          93.168         11.5934 
        1.73649         92.5929         11.4946 
        1.74262         91.9611         11.3971 
        1.74876         91.7057         11.3006 
        1.75489         90.9722         11.2055 
        1.76101         90.5506         11.1115 
        1.76715         89.9638         11.0184 
        1.77329         89.7516         10.9263 
        1.77943         88.9607         10.8352 
        1.78557         88.8396         10.7453 
        1.79171         88.0314         10.6564 
        1.79785         87.6636         10.5685 
        1.80399          87.218         10.4816 
        1.81012         86.8892         10.3957 
        1.81625         86.3847         10.3109 
        1.82239         86.0401         10.2269 
        1.82853         85.6121         10.1439 
        1.83466          85.006         10.0619 
        1.84078         84.7487          9.9809 
        1.84692         84.1983         9.90065 
        1.85306         83.7168         9.82119 
         1.8592         83.4202         9.74272 
        1.86533         82.8571         9.66516 
        1.87147         82.3767         9.58835 
        1.87761         82.0624         9.51235 
        1.88375         81.5185         9.43726 
        1.88988         81.1612         9.36306 
        1.89601         80.7109         9.28962 
        1.90215         80.3059         9.21691 
        1.90829         79.8512         9.14502 
        1.91442         79.5423         9.07389 
        1.92056         78.9505         9.00359 
         1.9267         78.7102         8.93395 
        1.93284         78.2273         8.86502 
        1.93897         77.8826         8.79694 
        1.94509          77.564         8.72973 
        1.95123         77.1225         8.66305 
        1.95737         76.6406         8.59702 
        1.96349         76.1846         8.53185 
        1.96964         75.8424         8.46716 
        1.97578         75.4545         8.40313 
        1.98192         75.2953         8.33988 
        1.98805         74.5927         8.27728 
        1.99419         74.3173         8.21532 
        2.00033         74.1058         8.15396 
        2.00647         73.5962         8.09325 
         2.0126         73.1994         8.03326 
        2.01874         72.6705         7.97378 
        2.02488         72.3912         7.91486 
        2.03101         72.0216         7.85664 
        2.03714         71.5369         7.79907 
        2.04328         71.3247           7.742 
        2.04941          70.991         7.68556 
        2.05554         70.7047         7.62972 
        2.06167         70.2638         7.57435 
        2.06781         69.7788         7.51953 
        2.07396         69.4585         7.46518 
        2.08009         69.2125         7.41146 
        2.08622          68.852         7.35833 
        2.09237         68.4807         7.30562 
        2.09851         68.2701         7.25341 
        2.10464         67.7826          7.2018 
        2.11077         67.4668         7.15076 
        2.11691         67.1797          7.1001 
        2.12305         66.7392         7.04993 
        2.12918         66.4372         7.00036 
        2.13531         66.0875         6.95127 
        2.14145         65.6988         6.90254 
         2.1476         65.3584         6.85422 
        2.15372         65.1479          6.8066 
        2.15985         64.7274         6.75939 
        2.16599         64.4334         6.71249 
        2.17213         64.1448         6.66608 
        2.17827         63.7781         6.62013 
         2.1844         63.4085         6.57465 
        2.19054         63.2501         6.52958 
        2.19666         62.8256           6.485 
         2.2028         62.7498          6.4408 
        2.20893         62.2578         6.39699 
        2.21508          61.972         6.35354 
        2.22122         61.6731         6.31047 
        2.22736         61.3678          6.2679 
        2.23349         60.9833         6.22573 
        2.23962         60.6366         6.18393 
        2.24577         60.3673         6.14247 
         2.2519         60.1344         6.10145 
        2.25802         59.8669         6.06088 
        2.26417         59.4386         6.02056 
        2.27031         59.1908         5.98057 
        2.27644         58.9716         5.94106 
        2.28257         58.6383         5.90191 
        2.28872         58.3145         5.86304 
        2.29486         57.9083         5.82452 
        2.30099         57.6598         5.78644 
        2.30712         57.5327         5.74867 
        2.31326         57.2105         5.71118 
         2.3194         56.8688         5.67405 
        2.32553         56.5969         5.63731 
        2.33166         56.2438         5.60091 
         2.3378         55.9513         5.56478 
        2.34394         55.7128         5.52896 
        2.35007         55.4439          5.4935 
        2.35619          55.201          5.4584 
        2.36233         54.9696         5.42353 
        2.36848         54.6739         5.38888 
        2.37462         54.2998         5.35462 
        2.38075         54.2037         5.32068 
        2.38689         53.8656         5.28701 
        2.39303         53.5617         5.25364 
        2.39916         53.3549         5.22059 
        2.40529         53.1194         5.18783 
        2.41143         52.8603         5.15533 
        2.41757         52.5343         5.12309 
         2.4237         52.3951         5.09118 
        2.42983         51.9775         5.05955 
        2.43598         51.7436         5.02811 
        2.44211         51.5659         4.99699 
        2.44823         51.3076          4.9662 
        2.45437         50.9904         4.93558 
        2.46052         50.7669          4.9052 
        2.46665          50.597         4.87512 
        2.47279         50.2328         4.84531 
        2.47892         50.0675         4.81573 
        2.48507         49.8017         4.78637 
         2.4912         49.6017         4.75731 
