# k  (h/Mpc)    Pcb(k)  (Mpc/h)^3    Pcb_linear(k)  (Mpc/h)^3
     0.00783031         113.777          114.72 
       0.013688         146.619         147.219 
       0.019231         153.711         153.897 
      0.0249154         145.951         146.453 
      0.0312784         129.997         130.086 
      0.0375637         112.597         112.447 
      0.0433917         98.3243         98.2759 
      0.0492413         87.4935         87.3621 
      0.0555754         79.0664         79.0766 
      0.0619321         73.5254         73.3628 
       0.067871         69.0926         69.1505 
      0.0738098         64.9298         65.0246 
      0.0800417         60.0108         60.1629 
      0.0862327         54.6365         54.7032 
      0.0921407         49.2208          49.236 
      0.0982031         43.8437         43.8805 
       0.104506         39.1636           39.08 
       0.110769         35.4338         35.3601 
       0.116806         32.7609         32.7722 
       0.122832         31.0118         30.9762 
       0.129052         29.5992         29.6321 
       0.135211          28.412         28.4699 
       0.141259         27.2033         27.2252 
       0.147318         25.7562         25.7378 
       0.153489         23.9714          23.981 
       0.159709         22.0906         22.0898 
       0.165845          20.354         20.2808 
       0.171974         18.6944         18.6857 
       0.178125         17.4149         17.3882 
       0.184229         16.4611         16.4145 
        0.19034         15.6913         15.7013 
       0.196428          15.174         15.1582 
       0.202534         14.7329         14.6762 
       0.208729         14.1783         14.1594 
       0.214876         13.5553         13.5654 
       0.220989         12.9336         12.8875 
       0.227147         12.1459         12.1497 
        0.23329         11.4148         11.4131 
       0.239377         10.7508         10.7371 
       0.245482          10.154          10.151 
       0.251667         9.70224          9.6658 
       0.257832         9.30293         9.28207 
       0.263955         8.99973         8.97346 
       0.270079         8.72871         8.70212 
        0.27624         8.48114         8.43443 
       0.282372         8.19291         8.14982 
        0.28843         7.86496         7.84234 
       0.294538         7.53804         7.51112 
       0.300721         7.21686         7.16875 
        0.30691         6.86594         6.83792 
       0.313033         6.57177         6.53774 
       0.319153          6.2789         6.27433 
       0.325316         6.09527         6.04661 
        0.33145         5.89413         5.85224 
       0.337538         5.71748         5.68042 
       0.343633         5.54645         5.51867 
       0.349808         5.39127         5.35542 
       0.355968          5.2248         5.18749 
       0.362074         5.04783         5.01503 
       0.368217          4.8735         4.83831 
       0.374374         4.68613         4.66357 
       0.380519         4.53309         4.49682 
       0.386598         4.38576         4.34406 
       0.392688         4.25302         4.20501 
        0.39888         4.11962         4.07733 
       0.405048         4.00536          3.9618 
       0.411186             3.9         3.85432 
       0.417313         3.78822         3.75101 
       0.423458          3.6928          3.6488 
       0.429607         3.58169          3.5461 
       0.435692         3.48025         3.44437 
       0.441815         3.38057         3.34302 
       0.447964         3.29193         3.24375 
       0.454126         3.18557         3.14856 
       0.460267         3.09571         3.05936 
       0.466387         3.00908         2.97616 
        0.47254         2.93407         2.89794 
       0.478662         2.86365         2.82476 
       0.484765         2.78914         2.75513 
       0.490885         2.72293         2.68737 
       0.497035         2.66714         2.62064 
       0.503198         2.59513         2.55489 
       0.509342           2.534         2.49032 
       0.515458         2.46603         2.42729 
       0.521598         2.40583         2.36591 
       0.527764         2.34141          2.3067 
       0.533884         2.29342         2.25052 
           0.54         2.23744         2.19691 
       0.546137         2.18858         2.14559 
       0.552299         2.13783         2.09629 
       0.558452         2.08521         2.04886 
       0.564573         2.04292           2.003 
       0.570708           1.998         1.95808 
       0.576825         1.95103          1.9143 
       0.582926         1.91323          1.8717 
       0.589034         1.86204         1.83014 
       0.595184         1.82369         1.78946 
       0.601379         1.78442         1.74977 
       0.607522         1.75023         1.71178 
       0.613639         1.71842         1.67533 
       0.619772         1.67566         1.64013 
       0.625918          1.6439         1.60601 
       0.632068         1.61358         1.57289 
       0.638161         1.57828         1.54094 
         0.6443         1.54632         1.50953 
       0.650464         1.51225         1.47881 
       0.656582         1.48565         1.44911 
       0.662703         1.45718         1.42018 
       0.668861         1.43238         1.39186 
       0.675024         1.40109          1.3643 
       0.681124         1.37114         1.33778 
       0.687237         1.34954         1.31196 
       0.693381         1.32473         1.28676 
       0.699536         1.29347         1.26224 
       0.705665         1.27145         1.23851 
       0.711789         1.25073         1.21543 
       0.717957         1.22559         1.19278 
        0.72409         1.20447          1.1708 
       0.730186         1.18208         1.14949 
       0.736317         1.16542         1.12855 
       0.742472          1.1435         1.10805 
       0.748622         1.12183         1.08808 
        0.75476         1.10002         1.06865 
       0.760888         1.08054         1.04975 
       0.767043         1.06779         1.03125 
       0.773185         1.04592         1.01327 
       0.779291         1.02844        0.995831 
       0.785407         1.01181        0.978789 
       0.791564        0.995373        0.962044 
       0.797719        0.980131        0.945696 
       0.803834        0.964271        0.929828 
       0.809972        0.947655         0.91426 
       0.816124        0.931381        0.899012 
       0.822261        0.914944        0.884152 
       0.828378        0.902469        0.869673 
       0.834502        0.889535        0.855509 
       0.840667         0.87229        0.841574 
       0.846816        0.858952        0.827995 
       0.852925        0.848502        0.814807 
       0.859047         0.83514        0.801886 
       0.865192        0.820743        0.789207 
       0.871341        0.807931        0.776797 
       0.877463        0.798541        0.764715 
       0.883569        0.784353        0.752923 
       0.889708        0.772688        0.741321 
       0.895864        0.761121        0.729935 
       0.902008        0.748865        0.718813 
       0.908149        0.737894         0.70793 
       0.914301        0.724511        0.697257 
       0.920448        0.715357        0.686815 
       0.926574         0.70461        0.676625 
       0.932687        0.694242        0.666665 
       0.938823         0.68713        0.656871 
       0.944975        0.676506        0.647253 
       0.951105        0.667403        0.637864 
       0.957225        0.659521        0.628679 
       0.963368        0.649405        0.619645 
       0.969511        0.639073        0.610791 
       0.975621        0.629773        0.602158 
       0.981748        0.623509        0.593672 
       0.987916        0.614145        0.585298 
        0.99406        0.605279        0.577118 
        1.00019        0.598674        0.569112 
        1.00632        0.588494        0.561266 
        1.01246         0.58064        0.553558 
        1.01859        0.574089        0.546009 
        1.02471         0.56602         0.53861 
        1.03085        0.560384        0.531325 
        1.03698        0.551581        0.524191 
        1.04314        0.544929        0.517159 
        1.04929        0.537047        0.510273 
        1.05541        0.531254        0.503541 
        1.06154        0.523653        0.496916 
        1.06769        0.516454          0.4904 
        1.07382        0.510557        0.484023 
        1.07993        0.503323        0.477775 
        1.08607        0.499054        0.471613 
        1.09222        0.491494        0.465553 
        1.09836        0.487253        0.459608 
        1.10449        0.480836        0.453775 
        1.11063         0.47371        0.448037 
        1.11677        0.467249        0.442401 
         1.1229        0.462642        0.436872 
        1.12903        0.456345        0.431434 
        1.13518        0.451844        0.426084 
        1.14131        0.445725        0.420829 
        1.14745        0.438788        0.415666 
        1.15359        0.435197        0.410589 
        1.15973        0.428802        0.405595 
        1.16584        0.425649        0.400707 
        1.17197        0.420196        0.395893 
        1.17811         0.41592        0.391145 
        1.18424        0.411924        0.386488 
        1.19038        0.406042        0.381894 
        1.19652        0.400329        0.377377 
        1.20267        0.397436        0.372934 
        1.20881        0.392338        0.368564 
        1.21495        0.388846        0.364271 
        1.22108        0.384133        0.360048 
         1.2272        0.380331        0.355902 
        1.23334        0.375492        0.351812 
        1.23949        0.371412        0.347777 
        1.24562        0.367423        0.343817 
        1.25174        0.363726        0.339926 
        1.25789        0.360176        0.336083 
        1.26402        0.355028        0.332306 
        1.27014        0.351731        0.328598 
        1.27628          0.3486        0.324935 
        1.28244        0.343477        0.321321 
        1.28858        0.340543        0.317768 
        1.29471         0.33795        0.314276 
        1.30084        0.333499        0.310841 
        1.30697        0.330049        0.307452 
        1.31312        0.325529        0.304109 
        1.31925        0.322744        0.300826 
        1.32537        0.319939        0.297596 
        1.33151        0.317003        0.294401 
        1.33765        0.313721        0.291256 
        1.34378        0.309666        0.288163 
        1.34992        0.306943        0.285112 
        1.35606        0.303848          0.2821 
         1.3622        0.300837        0.279137 
        1.36833        0.297635        0.276224 
        1.37445        0.293895        0.273353 
        1.38059        0.291317        0.270516 
        1.38675        0.289815        0.267711 
        1.39288        0.286341        0.264958 
        1.39901        0.283519        0.262246 
        1.40515        0.281155        0.259565 
         1.4113        0.277627        0.256923 
        1.41742        0.275027        0.254328 
        1.42355        0.273114        0.251764 
         1.4297        0.269797        0.249228 
        1.43585        0.267582        0.246728 
        1.44198        0.265519        0.244272 
        1.44809        0.262338        0.241855 
        1.45423        0.260167        0.239461 
        1.46036         0.25747        0.237104 
        1.46649        0.255766        0.234778 
        1.47263        0.252945        0.232482 
        1.47877        0.250101        0.230218 
        1.48491        0.248318         0.22798 
        1.49104        0.245361        0.225777 
        1.49718        0.243307        0.223602 
        1.50333        0.241739        0.221452 
        1.50947        0.239133        0.219335 
         1.5156        0.236825        0.217249 
        1.52172        0.234894         0.21519 
        1.52787         0.23276        0.213154 
          1.534         0.23033        0.211146 
        1.54013        0.228239        0.209167 
        1.54627        0.226726         0.20721 
        1.55241        0.224282        0.205277 
        1.55855        0.222013        0.203372 
        1.56467        0.221081        0.201496 
         1.5708         0.21865        0.199639 
        1.57695        0.216776        0.197803 
        1.58308        0.214768        0.195994 
        1.58922        0.213101        0.194207 
        1.59535        0.211215        0.192442 
         1.6015        0.209178        0.190697 
        1.60764        0.207619        0.188975 
        1.61376         0.20539        0.187279 
        1.61989        0.203944        0.185602 
        1.62604        0.202458        0.183943 
        1.63218        0.200716        0.182304 
        1.63831        0.199077         0.18069 
        1.64444         0.19739        0.179094 
        1.65059        0.195714        0.177514 
        1.65673        0.194188        0.175955 
        1.66285        0.192853        0.174419 
        1.66898        0.191105        0.172901 
        1.67512        0.189181        0.171398 
        1.68127        0.187577        0.169912 
         1.6874        0.186537        0.168447 
        1.69353        0.184468           0.167 
        1.69967        0.183703        0.165566 
        1.70581        0.181518         0.16415 
        1.71193        0.180274        0.162756 
        1.71806         0.17858        0.161376 
        1.72421        0.177748        0.160009 
        1.73035        0.175951        0.158659 
        1.73649        0.174877        0.157325 
        1.74262        0.173369        0.156007 
        1.74876        0.171924        0.154704 
        1.75489        0.170791        0.153419 
        1.76101        0.169061        0.152148 
        1.76715        0.167839         0.15089 
        1.77329        0.166324        0.149645 
        1.77943        0.165205        0.148414 
        1.78557        0.164231        0.147198 
        1.79171        0.162915        0.145996 
        1.79785        0.161633        0.144807 
        1.80399        0.160343        0.143631 
        1.81012        0.159214         0.14247 
        1.81625        0.157912        0.141323 
        1.82239        0.156753        0.140186 
        1.82853        0.155378        0.139063 
        1.83466        0.154467        0.137953 
        1.84078        0.153278        0.136856 
        1.84692        0.151982         0.13577 
        1.85306        0.151128        0.134694 
         1.8592         0.14971        0.133632 
        1.86533        0.148865        0.132581 
        1.87147        0.147727        0.131541 
        1.87761        0.146845        0.130511 
        1.88375        0.145488        0.129494 
        1.88988        0.144461        0.128489 
        1.89601        0.143322        0.127494 
        1.90215        0.142461        0.126508 
        1.90829        0.141203        0.125534 
        1.91442        0.140573         0.12457 
        1.92056        0.139349        0.123616 
         1.9267        0.138224        0.122672 
        1.93284        0.137309        0.121737 
        1.93897        0.136297        0.120814 
        1.94509        0.135576        0.119902 
        1.95123        0.134493        0.118998 
        1.95737        0.133661        0.118102 
        1.96349        0.132592        0.117218 
        1.96964        0.131592         0.11634 
        1.97578        0.130719        0.115471 
        1.98192        0.129989        0.114612 
        1.98805         0.12913        0.113762 
        1.99419        0.127957        0.112921 
        2.00033        0.127106        0.112088 
        2.00647        0.126528        0.111264 
         2.0126        0.125354        0.110449 
        2.01874        0.124771        0.109641 
        2.02488        0.123896        0.108841 
        2.03101        0.123057         0.10805 
        2.03714        0.122065        0.107268 
        2.04328        0.121467        0.106492 
        2.04941        0.120412        0.105725 
        2.05554        0.119804        0.104966 
        2.06167        0.119237        0.104214 
        2.06781        0.118099        0.103469 
        2.07396         0.11737         0.10273 
        2.08009         0.11661        0.101999 
        2.08622        0.115936        0.101277 
        2.09237        0.115219         0.10056 
        2.09851        0.114475       0.0998498 
        2.10464        0.113797       0.0991478 
        2.11077        0.112872       0.0984534 
        2.11691        0.112234       0.0977641 
        2.12305        0.111454       0.0970815 
        2.12918        0.110907        0.096407 
        2.13531        0.110003       0.0957389 
        2.14145        0.109184       0.0950756 
         2.1476        0.108639       0.0944178 
        2.15372        0.108184       0.0937696 
        2.15985        0.107305       0.0931268 
        2.16599        0.106592       0.0924883 
        2.17213        0.105978       0.0918564 
        2.17827        0.105214       0.0912306 
         2.1844        0.104733       0.0906112 
        2.19054        0.104015       0.0899974 
        2.19666        0.103237       0.0893901 
         2.2028        0.102678        0.088788 
        2.20893        0.102258        0.088191 
        2.21508        0.101342       0.0875989 
        2.22122        0.100669       0.0870121 
        2.22736        0.100323       0.0864319 
        2.23349       0.0996187       0.0858571 
        2.23962       0.0991582       0.0852872 
        2.24577        0.098362       0.0847221 
         2.2519       0.0978603       0.0841628 
        2.25802       0.0972269       0.0836096 
        2.26417       0.0967045       0.0830597 
        2.27031       0.0960255       0.0825144 
        2.27644       0.0954762       0.0819755 
        2.28257       0.0949144       0.0814415 
        2.28872       0.0944294       0.0809112 
        2.29486       0.0940388       0.0803858 
        2.30099       0.0932438       0.0798661 
        2.30712       0.0927319       0.0793508 
        2.31326       0.0920529       0.0788392 
         2.3194       0.0918585       0.0783325 
        2.32553       0.0911934        0.077831 
        2.33166       0.0908271       0.0773342 
         2.3378       0.0902116        0.076841 
        2.34394       0.0896277        0.076352 
        2.35007       0.0890706       0.0758679 
        2.35619       0.0884396       0.0753887 
        2.36233       0.0880878       0.0749124 
        2.36848       0.0877091       0.0744393 
        2.37462       0.0870153       0.0739713 
        2.38075       0.0866449       0.0735077 
        2.38689       0.0861868       0.0730478 
        2.39303        0.085768       0.0725918 
        2.39916       0.0851475       0.0721403 
        2.40529       0.0847225       0.0716926 
        2.41143       0.0841856       0.0712484 
        2.41757       0.0837494       0.0708078 
         2.4237       0.0833836       0.0703718 
        2.42983       0.0829126       0.0699394 
        2.43598       0.0825798       0.0695096 
        2.44211       0.0819225       0.0690841 
        2.44823       0.0816128       0.0686631 
        2.45437       0.0810287       0.0682445 
        2.46052       0.0807077        0.067829 
        2.46665       0.0801603       0.0674177 
        2.47279       0.0797105         0.06701 
        2.47892       0.0791645       0.0666054 
        2.48507        0.078814       0.0662038 
         2.4912       0.0784465       0.0658062 
