# k  (h/Mpc)    P(k)  (Mpc/h)^3    P_linear(k)  (Mpc/h)^3
     0.00783031         2086.36         2092.64 
       0.013688         2521.11         2498.51 
       0.019231          2474.4         2449.57 
      0.0249154         2197.34         2191.18 
      0.0312784          1853.8         1837.49 
      0.0375637         1554.07         1533.73 
      0.0433917         1338.48         1328.29 
      0.0492413         1202.81         1190.19 
      0.0555754         1094.02          1090.9 
      0.0619321         1026.16         1011.45 
       0.067871         937.811         933.552 
      0.0738098         847.816         844.155 
      0.0800417         743.962          742.68 
      0.0862327         651.013         646.034 
      0.0921407         575.327         568.122 
      0.0982031         512.576         507.947 
       0.104506         475.172         465.717 
       0.110769         446.165         438.457 
       0.116806         422.876         418.567 
       0.122832         404.339         398.362 
       0.129052         376.008         373.108 
       0.135211         346.607         343.389 
       0.141259          318.15         312.283 
       0.147318         290.279         282.879 
       0.153489          263.84         257.756 
       0.159709         245.328         238.679 
       0.165845         233.879         225.443 
       0.171974         221.796         215.941 
       0.178125         213.792         207.842 
       0.184229         205.512         199.289 
        0.19034         192.691         189.196 
       0.196428         183.401         177.686 
       0.202534          173.23         165.568 
       0.208729         160.774         153.886 
       0.214876         149.908         143.859 
       0.220989         143.422          135.85 
       0.227147         135.574          129.61 
        0.23329         130.469         124.654 
       0.239377         126.591         120.281 
       0.245482         120.324         115.827 
       0.251667         116.903         110.905 
       0.257832          111.64         105.575 
       0.263955         106.268         100.124 
       0.270079         101.174          94.873 
        0.27624          97.516         90.1008 
       0.282372         93.3976         86.0221 
        0.28843         89.4046         82.6205 
       0.294538         86.0636         79.6747 
       0.300721          84.106         76.9601 
        0.30691         80.5448         74.3085 
       0.313033          77.899         71.6192 
       0.319153         74.1141         68.8474 
       0.325316         72.5388          66.029 
        0.33145         69.4619         63.3056 
       0.337538          67.349         60.7758 
       0.343633         64.7491         58.4821 
       0.349808         62.7801         56.3998 
       0.355968         60.9891         54.5307 
       0.362074         59.0475         52.8127 
       0.368217         57.2855         51.1531 
       0.374374         55.4734         49.5146 
       0.380519         54.0148         47.8802 
       0.386598         52.4266         46.2804 
       0.392688          51.158         44.7188 
        0.39888         49.5006         43.2019 
       0.405048         48.1969         41.7885 
       0.411186         46.9613          40.481 
       0.417313         45.4254         39.2655 
       0.423458         44.2491         38.1203 
       0.429607         43.0459         37.0243 
       0.435692         41.6945         35.9702 
       0.441815         40.9345          34.934 
       0.447964         40.1648         33.9158 
       0.454126         38.5277         32.9219 
       0.460267         37.8184         31.9678 
       0.466387         36.6789         31.0611 
        0.47254         36.0429         30.1945 
       0.478662         35.3865         29.3751 
       0.484765         34.2995         28.5977 
       0.490885         33.5128         27.8508 
       0.497035         33.0562         27.1256 
       0.503198         32.1429         26.4193 
       0.509342         31.3092          25.735 
       0.515458         30.6189         25.0743 
       0.521598         30.0707         24.4324 
       0.527764         29.3964         23.8103 
       0.533884         28.8831         23.2161 
           0.54         28.2198         22.6464 
       0.546137         27.7491         22.0974 
       0.552299         27.2724         21.5663 
       0.558452         26.4238         21.0537 
       0.564573         26.0246         20.5589 
       0.570708         25.5685         20.0776 
       0.576825         24.9338         19.6122 
       0.582926         24.4452         19.1624 
       0.589034         23.8006         18.7261 
       0.595184          23.483         18.3007 
       0.601379         23.0067         17.8861 
       0.607522         22.5927         17.4883 
       0.613639         22.3455          17.105 
       0.619772         21.7516          16.733 
       0.625918         21.6131         16.3716 
       0.632068         21.2541         16.0208 
       0.638161         20.7702          15.683 
         0.6443         20.3483         15.3522 
       0.650464         19.9721         15.0294 
       0.656582         19.8335         14.7181 
       0.662703         19.4453         14.4157 
       0.668861         19.0718         14.1203 
       0.675024          18.721         13.8333 
       0.681124         18.3955         13.5574 
       0.687237         18.0858         13.2887 
       0.693381          17.901         13.0262 
       0.699536          17.426         12.7703 
       0.705665         17.3288         12.5223 
       0.711789         16.9629         12.2811 
       0.717957         16.7094         12.0446 
        0.72409          16.453         11.8156 
       0.730186         16.2222         11.5939 
       0.736317         16.0358         11.3768 
       0.742472         15.7606         11.1644 
       0.748622         15.5707         10.9578 
        0.75476         15.2703          10.757 
       0.760888         15.0524         10.5615 
       0.767043          14.868         10.3701 
       0.773185         14.5877          10.184 
       0.779291         14.4945         10.0035 
       0.785407         14.3006         9.82713 
       0.791564         14.0482         9.65393 
       0.797719         13.7448         9.48501 
       0.803834          13.707         9.32122 
       0.809972         13.5762         9.16074 
       0.816124         13.2626          9.0037 
       0.822261         13.1052          8.8508 
       0.828378         12.9604         8.70193 
       0.834502         12.8415         8.55638 
       0.840667         12.6361         8.41324 
       0.846816         12.4069         8.27381 
       0.852925         12.2901         8.13843 
       0.859047         12.1461         8.00582 
       0.865192         12.0308         7.87576 
       0.871341         11.9157         7.74852 
       0.877463         11.7076         7.62468 
       0.883569         11.5431         7.50388 
       0.889708         11.3564          7.3851 
       0.895864         11.2622          7.2686 
       0.902008         11.1712         7.15488 
       0.908149         11.0442         7.04367 
       0.914301         10.9351         6.93466 
       0.920448         10.7403         6.82807 
       0.926574         10.6286          6.7241 
       0.932687         10.5136         6.62254 
       0.938823         10.3727         6.52271 
       0.944975         10.2454         6.42473 
       0.951105           10.15         6.32912 
       0.957225         10.0755         6.23562 
       0.963368         9.96051          6.1437 
       0.969511         9.85836         6.05365 
       0.975621         9.74807         5.96589 
       0.981748         9.62694         5.87965 
       0.987916         9.55625         5.79458 
        0.99406         9.41123         5.71153 
        1.00019         9.27012         5.63027 
        1.00632         9.24822         5.55067 
        1.01246         9.14179          5.4725 
        1.01859         8.99886         5.39596 
        1.02471         8.94789         5.32099 
        1.03085         8.85203         5.24719 
        1.03698         8.72013         5.17496 
        1.04314         8.66601         5.10378 
        1.04929         8.55478         5.03411 
        1.05541         8.45467         4.96603 
        1.06154         8.39543         4.89905 
        1.06769         8.35337         4.83321 
        1.07382         8.22482          4.7688 
        1.07993         8.15089         4.70571 
        1.08607         8.08439         4.64351 
        1.09222         8.01171         4.58238 
        1.09836         7.91552         4.52243 
        1.10449         7.84908         4.46363 
        1.11063          7.7648         4.40581 
        1.11677         7.72282         4.34904 
         1.1229         7.66444         4.29337 
        1.12903         7.56539         4.23863 
        1.13518         7.47434         4.18481 
        1.14131         7.41924         4.13195 
        1.14745         7.34492         4.08005 
        1.15359         7.29774         4.02902 
        1.15973         7.22549         3.97885 
        1.16584         7.12424         3.92976 
        1.17197         7.07759         3.88144 
        1.17811         7.04413         3.83378 
        1.18424         6.97433         3.78706 
        1.19038         6.94172         3.74098 
        1.19652         6.85791         3.69569 
        1.20267         6.78669         3.65116 
        1.20881         6.76406         3.60736 
        1.21495         6.70172         3.56436 
        1.22108         6.62025         3.52207 
         1.2272         6.57716         3.48056 
        1.23334         6.50374         3.43964 
        1.23949         6.44723         3.39927 
        1.24562         6.41532         3.35966 
        1.25174         6.36062         3.32075 
        1.25789          6.3108         3.28233 
        1.26402         6.27618          3.2446 
        1.27014         6.21662         3.20755 
        1.27628         6.14481         3.17097 
        1.28244         6.08511         3.13489 
        1.28858         6.08061         3.09942 
        1.29471         6.00697         3.06458 
        1.30084         5.94786         3.03031 
        1.30697         5.94459         2.99651 
        1.31312         5.84411         2.96319 
        1.31925         5.80644         2.93047 
        1.32537         5.76754         2.89829 
        1.33151         5.74521         2.86647 
        1.33765         5.67865         2.83515 
        1.34378         5.63931         2.80436 
        1.34992         5.60301         2.77401 
        1.35606         5.55078         2.74405 
         1.3622         5.52217         2.71458 
        1.36833         5.47197         2.68562 
        1.37445         5.43605         2.65709 
        1.38059         5.41743         2.62889 
        1.38675         5.36792         2.60104 
        1.39288         5.33794          2.5737 
        1.39901         5.27271         2.54677 
        1.40515         5.24693         2.52016 
         1.4113         5.21009         2.49394 
        1.41742         5.17326          2.4682 
        1.42355         5.12525         2.44277 
         1.4297         5.09758         2.41763 
        1.43585         5.07352         2.39285 
        1.44198         5.04816         2.36851 
        1.44809         4.99913         2.34456 
        1.45423         4.95908         2.32085 
        1.46036         4.91989         2.29751 
        1.46649          4.8938         2.27448 
        1.47263         4.84943         2.25175 
        1.47877         4.81825         2.22935 
        1.48491          4.7913         2.20721 
        1.49104         4.75893         2.18542 
        1.49718         4.73059          2.1639 
        1.50333         4.70352         2.14265 
        1.50947         4.66213         2.12172 
         1.5156         4.63632          2.1011 
        1.52172         4.61027         2.08076 
        1.52787         4.58125         2.06065 
          1.534         4.54154         2.04083 
        1.54013         4.52319         2.02129 
        1.54627         4.48083         2.00197 
        1.55241         4.45371          1.9829 
        1.55855         4.43596         1.96411 
        1.56467         4.40267         1.94561 
         1.5708          4.3807          1.9273 
        1.57695         4.34131         1.90919 
        1.58308         4.30828         1.89137 
        1.58922          4.2996         1.87375 
        1.59535         4.27579         1.85637 
         1.6015         4.23672         1.83919 
        1.60764         4.20808         1.82223 
        1.61376         4.19058         1.80553 
        1.61989         4.16514         1.78903 
        1.62604         4.13459          1.7727 
        1.63218         4.12523         1.75658 
        1.63831         4.09275          1.7407 
        1.64444         4.07139         1.72501 
        1.65059         4.02629         1.70948 
        1.65673         4.02726         1.69415 
        1.66285         3.98561         1.67906 
        1.66898         3.96573         1.66414 
        1.67512         3.94338         1.64938 
        1.68127         3.91897         1.63478 
         1.6874         3.90598          1.6204 
        1.69353         3.86904         1.60619 
        1.69967         3.85652         1.59212 
        1.70581         3.83555         1.57822 
        1.71193         3.80936         1.56455 
        1.71806         3.79302           1.551 
        1.72421         3.76771         1.53759 
        1.73035         3.75362         1.52436 
        1.73649         3.72857         1.51128 
        1.74262         3.70358         1.49837 
        1.74876         3.69032          1.4856 
        1.75489         3.67066           1.473 
        1.76101          3.6395         1.46056 
        1.76715         3.63052         1.44824 
        1.77329         3.61051         1.43604 
        1.77943         3.57628         1.42399 
        1.78557         3.56811         1.41209 
        1.79171         3.54783         1.40032 
        1.79785         3.52793         1.38869 
        1.80399         3.50597         1.37719 
        1.81012         3.48884         1.36583 
        1.81625         3.47238         1.35461 
        1.82239         3.45475          1.3435 
        1.82853         3.43115         1.33252 
        1.83466         3.42015         1.32167 
        1.84078         3.40544         1.31096 
        1.84692         3.39203         1.30034 
        1.85306         3.36209         1.28983 
         1.8592         3.34166         1.27946 
        1.86533         3.32724          1.2692 
        1.87147         3.31505         1.25904 
        1.87761         3.29394         1.24899 
        1.88375         3.27726         1.23907 
        1.88988         3.26064         1.22926 
        1.89601         3.24368         1.21955 
        1.90215         3.22779         1.20994 
        1.90829         3.20741         1.20044 
        1.91442         3.19644         1.19103 
        1.92056          3.1779         1.18174 
         1.9267         3.16008         1.17254 
        1.93284         3.14867         1.16343 
        1.93897         3.13232         1.15443 
        1.94509         3.11723         1.14555 
        1.95123         3.09972         1.13674 
        1.95737         3.07837         1.12802 
        1.96349          3.0723          1.1194 
        1.96964         3.06093         1.11086 
        1.97578         3.03476          1.1024 
        1.98192         3.02817         1.09404 
        1.98805           3.014         1.08577 
        1.99419         2.99739         1.07759 
        2.00033         2.98768         1.06949 
        2.00647         2.96971         1.06147 
         2.0126          2.9606         1.05355 
        2.01874          2.9362         1.04569 
        2.02488         2.93031         1.03791 
        2.03101         2.90745         1.03022 
        2.03714         2.89736         1.02262 
        2.04328         2.88348         1.01509 
        2.04941          2.8649         1.00764 
        2.05554         2.85683         1.00026 
        2.06167           2.847        0.992957 
        2.06781         2.83215        0.985721 
        2.07396         2.82292        0.978547 
        2.08009         2.80813        0.971456 
        2.08622         2.79183        0.964444 
        2.09237         2.77798        0.957488 
        2.09851         2.77066        0.950598 
        2.10464         2.75967        0.943788 
        2.11077         2.74158        0.937053 
        2.11691         2.73041        0.930369 
        2.12305          2.7217        0.923749 
        2.12918         2.71323         0.91721 
        2.13531         2.69912        0.910733 
        2.14145         2.68673        0.904304 
         2.1476         2.67015         0.89793 
        2.15372         2.65791        0.891649 
        2.15985         2.65454        0.885422 
        2.16599         2.63642        0.879237 
        2.17213         2.62251        0.873117 
        2.17827         2.61696        0.867057 
         2.1844         2.60373         0.86106 
        2.19054         2.59365        0.855118 
        2.19666         2.57933         0.84924 
         2.2028         2.56758        0.843412 
        2.20893          2.5589        0.837636 
        2.21508          2.5456        0.831908 
        2.22122          2.5348        0.826231 
        2.22736         2.52561        0.820619 
        2.23349         2.51718         0.81506 
        2.23962         2.50412         0.80955 
        2.24577         2.49583        0.804086 
         2.2519         2.48702         0.79868 
        2.25802         2.47572        0.793333 
        2.26417         2.46786        0.788019 
        2.27031         2.45353        0.782749 
        2.27644         2.44293        0.777542 
        2.28257         2.42985        0.772384 
        2.28872         2.42781        0.767262 
        2.29486         2.41236        0.762188 
        2.30099         2.40111         0.75717 
        2.30712         2.39157        0.752195 
        2.31326          2.3815        0.747256 
         2.3194         2.37442        0.742364 
        2.32553         2.36594        0.737525 
        2.33166         2.35744         0.73273 
         2.3378          2.3468        0.727972 
        2.34394         2.33676        0.723254 
        2.35007         2.32638        0.718585 
        2.35619         2.31961        0.713963 
        2.36233         2.31057        0.709371 
        2.36848         2.29815        0.704809 
        2.37462         2.29439        0.700297 
        2.38075         2.28129        0.695829 
        2.38689         2.27704        0.691396 
        2.39303         2.26474        0.687002 
        2.39916         2.25681        0.682652 
        2.40529         2.24786        0.678339 
        2.41143         2.23826         0.67406 
        2.41757         2.23042        0.669816 
         2.4237          2.2245        0.665616 
        2.42983          2.2069        0.661453 
        2.43598          2.2059        0.657315 
        2.44211         2.19263        0.653218 
        2.44823         2.18858        0.649166 
        2.45437         2.17723        0.645137 
        2.46052         2.17328        0.641139 
        2.46665         2.16405        0.637181 
        2.47279         2.15423        0.633259 
        2.47892         2.14761        0.629367 
        2.48507         2.13966        0.625504 
         2.4912         2.12611         0.62168 
