# k  (h/Mpc)    Pcb(k)  (Mpc/h)^3    Pcb_linear(k)  (Mpc/h)^3
     0.00783031         18884.7         19176.4 
       0.013688         23142.2           22905 
       0.019231         22505.7         22448.7 
      0.0249154         19628.8         20073.1 
      0.0312784           16640         16828.1 
      0.0375637         14065.1         14043.6 
      0.0433917           11952           12161 
      0.0492413         10821.1         10895.5 
      0.0555754         9660.04         9985.88 
      0.0619321         9266.44         9258.04 
       0.067871         8295.67         8544.67 
      0.0738098         7520.88         7726.17 
      0.0800417          6568.2         6797.21 
      0.0862327         5826.91         5912.55 
      0.0921407         5260.02          5199.4 
      0.0982031         4685.66         4648.61 
       0.104506         4435.77         4262.06 
       0.110769         4145.74         4012.55 
       0.116806         3935.25         3830.49 
       0.122832         3743.19         3645.56 
       0.129052         3438.69         3414.42 
       0.135211         3206.53         3142.44 
       0.141259         3022.97         2857.76 
       0.147318         2812.02         2588.67 
       0.153489         2562.55         2358.76 
       0.159709         2426.22         2184.16 
       0.165845          2347.2         2063.04 
       0.171974         2235.75         1976.08 
       0.178125         2133.77         1901.96 
       0.184229          2037.5         1823.69 
        0.19034          1921.4         1731.32 
       0.196428         1866.75         1625.99 
       0.202534         1782.28          1515.1 
       0.208729         1691.07         1408.19 
       0.214876         1620.18         1316.44 
       0.220989         1561.79         1243.14 
       0.227147         1501.14         1186.05 
        0.23329         1443.69         1140.69 
       0.239377         1420.57         1100.68 
       0.245482         1331.65         1059.91 
       0.251667         1322.26         1014.87 
       0.257832         1266.06         966.095 
       0.263955         1221.35         916.216 
       0.270079         1176.78         868.162 
        0.27624         1161.25         824.492 
       0.282372         1113.69         787.167 
        0.28843         1105.08         756.041 
       0.294538         1048.96         729.084 
       0.300721         1042.48         704.243 
        0.30691         1001.66         679.975 
       0.313033         980.821          655.37 
       0.319153         962.486         630.007 
       0.325316         931.288         604.214 
        0.33145         909.182         579.293 
       0.337538         891.293         556.147 
       0.343633         871.628         535.152 
       0.349808          840.56           516.1 
       0.355968         834.486         498.995 
       0.362074         826.124         483.272 
       0.368217         799.365         468.087 
       0.374374         768.371         453.092 
       0.380519         769.472         438.137 
       0.386598         746.153         423.498 
       0.392688         743.061         409.208 
        0.39888         721.138         395.329 
       0.405048         711.326         382.393 
       0.411186         701.307         370.429 
       0.417313         686.576         359.307 
       0.423458         672.657         348.827 
       0.429607         665.279         338.797 
       0.435692         649.657         329.152 
       0.441815         643.157          319.67 
       0.447964         630.367         310.352 
       0.454126         623.814         301.258 
       0.460267         608.053         292.527 
       0.466387         600.823          284.23 
        0.47254         596.165           276.3 
       0.478662         590.057         268.803 
       0.484765         571.124         261.688 
       0.490885         567.083         254.854 
       0.497035         555.672         248.217 
       0.503198         551.422         241.754 
       0.509342         546.562         235.492 
       0.515458         542.354         229.447 
       0.521598         527.698         223.573 
       0.527764         519.668          217.88 
       0.533884         516.477         212.443 
           0.54         510.551         207.229 
       0.546137         506.422         202.206 
       0.552299         498.879         197.346 
       0.558452         495.141         192.655 
       0.564573         489.189         188.128 
       0.570708          482.42         183.723 
       0.576825         470.297         179.465 
       0.582926         470.926         175.348 
       0.589034          465.99         171.356 
       0.595184         462.158         167.463 
       0.601379         454.413         163.669 
       0.607522         448.396         160.029 
       0.613639         447.067         156.522 
       0.619772          438.57         153.118 
       0.625918         436.038         149.811 
       0.632068         429.307           146.6 
       0.638161         427.351          143.51 
         0.6443         420.684         140.482 
       0.650464          418.02         137.529 
       0.656582         413.648         134.681 
       0.662703         412.793         131.913 
       0.668861         406.121          129.21 
       0.675024         402.539         126.583 
       0.681124         399.035         124.059 
       0.687237         395.607           121.6 
       0.693381         389.836         119.198 
       0.699536          384.52         116.857 
       0.705665          382.89         114.588 
       0.711789         381.301          112.38 
       0.717957         377.714         110.216 
        0.72409          375.56          108.12 
       0.730186         370.024         106.092 
       0.736317         367.197         104.105 
       0.742472         364.765         102.162 
       0.748622         361.051         100.271 
        0.75476         356.096         98.4331 
       0.760888         352.707         96.6444 
       0.767043         352.817         94.8935 
       0.773185         349.269         93.1901 
       0.779291         344.516         91.5384 
       0.785407         343.132         89.9246 
       0.791564         338.961         88.3397 
       0.797719         336.914         86.7939 
       0.803834         332.733         85.2952 
       0.809972         332.352         83.8266 
       0.816124          330.97         82.3897 
       0.822261         327.035         80.9905 
       0.828378         324.474         79.6282 
       0.834502         320.975         78.2964 
       0.840667         318.832         76.9866 
       0.846816          317.32         75.7106 
       0.852925         315.125         74.4719 
       0.859047         312.749         73.2584 
       0.865192         308.887         72.0682 
       0.871341         306.333         70.9039 
       0.877463         306.262         69.7707 
       0.883569         303.423         68.6654 
       0.889708         300.567         67.5784 
       0.895864         299.684         66.5124 
       0.902008         296.757         65.4717 
       0.908149         293.521         64.4541 
       0.914301          291.26         63.4566 
       0.920448         289.638         62.4812 
       0.926574         285.919         61.5299 
       0.932687         285.744         60.6005 
       0.938823         282.742          59.687 
       0.944975         282.452         58.7904 
       0.951105         279.679         57.9155 
       0.957225         277.847         57.0599 
       0.963368         274.054         56.2188 
       0.969511           273.4         55.3948 
       0.975621          271.48         54.5917 
       0.981748         269.994         53.8026 
       0.987916         268.511         53.0242 
        0.99406         264.952         52.2641 
        1.00019         263.515         51.5206 
        1.00632         262.497         50.7922 
        1.01246         260.207         50.0769 
        1.01859         260.425         49.3766 
        1.02471         256.143         48.6905 
        1.03085         255.073         48.0152 
        1.03698         253.691         47.3542 
        1.04314         251.497         46.7029 
        1.04929         249.625         46.0654 
        1.05541         249.901         45.4424 
        1.06154          245.82         44.8294 
        1.06769         245.377         44.2269 
        1.07382         243.281         43.6376 
        1.07993         241.952         43.0603 
        1.08607         241.382         42.4912 
        1.09222         238.667         41.9318 
        1.09836         237.089         41.3832 
        1.10449         235.055         40.8451 
        1.11063         233.053          40.316 
        1.11677          232.65         39.7965 
         1.1229         230.428         39.2871 
        1.12903         229.518         38.7862 
        1.13518         227.711         38.2937 
        1.14131         226.081           37.81 
        1.14745         225.912          37.335 
        1.15359         223.748         36.8681 
        1.15973         221.839          36.409 
        1.16584         220.519         35.9599 
        1.17197         220.541         35.5176 
        1.17811         217.482         35.0815 
        1.18424         216.327          34.654 
        1.19038         215.708         34.2324 
        1.19652         213.605         33.8179 
        1.20267         213.427         33.4104 
        1.20881         211.306         33.0097 
        1.21495         210.067         32.6162 
        1.22108         208.666         32.2292 
         1.2272         207.366         31.8494 
        1.23334         206.838         31.4748 
        1.23949         204.412         31.1055 
        1.24562          203.78          30.743 
        1.25174         202.709          30.387 
        1.25789         201.244         30.0354 
        1.26402         199.164         29.6901 
        1.27014         198.199         29.3511 
        1.27628         196.936         29.0163 
        1.28244         196.929         28.6862 
        1.28858         194.827         28.3616 
        1.29471         193.824         28.0428 
        1.30084         192.331         27.7292 
        1.30697         191.094           27.42 
        1.31312         189.589          27.115 
        1.31925         188.406         26.8157 
        1.32537         188.184         26.5212 
        1.33151         186.284           26.23 
        1.33765         184.954         25.9434 
        1.34378         184.321         25.6617 
        1.34992         183.371          25.384 
        1.35606         183.076         25.1098 
         1.3622         180.966         24.8401 
        1.36833         179.731         24.5751 
        1.37445         178.955         24.3141 
        1.38059         177.487          24.056 
        1.38675         176.894         23.8012 
        1.39288         175.879          23.551 
        1.39901         174.894         23.3045 
        1.40515         173.496         23.0611 
         1.4113         172.658         22.8212 
        1.41742          171.28         22.5856 
        1.42355         170.546          22.353 
         1.4297         169.115         22.1229 
        1.43585         168.366         21.8961 
        1.44198         167.799         21.6734 
        1.44809         166.658         21.4542 
        1.45423         165.915         21.2373 
        1.46036          164.58         21.0237 
        1.46649         163.549          20.813 
        1.47263         162.622          20.605 
        1.47877         161.372            20.4 
        1.48491         159.963         20.1974 
        1.49104         159.829          19.998 
        1.49718         158.263         19.8011 
        1.50333         157.611         19.6066 
        1.50947         156.525         19.4151 
         1.5156         155.681         19.2265 
        1.52172         154.996         19.0403 
        1.52787          153.45         18.8563 
          1.534         153.221         18.6749 
        1.54013         152.081         18.4961 
        1.54627         151.095         18.3193 
        1.55241         150.107         18.1448 
        1.55855         149.273         17.9729 
        1.56467         148.087         17.8036 
         1.5708          147.34          17.636 
        1.57695         147.003         17.4704 
        1.58308         145.915         17.3072 
        1.58922          145.18         17.1461 
        1.59535         144.029          16.987 
         1.6015          143.37         16.8298 
        1.60764         142.617         16.6746 
        1.61376         141.734         16.5218 
        1.61989         140.888         16.3708 
        1.62604         139.757         16.2213 
        1.63218         139.433         16.0738 
        1.63831         138.296         15.9285 
        1.64444         137.556          15.785 
        1.65059          136.86         15.6428 
        1.65673         135.969         15.5026 
        1.66285         135.151         15.3645 
        1.66898         134.365          15.228 
        1.67512         133.731         15.0929 
        1.68127         132.753         14.9593 
         1.6874         132.062         14.8277 
        1.69353          131.32         14.6977 
        1.69967         130.371         14.5689 
        1.70581         129.689         14.4418 
        1.71193         128.868         14.3166 
        1.71806         128.342         14.1927 
        1.72421         127.696           14.07 
        1.73035         127.134         13.9489 
        1.73649         126.238         13.8292 
        1.74262         125.506          13.711 
        1.74876         124.732         13.5942 
        1.75489         124.036         13.4789 
        1.76101         122.959          13.365 
        1.76715         122.793         13.2523 
        1.77329          122.01         13.1407 
        1.77943         121.424         13.0304 
        1.78557         120.861         12.9215 
        1.79171         119.912         12.8139 
        1.79785         119.244         12.7074 
        1.80399         118.612         12.6022 
        1.81012         118.029         12.4983 
        1.81625          117.47         12.3956 
        1.82239         116.747         12.2939 
        1.82853          115.95         12.1934 
        1.83466         115.365         12.0942 
        1.84078         114.723         11.9961 
        1.84692          113.78          11.899 
        1.85306         113.631         11.8028 
         1.8592         112.724         11.7079 
        1.86533         112.237          11.614 
        1.87147         111.384         11.5211 
        1.87761         110.562         11.4291 
        1.88375         110.141         11.3383 
        1.88988         109.302         11.2485 
        1.89601         108.951         11.1597 
        1.90215         108.323         11.0717 
        1.90829         107.625         10.9848 
        1.91442         107.236         10.8987 
        1.92056         106.431         10.8137 
         1.9267         106.019         10.7295 
        1.93284         105.239         10.6461 
        1.93897         104.733         10.5638 
        1.94509         104.342         10.4825 
        1.95123         103.755         10.4019 
        1.95737         103.041         10.3221 
        1.96349         102.538         10.2433 
        1.96964         101.696         10.1651 
        1.97578         101.108         10.0877 
        1.98192          100.71         10.0112 
        1.98805         100.221         9.93555 
        1.99419         99.6452         9.86066 
        2.00033         99.0281          9.7865 
        2.00647         98.6314         9.71313 
         2.0126         97.8757         9.64063 
        2.01874         97.3134         9.56877 
        2.02488         97.0556         9.49757 
        2.03101         96.1996         9.42723 
        2.03714         95.8093         9.35766 
        2.04328         95.1627         9.28872 
        2.04941         94.6985         9.22054 
        2.05554         94.1146         9.15308 
        2.06167         93.7976         9.08621 
        2.06781         93.0065         9.01999 
        2.07396         92.8201         8.95435 
        2.08009         92.2043         8.88946 
        2.08622         91.4711          8.8253 
        2.09237         91.2928         8.76164 
        2.09851         90.6271          8.6986 
        2.10464         90.2348         8.63628 
        2.11077         89.5932         8.57465 
        2.11691         89.2749         8.51348 
        2.12305         88.8192          8.4529 
        2.12918         88.1898         8.39307 
        2.13531         87.6626          8.3338 
        2.14145          87.158         8.27497 
         2.1476         86.6971         8.21665 
        2.15372         86.3099         8.15917 
        2.15985         85.8067         8.10219 
        2.16599         85.2393         8.04559 
        2.17213         84.8804         7.98959 
        2.17827         84.3113         7.93414 
         2.1844         83.8797         7.87926 
        2.19054         83.5236         7.82489 
        2.19666         83.1164          7.7711 
         2.2028         82.5901         7.71777 
        2.20893         82.2222         7.66492 
        2.21508         81.7518          7.6125 
        2.22122         81.3154         7.56055 
        2.22736         80.7309          7.5092 
        2.23349         80.4738         7.45833 
        2.23962          80.117         7.40791 
        2.24577         79.5639         7.35791 
         2.2519         79.2545         7.30845 
        2.25802         78.6813         7.25951 
        2.26417         78.3782         7.21089 
        2.27031         77.8707         7.16266 
        2.27644         77.3483         7.11502 
        2.28257         77.0299         7.06782 
        2.28872         76.8121         7.02095 
        2.29486         76.1891         6.97452 
        2.30099         75.6376          6.9286 
        2.30712         75.4126         6.88308 
        2.31326         74.9913         6.83788 
         2.3194         74.5882         6.79312 
        2.32553         74.2901         6.74884 
        2.33166         73.8701         6.70497 
         2.3378         73.3673         6.66143 
        2.34394          73.089         6.61826 
        2.35007         72.7134         6.57553 
        2.35619         72.2845         6.53324 
        2.36233         71.8476         6.49121 
        2.36848         71.4744         6.44947 
        2.37462           71.12         6.40819 
        2.38075         70.7255          6.3673 
        2.38689         70.3368         6.32674 
        2.39303         69.9451         6.28653 
        2.39916         69.6214         6.24672 
        2.40529         69.4379         6.20726 
        2.41143          68.812          6.1681 
        2.41757         68.5741         6.12927 
         2.4237         68.1995         6.09084 
        2.42983         67.8498         6.05275 
        2.43598         67.4395         6.01488 
        2.44211         67.2118         5.97739 
        2.44823         66.7975         5.94031 
        2.45437         66.3505         5.90344 
        2.46052         66.0839         5.86686 
        2.46665         65.7923         5.83064 
        2.47279         65.3264         5.79475 
        2.47892         65.0029         5.75913 
        2.48507         64.6994         5.72379 
         2.4912         64.4406          5.6888 
