# k  (h/Mpc)    Pcb(k)  (Mpc/h)^3    Pcb_linear(k)  (Mpc/h)^3
     0.00783031         5803.93         5851.05 
       0.013688         6411.23         6518.75 
       0.019231         5936.52         5982.46 
      0.0249154         5009.49         4983.64 
      0.0312784         3860.23         3855.22 
      0.0375637         2993.14         3000.24 
      0.0433917         2497.95         2485.12 
      0.0492413         2183.13         2183.11 
      0.0555754          2015.6         2002.08 
      0.0619321         1847.05         1872.15 
       0.067871         1728.35         1731.82 
      0.0738098         1552.06          1549.7 
      0.0800417         1339.17         1328.47 
      0.0862327          1121.9         1114.26 
      0.0921407         957.535         945.408 
      0.0982031          842.57          822.58 
       0.104506         754.118          746.32 
       0.110769         716.362         707.375 
       0.116806         699.397         685.367 
       0.122832         667.296         661.161 
       0.129052         630.991         622.459 
       0.135211         584.482         568.901 
       0.141259         520.957         508.362 
       0.147318         460.748         449.726 
       0.153489         415.526         400.366 
       0.159709          384.92         365.028 
       0.165845         355.445         343.432 
       0.171974         350.006         330.919 
       0.178125         338.657         321.983 
       0.184229         322.629         311.766 
        0.19034          311.54         297.275 
       0.196428         294.234          278.36 
       0.202534         267.978         256.871 
       0.208729         253.758         235.458 
       0.214876         237.628         217.132 
       0.220989         219.724         203.061 
       0.227147         213.068         192.989 
        0.23329         205.206         185.934 
       0.239377         200.848         180.319 
       0.245482         192.056         174.566 
       0.251667         183.445         167.656 
       0.257832         179.229         159.494 
       0.263955         167.342         150.589 
       0.270079         158.427         141.708 
        0.27624         150.378         133.574 
       0.282372         144.553         126.743 
        0.28843         141.953         121.319 
       0.294538         135.459         116.908 
       0.300721         130.151         113.089 
        0.30691         127.751         109.421 
       0.313033          122.23         105.628 
       0.319153         119.606         101.535 
       0.325316         114.727         97.2085 
        0.33145         110.273         92.8921 
       0.337538          105.93         88.8415 
       0.343633         102.507         85.1738 
       0.349808         98.9155         81.9231 
       0.355968         96.1703         79.0943 
       0.362074         94.0399         76.5792 
       0.368217         91.5776         74.2032 
       0.374374         89.0887           71.85 
       0.380519         85.3191         69.4781 
       0.386598         83.1404         67.1025 
       0.392688          80.296         64.7382 
        0.39888         78.7986         62.4208 
       0.405048         76.6934         60.2502 
       0.411186         74.8333         58.2561 
       0.417313         72.7528          56.435 
       0.423458         70.7116         54.7423 
       0.429607         69.1699         53.1436 
       0.435692         68.1161         51.6217 
       0.441815         65.6795          50.119 
       0.447964         63.5822         48.6289 
       0.454126         62.3667         47.1658 
       0.460267         61.7023         45.7513 
       0.466387         59.9101         44.3975 
        0.47254         59.0969         43.1056 
       0.478662         56.9795         41.8947 
       0.484765         55.8937         40.7534 
       0.490885         54.3371          39.662 
       0.497035         53.7551         38.6083 
       0.503198         52.5429         37.5876 
       0.509342         51.0869         36.5979 
       0.515458         50.2372         35.6362 
       0.521598         48.9438         34.6979 
       0.527764         48.2942          33.788 
       0.533884         47.6533         32.9207 
           0.54         46.3896         32.0896 
       0.546137         45.1242          31.289 
       0.552299         44.2236         30.5166 
       0.558452         43.3291         29.7745 
       0.564573         43.0275         29.0617 
       0.570708         41.8006         28.3694 
       0.576825         41.3153         27.6987 
       0.582926         40.6854         27.0484 
       0.589034         39.8381         26.4166 
       0.595184         39.2812          25.801 
       0.601379         38.2987         25.2024 
       0.607522         37.4959         24.6295 
       0.613639         37.1269         24.0781 
       0.619772         36.3211          23.543 
       0.625918         35.8527         23.0232 
       0.632068          35.342         22.5186 
       0.638161         34.6497         22.0333 
         0.6443         34.2739         21.5587 
       0.650464         33.3782         21.0962 
       0.656582         33.2281         20.6507 
       0.662703         32.6811          20.218 
       0.668861         31.9033         19.7953 
       0.675024          31.622         19.3846 
       0.681124         31.2955         18.9897 
       0.687237         30.6851         18.6052 
       0.693381         30.1501         18.2298 
       0.699536         29.8913         17.8642 
       0.705665         29.3786         17.5103 
       0.711789         28.9244         17.1664 
       0.717957         28.3996         16.8295 
        0.72409         28.0742         16.5036 
       0.730186         27.8887         16.1883 
       0.736317         27.3419         15.8796 
       0.742472         27.0107         15.5778 
       0.748622         26.6059         15.2842 
        0.75476         26.0857         14.9989 
       0.760888         26.0278         14.7213 
       0.767043           25.48         14.4497 
       0.773185         25.1334         14.1855 
       0.779291         24.8366         13.9295 
       0.785407         24.5465         13.6794 
       0.791564         24.4353          13.434 
       0.797719         23.8459         13.1948 
       0.803834         23.7525         12.9629 
       0.809972         23.3407         12.7359 
       0.816124          23.097         12.5138 
       0.822261         22.7836         12.2977 
       0.828378         22.6205         12.0873 
       0.834502          22.357         11.8818 
       0.840667         22.1081         11.6797 
       0.846816         21.7288         11.4829 
       0.852925          21.581         11.2919 
       0.859047         21.4079         11.1049 
       0.865192         21.0786         10.9215 
       0.871341         20.8341         10.7422 
       0.877463         20.5735         10.5677 
       0.883569         20.4534         10.3976 
       0.889708         20.1616         10.2303 
       0.895864          19.912         10.0663 
       0.902008         19.7372         9.90632 
       0.908149         19.4502         9.74989 
       0.914301         19.3019         9.59661 
       0.920448         19.1174         9.44679 
       0.926574         18.9283         9.30071 
       0.932687         18.6721         9.15804 
       0.938823          18.409         9.01788 
       0.944975         18.2866         8.88034 
       0.951105         18.1502         8.74618 
       0.957225         17.9662         8.61504 
       0.963368         17.7475         8.48616 
       0.969511          17.569         8.35993 
       0.975621         17.4414         8.23696 
       0.981748         17.2152         8.11616 
       0.987916         17.0984         7.99704 
        0.99406         16.8629         7.88076 
        1.00019         16.7606         7.76704 
        1.00632         16.6429         7.65568 
        1.01246          16.426         7.54634 
        1.01859         16.2855         7.43933 
        1.02471         16.1365         7.33454 
        1.03085         16.0302         7.23141 
        1.03698         15.9211          7.1305 
        1.04314         15.7171         7.03108 
        1.04929         15.5201          6.9338 
        1.05541         15.4592         6.83876 
        1.06154         15.3214         6.74527 
        1.06769         15.1297          6.6534 
        1.07382         15.0142         6.56354 
        1.07993         14.8922         6.47555 
        1.08607         14.7623         6.38882 
        1.09222         14.6222          6.3036 
        1.09836         14.4787         6.22004 
        1.10449         14.4261         6.13809 
        1.11063         14.2947         6.05754 
        1.11677         14.2303         5.97847 
         1.1229         14.0568         5.90095 
        1.12903         13.9249         5.82474 
        1.13518         13.8548         5.74982 
        1.14131         13.7482         5.67627 
        1.14745         13.5735         5.60404 
        1.15359         13.4302         5.53307 
        1.15973          13.384          5.4633 
        1.16584          13.236         5.39505 
        1.17197         13.1072         5.32788 
        1.17811         13.0383         5.26164 
        1.18424         12.9158         5.19673 
        1.19038         12.8772         5.13274 
        1.19652         12.7058         5.06985 
        1.20267         12.6721         5.00801 
        1.20881         12.5211         4.94723 
        1.21495         12.4626         4.88755 
        1.22108         12.3815         4.82887 
         1.2272         12.2623          4.7713 
        1.23334         12.2091         4.71453 
        1.23949         12.0957         4.65856 
        1.24562         11.9777         4.60366 
        1.25174         11.9428         4.54972 
        1.25789         11.8557         4.49649 
        1.26402         11.7564         4.44421 
        1.27014         11.6888         4.39288 
        1.27628          11.579         4.34222 
        1.28244         11.5566         4.29226 
        1.28858         11.4227         4.24316 
        1.29471         11.3251         4.19494 
        1.30084         11.2434         4.14751 
        1.30697         11.1733         4.10074 
        1.31312          11.116         4.05463 
        1.31925         11.0463         4.00937 
        1.32537         10.9362         3.96485 
        1.33151         10.8579         3.92084 
        1.33765         10.8352         3.87754 
        1.34378          10.759         3.83497 
        1.34992         10.6678         3.79302 
        1.35606         10.5634          3.7516 
         1.3622         10.5134         3.71088 
        1.36833         10.4728         3.67086 
        1.37445         10.3895         3.63145 
        1.38059         10.3089          3.5925 
        1.38675         10.2745         3.55404 
        1.39288         10.1813         3.51629 
        1.39901            10.1          3.4791 
        1.40515         10.0642         3.44238 
         1.4113         9.99153          3.4062 
        1.41742          9.9336         3.37067 
        1.42355         9.85763         3.33559 
         1.4297         9.79534         3.30091 
        1.43585         9.73666         3.26673 
        1.44198         9.72156         3.23317 
        1.44809         9.64309         3.20015 
        1.45423         9.57075         3.16746 
        1.46036         9.51114         3.13529 
        1.46649         9.45296         3.10356 
        1.47263         9.40127         3.07225 
        1.47877          9.3103         3.04138 
        1.48491         9.29618         3.01088 
        1.49104         9.23612         2.98087 
        1.49718         9.18762         2.95125 
        1.50333         9.14083         2.92198 
        1.50947         9.07428         2.89317 
         1.5156         9.03575         2.86479 
        1.52172           8.962         2.83679 
        1.52787         8.96025         2.80911 
          1.534         8.87339         2.78184 
        1.54013         8.83477         2.75495 
        1.54627          8.7672         2.72837 
        1.55241         8.69811         2.70214 
        1.55855         8.67318         2.67629 
        1.56467         8.63529         2.65085 
         1.5708         8.59039         2.62567 
        1.57695         8.53616         2.60078 
        1.58308         8.48843         2.57628 
        1.58922         8.43887         2.55207 
        1.59535         8.40277         2.52818 
         1.6015         8.32372         2.50456 
        1.60764         8.28819         2.48126 
        1.61376         8.25392         2.45832 
        1.61989          8.1981         2.43565 
        1.62604         8.17502         2.41321 
        1.63218         8.11987         2.39107 
        1.63831         8.07431         2.36927 
        1.64444         8.02824         2.34772 
        1.65059         7.98197          2.3264 
        1.65673         7.94886         2.30536 
        1.66285          7.8948         2.28464 
        1.66898         7.87597         2.26417 
        1.67512         7.84971         2.24391 
        1.68127         7.78313         2.22388 
         1.6874         7.77128         2.20414 
        1.69353         7.68609         2.18465 
        1.69967         7.66066         2.16536 
        1.70581         7.62789          2.1463 
        1.71193         7.57482         2.12754 
        1.71806          7.5443         2.10897 
        1.72421         7.50736         2.09059 
        1.73035         7.48704         2.07244 
        1.73649         7.44797         2.05452 
        1.74262         7.39714         2.03682 
        1.74876          7.3715         2.01932 
        1.75489          7.3395         2.00206 
        1.76101         7.27333           1.985 
        1.76715         7.27543         1.96812 
        1.77329         7.21864         1.95142 
        1.77943         7.17923          1.9349 
        1.78557         7.17445          1.9186 
        1.79171         7.11952         1.90249 
        1.79785         7.07996         1.88656 
        1.80399         7.05739         1.87081 
        1.81012         7.00987         1.85526 
        1.81625         6.98691          1.8399 
        1.82239         6.94307         1.82469 
        1.82853         6.90586         1.80966 
        1.83466         6.87396         1.79481 
        1.84078         6.83737         1.78015 
        1.84692         6.83294         1.76562 
        1.85306         6.79548         1.75124 
         1.8592         6.76663         1.73705 
        1.86533         6.71786         1.72302 
        1.87147         6.69867         1.70912 
        1.87761         6.67187         1.69538 
        1.88375         6.64471          1.6818 
        1.88988         6.60355         1.66838 
        1.89601         6.56938         1.65511 
        1.90215         6.54245         1.64197 
        1.90829         6.51386         1.62897 
        1.91442         6.49367         1.61612 
        1.92056         6.46358         1.60342 
         1.9267         6.44273         1.59084 
        1.93284         6.41325         1.57839 
        1.93897         6.36264         1.56609 
        1.94509         6.33723         1.55396 
        1.95123         6.31831         1.54192 
        1.95737         6.29317            1.53 
        1.96349         6.25477         1.51824 
        1.96964         6.23241         1.50656 
        1.97578         6.20793         1.49501 
        1.98192         6.19559          1.4836 
        1.98805         6.14729          1.4723 
        1.99419         6.13607         1.46113 
        2.00033         6.09681         1.45006 
        2.00647         6.07446         1.43911 
         2.0126         6.05138          1.4283 
        2.01874         6.02531         1.41757 
        2.02488         6.00064         1.40695 
        2.03101         5.98946         1.39646 
        2.03714          5.9442         1.38608 
        2.04328         5.91624          1.3758 
        2.04941         5.89128         1.36563 
        2.05554         5.87882         1.35557 
        2.06167         5.85443          1.3456 
        2.06781         5.83882         1.33573 
        2.07396         5.80733         1.32594 
        2.08009         5.76651         1.31627 
        2.08622         5.75725          1.3067 
        2.09237         5.74335         1.29721 
        2.09851         5.70312         1.28782 
        2.10464         5.69142         1.27853 
        2.11077         5.65167         1.26935 
        2.11691         5.64079         1.26023 
        2.12305         5.61856         1.25121 
        2.12918         5.58016         1.24229 
        2.13531         5.57514         1.23346 
        2.14145         5.54353          1.2247 
         2.1476         5.53096         1.21601 
        2.15372         5.50982         1.20745 
        2.15985         5.47632         1.19896 
        2.16599         5.47136         1.19053 
        2.17213         5.45786         1.18219 
        2.17827         5.43001         1.17393 
         2.1844         5.41478         1.16576 
        2.19054         5.38213         1.15767 
        2.19666          5.3628         1.14966 
         2.2028         5.33886         1.14172 
        2.20893         5.32859         1.13385 
        2.21508         5.29698         1.12605 
        2.22122          5.2764         1.11832 
        2.22736         5.25457         1.11067 
        2.23349         5.23349          1.1031 
        2.23962         5.21484          1.0956 
        2.24577         5.20719         1.08816 
         2.2519          5.1848          1.0808 
        2.25802         5.15783         1.07352 
        2.26417         5.13749         1.06628 
        2.27031         5.12115         1.05911 
        2.27644         5.11151         1.05202 
        2.28257         5.07146           1.045 
        2.28872          5.0654         1.03803 
        2.29486         5.04568         1.03112 
        2.30099         5.02662          1.0243 
        2.30712         4.99741         1.01753 
        2.31326         4.98738         1.01081 
         2.3194         4.96429         1.00415 
        2.32553         4.94898        0.997564 
        2.33166         4.92263        0.991041 
         2.3378         4.91589        0.984568 
        2.34394          4.8896         0.97815 
        2.35007         4.87905        0.971798 
        2.35619         4.86203        0.965511 
        2.36233         4.84186        0.959264 
        2.36848         4.82211         0.95306 
        2.37462         4.80888        0.946923 
        2.38075         4.78498        0.940847 
        2.38689         4.77149        0.934819 
        2.39303         4.75878        0.928844 
        2.39916         4.74438        0.922928 
        2.40529         4.72617        0.917065 
        2.41143         4.71656        0.911247 
        2.41757         4.68814        0.905478 
         2.4237         4.67265        0.899769 
        2.42983         4.65719         0.89411 
        2.43598         4.64121        0.888485 
        2.44211         4.62083        0.882918 
        2.44823         4.60386         0.87741 
        2.45437         4.59218        0.871935 
        2.46052         4.58351        0.866501 
        2.46665         4.56592        0.861124 
        2.47279         4.54212        0.855794 
        2.47892         4.52552        0.850505 
        2.48507         4.51254        0.845257 
         2.4912          4.4991        0.840062 
