# k  (h/Mpc)    Pcb(k)  (Mpc/h)^3    Pcb_linear(k)  (Mpc/h)^3
     0.00783031         12919.5         13012.7 
       0.013688         14169.4         14492.8 
       0.019231         13143.6         13298.6 
      0.0249154         11152.7         11077.5 
      0.0312784         8560.41          8568.8 
      0.0375637         6628.89         6668.28 
      0.0433917         5549.74         5523.27 
      0.0492413         4845.91         4851.98 
      0.0555754         4480.07         4449.58 
      0.0619321         4075.67         4160.78 
       0.067871         3825.94         3848.89 
      0.0738098         3448.78         3444.12 
      0.0800417         2983.06         2952.43 
      0.0862327         2504.17         2476.35 
      0.0921407         2152.46         2101.09 
      0.0982031          1905.7         1828.11 
       0.104506          1700.3         1658.63 
       0.110769         1616.26         1572.07 
       0.116806         1578.31         1523.16 
       0.122832         1501.58         1469.36 
       0.129052         1414.74         1383.35 
       0.135211         1325.62         1264.32 
       0.141259          1182.8         1129.78 
       0.147318         1053.17         999.465 
       0.153489         956.892         889.767 
       0.159709         897.668         811.234 
       0.165845         825.421         763.238 
       0.171974         814.656          735.43 
       0.178125         788.783          715.57 
       0.184229          741.03         692.863 
        0.19034         720.225         660.657 
       0.196428         686.364         618.622 
       0.202534         626.272         570.865 
       0.208729         603.143         523.277 
       0.214876         566.613          482.55 
       0.220989          526.99         451.278 
       0.227147          512.71         428.894 
        0.23329         492.895         413.215 
       0.239377         486.879         400.737 
       0.245482         462.029          387.95 
       0.251667         443.338         372.593 
       0.257832         434.773         354.455 
       0.263955         407.706         334.666 
       0.270079         388.353         314.928 
        0.27624         370.701         296.851 
       0.282372         360.228          281.67 
        0.28843         355.604         269.616 
       0.294538         337.297         259.814 
       0.300721         326.774         251.325 
        0.30691          320.51         243.175 
       0.313033         305.214         234.745 
       0.319153         299.737         225.649 
       0.325316         292.268         216.033 
        0.33145         283.346         206.441 
       0.337538         271.902         197.439 
       0.343633         263.445         189.288 
       0.349808         255.552         182.064 
       0.355968         250.333         175.777 
       0.362074         241.727         170.188 
       0.368217         238.692         164.907 
       0.374374         232.949         159.677 
       0.380519         223.111         154.406 
       0.386598         219.575         149.127 
       0.392688         212.879         143.872 
        0.39888         208.249         138.722 
       0.405048         202.973         133.898 
       0.411186         201.237         129.467 
       0.417313         197.154         125.419 
       0.423458         191.819         121.658 
       0.429607         186.081         118.105 
       0.435692         183.269         114.723 
       0.441815         179.144         111.383 
       0.447964         174.171         108.071 
       0.454126         171.517          104.82 
       0.460267         169.161         101.676 
       0.466387         164.629         98.6676 
        0.47254         162.787         95.7966 
       0.478662          158.07         93.1054 
       0.484765         155.497          90.569 
       0.490885         152.873         88.1436 
       0.497035         150.696         85.8018 
       0.503198         148.953         83.5336 
       0.509342         145.201         81.3341 
       0.515458         142.595         79.1969 
       0.521598         139.143         77.1115 
       0.527764         137.959         75.0895 
       0.533884         136.698         73.1619 
           0.54         133.575          71.315 
       0.546137         130.429         69.5356 
       0.552299         128.601         67.8191 
       0.558452         126.497           66.17 
       0.564573         125.985         64.5859 
       0.570708         122.463         63.0473 
       0.576825          120.92         61.5568 
       0.582926         119.662         60.1115 
       0.589034         117.551         58.7075 
       0.595184         116.206         57.3394 
       0.601379          114.19          56.009 
       0.607522         111.388         54.7358 
       0.613639         110.766         53.5104 
       0.619772         109.174         52.3212 
       0.625918         108.321         51.1661 
       0.632068         105.598         50.0445 
       0.638161         105.005          48.966 
         0.6443         103.898         47.9113 
       0.650464         101.781         46.8836 
       0.656582         101.072         45.8935 
       0.662703         100.135         44.9318 
       0.668861         97.9223         43.9925 
       0.675024         97.7602         43.0796 
       0.681124         96.0936         42.2021 
       0.687237         95.0941         41.3477 
       0.693381         93.4551         40.5133 
       0.699536         92.7772         39.7007 
       0.705665         91.7367         38.9142 
       0.711789         90.3187           38.15 
       0.717957         89.2968         37.4013 
        0.72409         88.1846          36.677 
       0.730186         88.0028         35.9763 
       0.736317          86.856         35.2902 
       0.742472         85.2463         34.6196 
       0.748622         84.0662         33.9672 
        0.75476         84.1974          33.333 
       0.760888         83.1648         32.7161 
       0.767043          81.565         32.1125 
       0.773185          80.532         31.5254 
       0.779291         79.8541         30.9564 
       0.785407         79.3239         30.4007 
       0.791564         78.5455         29.8553 
       0.797719         77.2312         29.3237 
       0.803834         77.1679         28.8084 
       0.809972         76.3746         28.3038 
       0.816124         75.0238         27.8103 
       0.822261         74.4116         27.3299 
       0.828378          74.113         26.8625 
       0.834502         73.4085         26.4056 
       0.840667         72.7883         25.9565 
       0.846816          71.841         25.5192 
       0.852925         71.1616         25.0948 
       0.859047         70.6115         24.6791 
       0.865192         69.9541         24.2716 
       0.871341         69.3434         23.8731 
       0.877463         68.5735         23.4853 
       0.883569           68.58         23.1072 
       0.889708         67.7998         22.7355 
       0.895864         67.2116         22.3711 
       0.902008         66.3756         22.0155 
       0.908149         65.6186         21.6678 
       0.914301         65.3924         21.3272 
       0.920448         65.3282         20.9942 
       0.926574         63.9136         20.6696 
       0.932687         63.7779         20.3525 
       0.938823           63.37          20.041 
       0.944975         62.6789         19.7354 
       0.951105          62.084         19.4372 
       0.957225         61.8004         19.1458 
       0.963368         61.1832         18.8594 
       0.969511         60.8372         18.5788 
       0.975621         59.9987         18.3056 
       0.981748         59.7497         18.0371 
       0.987916         59.1339         17.7723 
        0.99406         58.9772         17.5139 
        1.00019         58.2932         17.2612 
        1.00632         57.7636         17.0137 
        1.01246         57.5215         16.7707 
        1.01859         57.1468         16.5329 
        1.02471         56.7714            16.3 
        1.03085         56.1737         16.0709 
        1.03698         55.8155         15.8466 
        1.04314         55.4129         15.6256 
        1.04929         55.1076         15.4095 
        1.05541         54.5766         15.1982 
        1.06154         54.1799         14.9905 
        1.06769         53.8096         14.7863 
        1.07382         53.3688         14.5866 
        1.07993         53.1802         14.3911 
        1.08607          52.736         14.1983 
        1.09222         52.4571         14.0089 
        1.09836         52.0468         13.8232 
        1.10449         51.7038         13.6411 
        1.11063         51.3368         13.4621 
        1.11677         51.1992         13.2863 
         1.1229         50.5757         13.1141 
        1.12903         50.3684         12.9447 
        1.13518         49.9834         12.7782 
        1.14131         49.6977         12.6147 
        1.14745         49.5094         12.4542 
        1.15359         48.8596         12.2965 
        1.15973          48.829         12.1415 
        1.16584         48.4941         11.9898 
        1.17197         48.1371         11.8405 
        1.17811         47.8019         11.6933 
        1.18424         47.2905          11.549 
        1.19038           47.14         11.4068 
        1.19652         46.9736         11.2671 
        1.20267         46.5338         11.1296 
        1.20881         46.2334         10.9946 
        1.21495         45.9915         10.8619 
        1.22108           45.91         10.7315 
         1.2272         45.4642         10.6036 
        1.23334         45.3139         10.4774 
        1.23949         44.8952          10.353 
        1.24562         44.6064          10.231 
        1.25174         44.5074         10.1111 
        1.25789         44.2196         9.99284 
        1.26402         43.8848         9.87665 
        1.27014         43.6825          9.7626 
        1.27628          43.409         9.65001 
        1.28244         43.3942         9.53898 
        1.28858          42.974         9.42986 
        1.29471         42.6016         9.32268 
        1.30084         42.3105         9.21727 
        1.30697         42.2455         9.11334 
        1.31312          42.049         9.01086 
        1.31925         41.6561         8.91028 
        1.32537         41.4482         8.81134 
        1.33151         41.2673         8.71355 
        1.33765         41.0601          8.6173 
        1.34378         40.7834         8.52271 
        1.34992         40.5819         8.42947 
        1.35606         40.2698         8.33742 
         1.3622         40.1711         8.24692 
        1.36833         39.9709         8.15799 
        1.37445         39.6239         8.07041 
        1.38059         39.4336         7.98385 
        1.38675         39.2472         7.89837 
        1.39288         39.0823         7.81447 
        1.39901         38.7855         7.73184 
        1.40515         38.5912         7.65022 
         1.4113         38.4975         7.56981 
        1.41742         38.2315         7.49087 
        1.42355         38.0576         7.41291 
         1.4297         37.9153         7.33583 
        1.43585         37.7608         7.25987 
        1.44198         37.4187         7.18529 
        1.44809         37.1727         7.11189 
        1.45423         37.1384         7.03926 
        1.46036         36.9642         6.96777 
        1.46649         36.6578         6.89725 
        1.47263         36.4753         6.82766 
        1.47877         36.2882         6.75905 
        1.48491         36.0189         6.69128 
        1.49104          35.986         6.62459 
        1.49718         35.7701         6.55876 
        1.50333         35.6351         6.49371 
        1.50947         35.3791         6.42968 
         1.5156         35.2941         6.36661 
        1.52172         35.0265         6.30439 
        1.52787         34.9647         6.24288 
          1.534         34.6582         6.18226 
        1.54013         34.6719         6.12251 
        1.54627         34.3482         6.06344 
        1.55241         34.2751         6.00515 
        1.55855         34.0612          5.9477 
        1.56467         33.7498         5.89116 
         1.5708         33.8295         5.83521 
        1.57695          33.577         5.77989 
        1.58308         33.4022         5.72542 
        1.58922         33.2242         5.67162 
        1.59535         33.2057         5.61853 
         1.6015         33.0631         5.56605 
        1.60764         32.8251         5.51426 
        1.61376         32.6402         5.46327 
        1.61989         32.4282         5.41289 
        1.62604         32.2985         5.36304 
        1.63218         32.0482         5.31384 
        1.63831         32.0254         5.26537 
        1.64444         31.8916         5.21749 
        1.65059         31.6924          5.1701 
        1.65673         31.5871         5.12335 
        1.66285         31.4526          5.0773 
        1.66898         31.2983         5.03181 
        1.67512         31.0438         4.98679 
        1.68127         31.0417         4.94227 
         1.6874         30.9229          4.8984 
        1.69353         30.7029          4.8551 
        1.69967         30.5871         4.81221 
        1.70581         30.4656         4.76986 
        1.71193           30.27         4.72818 
        1.71806         30.2005         4.68691 
        1.72421          29.986         4.64605 
        1.73035         29.9561         4.60573 
        1.73649         29.7603         4.56589 
        1.74262         29.5874         4.52655 
        1.74876         29.6262         4.48766 
        1.75489         29.3598          4.4493 
        1.76101         29.3372          4.4114 
        1.76715         29.0784         4.37389 
        1.77329         28.9405         4.33677 
        1.77943          28.916         4.30006 
        1.78557         28.7811         4.26384 
        1.79171         28.6136         4.22802 
        1.79785         28.5152         4.19262 
        1.80399         28.3475         4.15762 
        1.81012         28.2261         4.12307 
        1.81625         28.1019         4.08893 
        1.82239         27.9584         4.05513 
        1.82853         27.8928         4.02172 
        1.83466         27.7016         3.98873 
        1.84078         27.6084         3.95614 
        1.84692         27.4816         3.92386 
        1.85306         27.3722          3.8919 
         1.8592         27.1979         3.86035 
        1.86533          27.147         3.82917 
        1.87147         27.0055         3.79829 
        1.87761          26.945         3.76774 
        1.88375         26.7909         3.73757 
        1.88988         26.6089         3.70775 
        1.89601         26.5729         3.67825 
        1.90215         26.4515         3.64905 
        1.90829          26.316         3.62017 
        1.91442         26.2147         3.59161 
        1.92056         26.1064         3.56338 
         1.9267         26.0256         3.53542 
        1.93284         25.9583         3.50775 
        1.93897         25.8026         3.48043 
        1.94509         25.7238         3.45346 
        1.95123         25.5724          3.4267 
        1.95737         25.5157         3.40021 
        1.96349         25.4266         3.37407 
        1.96964          25.291         3.34813 
        1.97578         25.1595         3.32245 
        1.98192         25.0519         3.29709 
        1.98805         24.9197         3.27199 
        1.99419         24.8314         3.24715 
        2.00033         24.7375         3.22256 
        2.00647         24.6428         3.19823 
         2.0126         24.5391         3.17419 
        2.01874         24.4628         3.15036 
        2.02488         24.3003         3.12676 
        2.03101         24.2518         3.10344 
        2.03714         24.1587         3.08038 
        2.04328         24.0604         3.05753 
        2.04941         23.8777         3.03493 
        2.05554         23.8415         3.01257 
        2.06167         23.7273         2.99041 
        2.06781         23.6283         2.96847 
        2.07396          23.542         2.94672 
        2.08009         23.4165         2.92522 
        2.08622         23.3587         2.90397 
        2.09237         23.2551         2.88288 
        2.09851          23.187           2.862 
        2.10464         23.0992         2.84136 
        2.11077         23.0078         2.82095 
        2.11691         22.8572         2.80069 
        2.12305         22.7858         2.78063 
        2.12918         22.7377         2.76082 
        2.13531         22.5358          2.7412 
        2.14145         22.5328         2.72172 
         2.1476         22.4235         2.70241 
        2.15372         22.3722         2.68339 
        2.15985         22.2418         2.66453 
        2.16599         22.1191         2.64579 
        2.17213         22.1413         2.62726 
        2.17827         21.9955         2.60891 
         2.1844         21.8865         2.59075 
        2.19054         21.8272         2.57275 
        2.19666          21.711         2.55496 
         2.2028         21.6433         2.53731 
        2.20893         21.5851         2.51983 
        2.21508         21.5028         2.50249 
        2.22122         21.4083          2.4853 
        2.22736         21.3107         2.46832 
        2.23349         21.2827         2.45149 
        2.23962         21.1688         2.43482 
        2.24577         21.0898         2.41828 
         2.2519         20.9758         2.40193 
        2.25802         20.8729         2.38574 
        2.26417         20.7703         2.36967 
        2.27031          20.701         2.35373 
        2.27644         20.6631         2.33798 
        2.28257         20.6028         2.32237 
        2.28872         20.4729         2.30688 
        2.29486         20.4304         2.29153 
        2.30099         20.3533         2.27635 
        2.30712         20.2779         2.26131 
        2.31326         20.1689         2.24637 
         2.3194         20.0921         2.23158 
        2.32553         20.0447         2.21695 
        2.33166         19.9527         2.20245 
         2.3378         19.8669         2.18806 
        2.34394         19.8205          2.1738 
        2.35007         19.7178         2.15969 
        2.35619         19.6471         2.14571 
        2.36233         19.5788         2.13183 
        2.36848         19.5287         2.11804 
        2.37462         19.4655         2.10441 
        2.38075         19.3527          2.0909 
        2.38689          19.303          2.0775 
        2.39303          19.192         2.06423 
        2.39916         19.1307         2.05108 
        2.40529         19.0526         2.03805 
        2.41143         19.0227         2.02512 
        2.41757         18.8963          2.0123 
         2.4237         18.8338         1.99961 
        2.42983         18.7342         1.98704 
        2.43598         18.6974         1.97453 
        2.44211         18.6111         1.96216 
        2.44823         18.5352         1.94992 
        2.45437         18.4932         1.93775 
        2.46052          18.406         1.92568 
        2.46665         18.3734         1.91373 
        2.47279         18.2491         1.90188 
        2.47892         18.2559         1.89013 
        2.48507         18.1319         1.87846 
         2.4912         18.0733         1.86692 
