# k  (h/Mpc)    Pcb(k)  (Mpc/h)^3    Pcb_linear(k)  (Mpc/h)^3
     0.00783031         151.873         153.217 
       0.013688         177.362         178.673 
       0.019231         172.211         172.631 
      0.0249154         152.734         152.745 
      0.0312784         126.727         126.587 
      0.0375637         104.237         104.129 
      0.0433917         88.9639         88.7206 
      0.0492413         78.3206         78.2221 
      0.0555754         70.9885         70.8098 
      0.0619321         65.2518         65.3949 
       0.067871         60.5759          60.586 
      0.0738098         55.2123         55.2169 
      0.0800417         49.0152         48.9551 
      0.0862327         42.7002         42.6638 
      0.0921407         37.3028         37.2635 
      0.0982031         32.9092         32.8075 
       0.104506         29.4913         29.4812 
       0.110769         27.3108         27.3009 
       0.116806         25.9328         25.8836 
       0.122832         24.7103         24.7234 
       0.129052         23.4567         23.4385 
       0.135211         21.9342         21.8978 
       0.141259         20.1543         20.1451 
       0.147318         18.2979         18.3095 
       0.153489         16.5856         16.5625 
       0.159709         15.1259         15.0884 
       0.165845         13.9691         13.9803 
       0.171974         13.2319         13.1864 
       0.178125         12.6369         12.6084 
       0.184229          12.137          12.132 
        0.19034         11.6811         11.6465 
       0.196428         11.1138         11.0922 
       0.202534         10.4413         10.4565 
       0.208729         9.78729         9.76686 
       0.214876         9.13814          9.0965 
       0.220989         8.50737         8.49684 
       0.227147         8.03541          7.9917 
        0.23329         7.63478         7.58986 
       0.239377          7.3175          7.2729 
       0.245482         7.04672          7.0043 
       0.251667         6.77031         6.74846 
       0.257832         6.52516         6.48453 
       0.263955         6.23013         6.20362 
       0.270079         5.93377         5.90765 
        0.27624          5.6247         5.60869 
       0.282372         5.34501         5.32614 
        0.28843         5.11107         5.07382 
       0.294538         4.88589         4.85213 
       0.300721         4.67909         4.65892 
        0.30691          4.5247         4.48968 
       0.313033         4.36696         4.33587 
       0.319153         4.23551         4.18719 
       0.325316          4.0582         4.03652 
        0.33145         3.90595         3.88458 
       0.337538         3.75974          3.7335 
       0.343633         3.61966          3.5862 
       0.349808         3.47293           3.445 
       0.355968         3.34068         3.31508 
       0.362074         3.23065          3.1979 
       0.368217          3.1212         3.09038 
       0.374374         3.03037          2.9908 
       0.380519         2.92603         2.89654 
       0.386598         2.83112          2.8062 
       0.392688         2.73863          2.7173 
        0.39888         2.65438         2.62815 
       0.405048         2.56948         2.54148 
       0.411186         2.48444         2.45826 
       0.417313         2.40622         2.37913 
       0.423458         2.32564         2.30445 
       0.429607         2.26315         2.23431 
       0.435692         2.19885         2.16895 
       0.441815         2.13312         2.10659 
       0.447964         2.06675         2.04656 
       0.454126         2.01488         1.98831 
       0.460267         1.96219         1.93191 
       0.466387         1.90542         1.87727 
        0.47254           1.854         1.82397 
       0.478662         1.80023         1.77282 
       0.484765         1.75324         1.72396 
       0.490885         1.70241         1.67716 
       0.497035          1.6534         1.63221 
       0.503198         1.61506         1.58913 
       0.509342         1.56958         1.54794 
       0.515458         1.53322         1.50843 
       0.521598         1.49529         1.47001 
       0.527764         1.46152          1.4326 
       0.533884         1.41841         1.39662 
           0.54         1.38568         1.36183 
       0.546137         1.34924         1.32808 
       0.552299         1.31807         1.29537 
       0.558452         1.28658         1.26389 
       0.564573          1.2566         1.23372 
       0.570708         1.22739         1.20457 
       0.576825         1.19977          1.1765 
       0.582926         1.16982         1.14939 
       0.589034         1.14704         1.12307 
       0.595184         1.12251         1.09737 
       0.601379         1.09497         1.07227 
       0.607522         1.06942         1.04815 
       0.613639         1.04402         1.02487 
       0.619772         1.02425         1.00225 
       0.625918         1.00204        0.980281 
       0.632068        0.980542        0.958977 
       0.638161        0.959441        0.938518 
         0.6443        0.938875        0.918528 
       0.650464        0.920227         0.89906 
       0.656582        0.902517          0.8803 
       0.662703         0.88326        0.862066 
       0.668861        0.862531        0.844236 
       0.675024        0.846309         0.82689 
       0.681124        0.834033        0.810203 
       0.687237        0.814776        0.793945 
       0.693381        0.796178        0.778063 
       0.699536        0.784116        0.762597 
       0.705665        0.768841        0.747627 
       0.711789        0.751361        0.733079 
       0.717957        0.738145        0.718824 
        0.72409        0.723898        0.705031 
       0.730186        0.712607        0.691683 
       0.736317        0.696975        0.678609 
       0.742472        0.685826        0.665824 
       0.748622         0.67355         0.65338 
        0.75476        0.659741        0.641283 
       0.760888        0.649623        0.629511 
       0.767043         0.63325        0.617991 
       0.773185        0.624422        0.606786 
       0.779291         0.61568        0.595925 
       0.785407        0.603812        0.585317 
       0.791564        0.592585        0.574903 
       0.797719         0.58241        0.564749 
       0.803834        0.572118        0.554907 
       0.809972        0.562861        0.545265 
       0.816124         0.55287        0.535833 
       0.822261        0.544234         0.52665 
       0.828378        0.534495         0.51771 
       0.834502        0.525679        0.508972 
       0.840667        0.517793        0.500379 
       0.846816        0.509017         0.49201 
       0.852925        0.499793        0.483886 
       0.859047        0.491939        0.475929 
       0.865192        0.484393        0.468126 
       0.871341        0.477359        0.460493 
       0.877463        0.468354        0.453065 
       0.883569        0.461347        0.445821 
       0.889708         0.45472        0.438699 
       0.895864        0.447714        0.431715 
       0.902008        0.440009        0.424898 
       0.908149        0.433966        0.418234 
       0.914301        0.428158        0.411701 
       0.920448        0.421554        0.405316 
       0.926574        0.415896        0.399088 
       0.932687        0.409425        0.393005 
       0.938823        0.402072        0.387027 
       0.944975        0.396705        0.381161 
       0.951105        0.389928        0.375438 
       0.957225        0.384228        0.369842 
       0.963368        0.379596        0.364343 
       0.969511        0.374614        0.358955 
       0.975621        0.368156        0.353706 
       0.981748        0.362007        0.348549 
       0.987916        0.357409        0.343463 
        0.99406        0.353155        0.338497 
        1.00019        0.347707        0.333641 
        1.00632        0.343899        0.328884 
        1.01246        0.338928        0.324213 
        1.01859         0.33416        0.319641 
        1.02471         0.32883        0.315164 
        1.03085        0.323942        0.310757 
        1.03698        0.320395        0.306443 
        1.04314        0.315917        0.302194 
        1.04929        0.312514        0.298036 
        1.05541        0.307071        0.293972 
        1.06154        0.303615        0.289975 
        1.06769        0.299847        0.286046 
        1.07382         0.29586        0.282203 
        1.07993        0.292164        0.278439 
        1.08607        0.288036        0.274729 
        1.09222        0.284271        0.271083 
        1.09836        0.280804        0.267507 
        1.10449        0.276803        0.264001 
        1.11063        0.273279        0.260553 
        1.11677        0.270492        0.257169 
         1.1229        0.266272         0.25385 
        1.12903        0.263459        0.250587 
        1.13518        0.259945        0.247379 
        1.14131        0.256932        0.244229 
        1.14745        0.254706        0.241135 
        1.15359        0.250752        0.238095 
        1.15973        0.248133        0.235106 
        1.16584        0.244716        0.232182 
        1.17197        0.241393        0.229304 
        1.17811         0.23849        0.226465 
        1.18424         0.23574        0.223683 
        1.19038        0.232543         0.22094 
        1.19652        0.230703        0.218244 
        1.20267        0.227919        0.215593 
        1.20881        0.224314        0.212987 
        1.21495          0.2221        0.210428 
        1.22108        0.219784        0.207912 
         1.2272        0.216805        0.205443 
        1.23334        0.214426        0.203008 
        1.23949        0.212452        0.200608 
        1.24562        0.209813        0.198253 
        1.25174        0.207635        0.195939 
        1.25789        0.204472        0.193655 
        1.26402         0.20293        0.191412 
        1.27014        0.200005         0.18921 
        1.27628        0.198255        0.187036 
        1.28244        0.196071        0.184892 
        1.28858        0.193526        0.182785 
        1.29471        0.191616        0.180715 
        1.30084        0.189398        0.178679 
        1.30697        0.187821        0.176671 
        1.31312        0.185716        0.174692 
        1.31925        0.183589        0.172749 
        1.32537        0.181615        0.170837 
        1.33151         0.17966        0.168948 
        1.33765        0.177556        0.167089 
        1.34378         0.17552        0.165261 
        1.34992        0.174293        0.163459 
        1.35606         0.17209         0.16168 
         1.3622          0.1704        0.159931 
        1.36833        0.168933        0.158212 
        1.37445        0.167207        0.156519 
        1.38059        0.165346        0.154846 
        1.38675         0.16332        0.153193 
        1.39288        0.161403        0.151571 
        1.39901        0.160378        0.149973 
        1.40515        0.158546        0.148394 
         1.4113        0.157196        0.146839 
        1.41742        0.155663        0.145312 
        1.42355        0.153398        0.143804 
         1.4297        0.152535        0.142313 
        1.43585        0.150735        0.140844 
        1.44198        0.149394        0.139401 
        1.44809        0.147818        0.137981 
        1.45423        0.146332        0.136576 
        1.46036        0.144922        0.135192 
        1.46649        0.143491        0.133828 
        1.47263        0.141691        0.132481 
        1.47877        0.141146        0.131153 
        1.48491        0.139091        0.129842 
        1.49104        0.138501        0.128551 
        1.49718        0.136798        0.127276 
        1.50333        0.135601        0.126017 
        1.50947        0.134397        0.124778 
         1.5156        0.133046        0.123557 
        1.52172        0.131868        0.122353 
        1.52787        0.130284        0.121162 
          1.534        0.129382        0.119988 
        1.54013        0.128018        0.118832 
        1.54627        0.127069        0.117688 
        1.55241        0.125824        0.116559 
        1.55855        0.124684        0.115447 
        1.56467        0.123615        0.114352 
         1.5708         0.12245        0.113269 
        1.57695        0.121337        0.112197 
        1.58308        0.119882        0.111143 
        1.58922        0.119155        0.110101 
        1.59535        0.117923        0.109072 
         1.6015        0.117088        0.108056 
        1.60764         0.11582        0.107053 
        1.61376        0.114883        0.106065 
        1.61989        0.113799        0.105089 
        1.62604        0.112876        0.104123 
        1.63218        0.111953         0.10317 
        1.63831        0.110887         0.10223 
        1.64444        0.109971        0.101303 
        1.65059        0.108784        0.100384 
        1.65673        0.108019       0.0994782 
        1.66285        0.107269       0.0985858 
        1.66898        0.106104       0.0977041 
        1.67512        0.105217       0.0968314 
        1.68127        0.104309       0.0959687 
         1.6874        0.103549       0.0951183 
        1.69353        0.102632       0.0942788 
        1.69967        0.101504       0.0934474 
        1.70581        0.101063       0.0926264 
        1.71193        0.100234       0.0918184 
        1.71806       0.0992221       0.0910183 
        1.72421       0.0983271       0.0902261 
        1.73035       0.0975957       0.0894443 
        1.73649       0.0968139       0.0886719 
        1.74262       0.0959867       0.0879093 
        1.74876       0.0954026       0.0871551 
        1.75489       0.0944615       0.0864113 
        1.76101       0.0937502       0.0856764 
        1.76715       0.0930263       0.0849491 
        1.77329       0.0921267       0.0842293 
        1.77943       0.0913696       0.0835175 
        1.78557       0.0908824       0.0828151 
        1.79171       0.0901105       0.0821205 
        1.79785       0.0892401       0.0814338 
        1.80399       0.0884521       0.0807552 
        1.81012       0.0879435       0.0800851 
        1.81625       0.0872722        0.079423 
        1.82239       0.0867019       0.0787673 
        1.82853       0.0858404       0.0781194 
        1.83466        0.085199       0.0774793 
        1.84078       0.0845389       0.0768472 
        1.84692       0.0839127        0.076221 
        1.85306       0.0832716        0.075601 
         1.8592       0.0826986       0.0749889 
        1.86533       0.0820824       0.0743839 
        1.87147       0.0813737       0.0737849 
        1.87761       0.0806935       0.0731922 
        1.88375       0.0799911       0.0726067 
        1.88988       0.0795293       0.0720282 
        1.89601        0.078798       0.0714557 
        1.90215       0.0782337       0.0708889 
        1.90829       0.0775646       0.0703286 
        1.91442       0.0771776       0.0697743 
        1.92056       0.0766099       0.0692264 
         1.9267       0.0760002       0.0686839 
        1.93284       0.0753042       0.0681469 
        1.93897       0.0747685       0.0676166 
        1.94509       0.0742823        0.067093 
        1.95123       0.0737479       0.0665737 
        1.95737       0.0733012       0.0660596 
        1.96349       0.0727768       0.0655521 
        1.96964       0.0721188       0.0650486 
        1.97578       0.0716835       0.0645501 
        1.98192       0.0711768       0.0640578 
        1.98805        0.070702       0.0635706 
        1.99419       0.0702245       0.0630884 
        2.00033       0.0695949        0.062611 
        2.00647       0.0691505       0.0621387 
         2.0126       0.0687734        0.061672 
        2.01874       0.0681779       0.0612094 
        2.02488       0.0676921       0.0607512 
        2.03101       0.0672096       0.0602984 
        2.03714       0.0670014       0.0598507 
        2.04328       0.0661888       0.0594071 
        2.04941       0.0659104       0.0589683 
        2.05554       0.0654766       0.0585342 
        2.06167       0.0649389        0.058104 
        2.06781       0.0644443        0.057678 
        2.07396        0.064003       0.0572556 
        2.08009       0.0636101       0.0568382 
        2.08622       0.0632523       0.0564255 
        2.09237       0.0627493        0.056016 
        2.09851       0.0623351       0.0556105 
        2.10464       0.0619316       0.0552097 
        2.11077       0.0614613       0.0548134 
        2.11691       0.0611705         0.05442 
        2.12305       0.0605447       0.0540305 
        2.12918        0.060204       0.0536457 
        2.13531       0.0598451       0.0532646 
        2.14145       0.0594504       0.0528864 
         2.1476       0.0591144       0.0525114 
        2.15372       0.0587023       0.0521419 
        2.15985       0.0582938       0.0517755 
        2.16599       0.0578067       0.0514117 
        2.17213       0.0575839       0.0510517 
        2.17827       0.0571806       0.0506952 
         2.1844         0.05676       0.0503425 
        2.19054       0.0564501        0.049993 
        2.19666       0.0560978       0.0496473 
         2.2028       0.0555642       0.0493045 
        2.20893       0.0553801       0.0489649 
        2.21508       0.0549316        0.048628 
        2.22122       0.0545586       0.0482942 
        2.22736       0.0542575       0.0479642 
        2.23349       0.0539261       0.0476374 
        2.23962       0.0536303       0.0473134 
        2.24577       0.0532815       0.0469922 
         2.2519       0.0528839       0.0466744 
        2.25802       0.0526158       0.0463601 
        2.26417       0.0522943       0.0460477 
        2.27031       0.0519158        0.045738 
        2.27644       0.0517373       0.0454319 
        2.28257       0.0512911       0.0451288 
        2.28872       0.0509798       0.0448277 
        2.29486       0.0507323       0.0445296 
        2.30099       0.0503486       0.0442347 
        2.30712       0.0501392       0.0439423 
        2.31326       0.0496939       0.0436521 
         2.3194       0.0494548       0.0433647 
        2.32553       0.0491882       0.0430803 
        2.33166       0.0488061       0.0427986 
         2.3378       0.0485271       0.0425191 
        2.34394       0.0482758       0.0422419 
        2.35007       0.0479926       0.0419676 
        2.35619       0.0478319       0.0416961 
        2.36233       0.0474031       0.0414263 
        2.36848       0.0471158       0.0411584 
        2.37462       0.0469081       0.0408934 
        2.38075       0.0466218       0.0406309 
        2.38689       0.0463701       0.0403706 
        2.39303       0.0461319       0.0401126 
        2.39916       0.0457414        0.039857 
        2.40529       0.0454913       0.0396038 
        2.41143       0.0451778       0.0393525 
        2.41757       0.0449824       0.0391034 
         2.4237       0.0447151       0.0388568 
        2.42983       0.0444608       0.0386124 
        2.43598       0.0441851       0.0383694 
        2.44211       0.0438887       0.0381289 
        2.44823       0.0437094        0.037891 
        2.45437       0.0434419       0.0376545 
        2.46052       0.0432043       0.0374199 
        2.46665       0.0429404       0.0371876 
        2.47279       0.0427432       0.0369573 
        2.47892       0.0425581       0.0367289 
        2.48507       0.0422256       0.0365022 
         2.4912       0.0420372       0.0362778 
