# k  (h/Mpc)    P(k)  (Mpc/h)^3    P_linear(k)  (Mpc/h)^3
     0.00783031         2663.05         2685.28 
       0.013688         3415.45         3467.33 
       0.019231         3609.33         3636.56 
      0.0249154         3474.65         3474.82 
      0.0312784         3100.22         3111.72 
      0.0375637         2707.72          2725.9 
      0.0433917         2421.09         2421.58 
      0.0492413         2179.12         2189.98 
      0.0555754         2012.42         2011.49 
      0.0619321         1848.62            1878 
       0.067871         1753.38         1765.57 
      0.0738098         1637.65         1645.61 
      0.0800417         1502.11         1504.85 
      0.0862327         1349.41          1356.2 
      0.0921407         1213.74         1218.69 
      0.0982031         1097.73         1094.47 
       0.104506         985.902         991.455 
       0.110769         913.249           916.3 
       0.116806         871.177         864.494 
       0.122832         823.289         824.904 
       0.129052           789.3         787.865 
       0.135211         755.085         748.223 
       0.141259         705.467          703.61 
       0.147318          651.17         654.335 
       0.153489         605.843         603.206 
       0.159709         564.891          555.32 
       0.165845          516.69         515.096 
       0.171974         496.505         483.256 
       0.178125         472.898         458.973 
       0.184229         447.497         440.302 
        0.19034         436.174         424.229 
       0.196428         420.409         408.288 
       0.202534         395.923         390.759 
       0.208729         383.008         371.015 
       0.214876         365.701         350.221 
       0.220989         339.461         329.714 
       0.227147          328.26         310.629 
        0.23329         313.608         294.115 
       0.239377         302.782         280.536 
       0.245482         288.643         269.364 
       0.251667         277.098         259.772 
       0.257832         273.013         251.023 
       0.263955         259.458         242.358 
       0.270079         250.333         233.258 
        0.27624         239.198         223.624 
       0.282372         231.151         213.807 
        0.28843         227.247         204.317 
       0.294538          216.51         195.369 
       0.300721         207.023         187.235 
        0.30691         203.063           180.1 
       0.313033         195.031          173.91 
       0.319153          191.73         168.347 
       0.325316         184.494         163.081 
        0.33145         179.063         157.936 
       0.337538         173.688         152.785 
       0.343633         168.551         147.564 
       0.349808          163.18         142.291 
       0.355968         158.526         137.167 
       0.362074         155.286         132.361 
       0.368217         151.296         127.873 
       0.374374         147.945         123.757 
       0.380519         141.728         119.987 
       0.386598          138.45         116.516 
       0.392688         134.739         113.214 
        0.39888         132.288         109.948 
       0.405048         129.371         106.745 
       0.411186         126.636         103.596 
       0.417313         123.318         100.503 
       0.423458         120.109         97.4933 
       0.429607          117.99         94.6098 
       0.435692          115.97         91.9029 
       0.441815         112.135         89.3385 
       0.447964         108.977         86.9137 
       0.454126         107.034          84.607 
       0.460267         106.219         82.4054 
       0.466387         103.585         80.2848 
        0.47254         102.335         78.2057 
       0.478662         98.9463         76.1821 
       0.484765         97.3135         74.2162 
       0.490885          94.865         72.3035 
       0.497035         94.0388         70.4472 
       0.503198         91.7281         68.6609 
       0.509342         89.4833         66.9586 
       0.515458         88.5019         65.3378 
       0.521598         86.4005         63.7752 
       0.527764         85.4093         62.2622 
       0.533884         84.2822         60.8093 
           0.54         82.3012         59.4005 
       0.546137         80.1365         58.0247 
       0.552299         78.9582         56.6793 
       0.558452         77.4749         55.3746 
       0.564573         77.1011         54.1174 
       0.570708         74.8376         52.8999 
       0.576825         74.0887         51.7276 
       0.582926         73.1301         50.5977 
       0.589034         71.8334         49.5034 
       0.595184         70.9102          48.437 
       0.601379         69.0746         47.3962 
       0.607522         68.1707         46.3942 
       0.613639         67.4196         45.4238 
       0.619772         66.2543         44.4766 
       0.625918         65.2222         43.5531 
       0.632068         64.5898          42.655 
       0.638161          63.349         41.7909 
         0.6443         62.7111         40.9463 
       0.650464         61.3379         40.1237 
       0.656582         61.0399         39.3307 
       0.662703         60.3412         38.5597 
       0.668861         58.9076         37.8052 
       0.675024         58.5656         37.0702 
       0.681124         57.8939         36.3622 
       0.687237         56.7487         35.6712 
       0.693381         56.0671         34.9951 
       0.699536         55.6907         34.3355 
       0.705665         54.7318          33.696 
       0.711789         53.9187         33.0737 
       0.717957         53.0831          32.463 
        0.72409         52.6137         31.8715 
       0.730186         52.3465         31.2986 
       0.736317         51.3929         30.7368 
       0.742472         50.8197          30.187 
       0.748622         50.0739         29.6514 
        0.75476         49.1445         29.1302 
       0.760888         49.0685         28.6224 
       0.767043         48.2263         28.1249 
       0.773185         47.8217         27.6405 
       0.779291         47.2414         27.1703 
       0.785407         46.5326         26.7106 
       0.791564         46.4831         26.2587 
       0.797719         45.6668         25.8176 
       0.803834         45.3325         25.3896 
       0.809972         44.6771         24.9699 
       0.816124         44.2507         24.5589 
       0.822261         43.7707         24.1584 
       0.828378         43.4608         23.7681 
       0.834502         43.0041         23.3862 
       0.840667         42.6205         23.0104 
       0.846816         41.8315          22.644 
       0.852925         41.7431         22.2879 
       0.859047         41.3945         21.9389 
       0.865192         40.7891         21.5963 
       0.871341         40.3414         21.2609 
       0.877463         40.0155         20.9343 
       0.883569         39.8429         20.6154 
       0.889708         39.3412         20.3016 
       0.895864         38.8861         19.9936 
       0.902008         38.4658         19.6927 
       0.908149         38.1659         19.3983 
       0.914301         37.9378         19.1095 
       0.920448         37.4942         18.8269 
       0.926574         37.0328         18.5511 
       0.932687         36.7519         18.2815 
       0.938823         36.3401         18.0163 
       0.944975         36.0587         17.7559 
       0.951105         35.7578         17.5015 
       0.957225         35.5702         17.2527 
       0.963368         35.1058         17.0079 
       0.969511         34.8276         16.7679 
       0.975621         34.5344         16.5339 
       0.981748         34.1672         16.3039 
       0.987916          33.977         16.0767 
        0.99406         33.5875         15.8549 
        1.00019         33.3848         15.6377 
        1.00632         33.1216         15.4248 
        1.01246         32.8726         15.2156 
        1.01859         32.5173         15.0106 
        1.02471         32.2491         14.8098 
        1.03085         32.1446         14.6119 
        1.03698         31.8719         14.4181 
        1.04314         31.5626         14.2271 
        1.04929         31.2392           14.04 
        1.05541         31.1372          13.857 
        1.06154         30.9437         13.6769 
        1.06769         30.5536         13.4998 
        1.07382         30.3206         13.3264 
        1.07993         30.0613         13.1565 
        1.08607         29.9085         12.9888 
        1.09222         29.6575          12.824 
        1.09836         29.4212         12.6622 
        1.10449         29.2582         12.5035 
        1.11063         29.0413         12.3473 
        1.11677         28.9681         12.1939 
         1.1229         28.6654         12.0433 
        1.12903         28.4685         11.8953 
        1.13518         28.2703         11.7496 
        1.14131          28.088         11.6064 
        1.14745         27.7482         11.4657 
        1.15359         27.5416         11.3274 
        1.15973         27.3601         11.1913 
        1.16584         27.1784         11.0581 
        1.17197         26.9177         10.9269 
        1.17811          26.793         10.7974 
        1.18424         26.5754         10.6704 
        1.19038         26.4692         10.5452 
        1.19652         26.2363          10.422 
        1.20267         26.1069         10.3008 
        1.20881         25.8901         10.1815 
        1.21495         25.7199         10.0644 
        1.22108         25.6798         9.94911 
         1.2272         25.4853         9.83594 
        1.23334         25.3072         9.72429 
        1.23949         25.1166         9.61412 
        1.24562         24.8778         9.50598 
        1.25174         24.7962         9.39969 
        1.25789         24.6551         9.29471 
        1.26402         24.5316         9.19153 
        1.27014         24.3822         9.09019 
        1.27628         24.1294         8.99009 
        1.28244         24.1359         8.89131 
        1.28858          23.867         8.79417 
        1.29471         23.6646          8.6987 
        1.30084         23.5328         8.60475 
        1.30697         23.4741         8.51205 
        1.31312         23.2575          8.4206 
        1.31925         23.1434         8.33079 
        1.32537         22.9841         8.24239 
        1.33151         22.8519         8.15497 
        1.33765         22.7793         8.06888 
        1.34378         22.6422         7.98421 
        1.34992         22.5043         7.90071 
        1.35606         22.3093         7.81823 
         1.3622           22.15         7.73709 
        1.36833         22.1089          7.6573 
        1.37445         21.9955         7.57869 
        1.38059         21.8566         7.50096 
        1.38675         21.6929         7.42413 
        1.39288          21.551          7.3487 
        1.39901          21.466         7.27436 
        1.40515         21.3437         7.20089 
         1.4113         21.2308         7.12847 
        1.41742         21.1355         7.05733 
        1.42355         20.9596         6.98704 
         1.4297         20.8591         6.91751 
        1.43585         20.7643         6.84895 
        1.44198         20.6845          6.7816 
        1.44809         20.5522         6.71528 
        1.45423         20.4217         6.64961 
        1.46036         20.3219         6.58495 
        1.46649         20.1972         6.52113 
        1.47263         20.1289         6.45812 
        1.47877         20.0304         6.39597 
        1.48491         19.9029         6.33454 
        1.49104          19.786         6.27406 
        1.49718         19.7038         6.21433 
        1.50333         19.6162         6.15529 
        1.50947         19.5217         6.09714 
         1.5156          19.406         6.03983 
        1.52172         19.2917         5.98326 
        1.52787         19.2043         5.92731 
          1.534         19.1398         5.87215 
        1.54013         19.0421         5.81776 
        1.54627         18.9037         5.76396 
        1.55241         18.7876         5.71083 
        1.55855         18.7326         5.65846 
        1.56467         18.6724         5.60689 
         1.5708         18.5881         5.55583 
        1.57695         18.4596         5.50532 
        1.58308         18.3343         5.45557 
        1.58922          18.273          5.4064 
        1.59535         18.1682         5.35786 
         1.6015         18.0399         5.30986 
        1.60764         17.9964         5.26247 
        1.61376         17.9458         5.21579 
        1.61989          17.809         5.16965 
        1.62604         17.7666         5.12396 
        1.63218         17.6765         5.07886 
        1.63831         17.5555         5.03441 
        1.64444         17.4739         4.99048 
        1.65059         17.3881         4.94697 
        1.65673         17.3427         4.90403 
        1.66285           17.22         4.86173 
        1.66898         17.1924         4.81991 
        1.67512         17.1193         4.77851 
        1.68127         16.9768         4.73756 
         1.6874         16.9489         4.69719 
        1.69353         16.8193         4.65731 
        1.69967          16.756         4.61781 
        1.70581         16.7135         4.57878 
        1.71193         16.6071         4.54036 
        1.71806          16.563          4.5023 
        1.72421         16.4681          4.4646 
        1.73035         16.3817         4.42738 
        1.73649         16.3417         4.39059 
        1.74262         16.1988         4.35426 
        1.74876         16.1841         4.31831 
        1.75489         16.1161         4.28285 
        1.76101         16.0196         4.24779 
        1.76715         15.9605         4.21309 
        1.77329         15.8926         4.17873 
        1.77943         15.7876         4.14474 
        1.78557          15.772         4.11119 
        1.79171         15.6683           4.078 
        1.79785         15.6426         4.04517 
        1.80399         15.5247         4.01272 
        1.81012         15.4966         3.98067 
        1.81625         15.3819         3.94898 
        1.82239         15.3283         3.91759 
        1.82853         15.2643         3.88657 
        1.83466           15.17         3.85591 
        1.84078         15.1566         3.82561 
        1.84692         15.1161          3.7956 
        1.85306         15.0391         3.76587 
         1.8592         14.9664         3.73651 
        1.86533         14.8736         3.70748 
        1.87147         14.8216         3.67873 
        1.87761         14.7542         3.65027 
        1.88375         14.7106         3.62215 
        1.88988         14.6096         3.59436 
        1.89601         14.5862         3.56684 
        1.90215         14.4963         3.53959 
        1.90829         14.4332         3.51265 
        1.91442         14.3672         3.48598 
        1.92056         14.3785         3.45961 
         1.9267         14.2836          3.4335 
        1.93284         14.2637         3.40764 
        1.93897         14.1578         3.38209 
        1.94509         14.1157         3.35687 
        1.95123         14.0668         3.33184 
        1.95737         14.0212         3.30705 
        1.96349         13.9124         3.28257 
        1.96964         13.8779         3.25828 
        1.97578          13.849         3.23422 
        1.98192         13.7652         3.21045 
        1.98805         13.7139         3.18692 
        1.99419         13.6653         3.16363 
        2.00033         13.6245         3.14056 
        2.00647         13.5598         3.11773 
         2.0126          13.519         3.09516 
        2.01874         13.4241         3.07279 
        2.02488         13.3923         3.05062 
        2.03101         13.3438          3.0287 
        2.03714         13.2941         3.00703 
        2.04328         13.2124         2.98554 
        2.04941         13.1564         2.96429 
        2.05554         13.1508         2.94325 
        2.06167          13.092          2.9224 
        2.06781         13.0222         2.90174 
        2.07396         13.0152         2.88126 
        2.08009         12.9022         2.86101 
        2.08622         12.9015         2.84098 
        2.09237         12.8576          2.8211 
        2.09851         12.7714         2.80141 
        2.10464         12.7586         2.78194 
        2.11077          12.671         2.76268 
        2.11691         12.6648         2.74357 
        2.12305         12.5863         2.72463 
        2.12918         12.5107         2.70592 
        2.13531         12.5002         2.68738 
        2.14145         12.4446         2.66898 
         2.1476         12.3945         2.65073 
        2.15372         12.3579         2.63274 
        2.15985         12.3163          2.6149 
        2.16599         12.2648         2.59717 
        2.17213          12.249         2.57963 
        2.17827         12.1776         2.56226 
         2.1844          12.144         2.54507 
        2.19054          12.108         2.52802 
        2.19666         12.0612         2.51116 
         2.2028         12.0097         2.49444 
        2.20893         11.9603         2.47786 
        2.21508         11.9251         2.46142 
        2.22122          11.857         2.44512 
        2.22736         11.8354           2.429 
        2.23349         11.7899         2.41303 
        2.23962         11.7575          2.3972 
        2.24577         11.7184          2.3815 
         2.2519          11.682         2.36596 
        2.25802         11.5815         2.35059 
        2.26417         11.5995         2.33531 
        2.27031         11.5389         2.32015 
        2.27644          11.505         2.30517 
        2.28257         11.4277         2.29033 
        2.28872         11.4258         2.27558 
        2.29486         11.3798         2.26098 
        2.30099          11.353         2.24653 
        2.30712         11.2746          2.2322 
        2.31326         11.2238         2.21797 
         2.3194         11.2103         2.20388 
        2.32553         11.1541         2.18993 
        2.33166         11.1196         2.17611 
         2.3378         11.0925         2.16239 
        2.34394         11.0595         2.14879 
        2.35007         11.0068         2.13532 
        2.35619         10.9748         2.12199 
        2.36233         10.9134         2.10873 
        2.36848         10.8942         2.09557 
        2.37462         10.8596         2.08254 
        2.38075         10.8329         2.06964 
        2.38689         10.7988         2.05684 
        2.39303         10.7262         2.04415 
        2.39916         10.7139         2.03158 
        2.40529         10.6784         2.01912 
        2.41143         10.6289         2.00675 
        2.41757         10.5903         1.99448 
         2.4237         10.5682         1.98234 
        2.42983          10.524          1.9703 
        2.43598          10.496         1.95833 
        2.44211         10.4672         1.94648 
        2.44823         10.4168         1.93475 
        2.45437         10.3807         1.92309 
        2.46052         10.3668         1.91152 
        2.46665         10.3253         1.90006 
        2.47279         10.2941          1.8887 
        2.47892         10.2344         1.87743 
        2.48507         10.2146         1.86624 
         2.4912         10.1775         1.85516 
