# k  (h/Mpc)    Pcb(k)  (Mpc/h)^3    Pcb_linear(k)  (Mpc/h)^3
     0.00783031         6474.77         6523.84 
       0.013688          6955.4         7076.81 
       0.019231          6352.8         6404.23 
      0.0249154         5346.12         5313.41 
      0.0312784         4155.53         4149.67 
      0.0375637         3291.74         3301.69 
      0.0433917         2811.21         2799.34 
      0.0492413         2493.13         2494.46 
      0.0555754         2290.44         2279.05 
      0.0619321         2055.16         2083.41 
       0.067871         1867.53         1870.99 
      0.0738098          1636.6         1630.17 
      0.0800417         1394.82         1378.79 
      0.0862327         1178.64         1166.87 
      0.0921407         1032.57         1018.29 
      0.0982031         940.498         919.445 
       0.104506         863.998         858.346 
       0.110769         823.967         816.821 
       0.116806         789.351         775.309 
       0.122832         729.551          721.78 
       0.129052         666.377         654.006 
       0.135211         604.226         582.788 
       0.141259         537.181         519.107 
       0.147318          483.19         468.444 
       0.153489          448.63         432.117 
       0.159709         428.265         408.166 
       0.165845         401.576          391.43 
       0.171974         394.086         375.763 
       0.178125         374.241           357.1 
       0.184229         347.136         334.592 
        0.19034         327.666         309.632 
       0.196428         305.823         285.158 
       0.202534         278.776         263.583 
       0.208729         267.797         246.116 
       0.214876         255.274         233.076 
       0.220989         239.612         223.133 
       0.227147         234.165         214.493 
        0.23329         224.911          205.79 
       0.239377         217.802         196.305 
       0.245482         205.292         185.934 
       0.251667         193.723          175.17 
       0.257832         188.102         164.988 
       0.263955         175.762         156.032 
       0.270079         167.405         148.474 
        0.27624         160.175         142.126 
       0.282372         155.092         136.655 
        0.28843         152.828         131.621 
       0.294538         145.532         126.561 
       0.300721          139.18         121.303 
        0.30691          135.78         115.944 
       0.313033         129.083         110.739 
       0.319153           125.9         105.833 
       0.325316         120.902         101.339 
        0.33145         116.506         97.3424 
       0.337538         112.149         93.7823 
       0.343633         108.662         90.5052 
       0.349808         105.019         87.3433 
       0.355968         102.056          84.262 
       0.362074         99.4877         81.2377 
       0.368217          96.734           78.25 
       0.374374         93.8674         75.3561 
       0.380519         89.7793         72.6165 
       0.386598         87.4632         70.0882 
       0.392688         84.4625         67.7341 
        0.39888         82.9307         65.5015 
       0.405048         80.7185         63.4055 
       0.411186          78.832         61.4061 
       0.417313          76.629         59.4717 
       0.423458          74.457         57.5882 
       0.429607         72.6775         55.7595 
       0.435692         71.5031         54.0165 
       0.441815         68.9664         52.3421 
       0.447964         66.6219         50.7461 
       0.454126         65.3541         49.2277 
       0.460267         64.6352         47.7895 
       0.466387         62.7587          46.421 
        0.47254         61.8854         45.0978 
       0.478662         59.6389          43.825 
       0.484765         58.4768          42.598 
       0.490885          56.861         41.4102 
       0.497035         56.2355         40.2596 
       0.503198         54.9566         39.1511 
       0.509342         53.3934         38.0903 
       0.515458         52.4338         37.0784 
       0.521598         51.0907         36.1034 
       0.527764         50.4063          35.161 
       0.533884         49.7414         34.2583 
           0.54         48.3792         33.3863 
       0.546137          47.042         32.5403 
       0.552299         46.0767         31.7195 
       0.558452         45.1654         30.9281 
       0.564573         44.8091         30.1676 
       0.570708         43.5073         29.4314 
       0.576825         42.9997         28.7227 
       0.582926         42.3506         28.0401 
       0.589034         41.4523         27.3796 
       0.595184         40.8198         26.7365 
       0.601379         39.8208         26.1098 
       0.607522         38.9542         25.5077 
       0.613639         38.5686         24.9266 
       0.619772         37.6926         24.3621 
       0.625918         37.2347         23.8138 
       0.632068         36.6577         23.2824 
       0.638161         35.9167         22.7722 
         0.6443         35.5459         22.2739 
       0.650464         34.6078         21.7891 
       0.656582         34.4395         21.3223 
       0.662703          33.856          20.869 
       0.668861         33.0486         20.4264 
       0.675024         32.7695         19.9961 
       0.681124         32.3933         19.5825 
       0.687237         31.7492         19.1799 
       0.693381         31.2281         18.7866 
       0.699536         30.9216         18.4038 
       0.705665         30.3789         18.0334 
       0.711789         29.8941         17.6736 
       0.717957         29.3623         17.3212 
        0.72409         29.0142         16.9804 
       0.730186         28.8087         16.6509 
       0.736317         28.2441         16.3284 
       0.742472          27.884         16.0133 
       0.748622         27.4263         15.7067 
        0.75476         26.9461         15.4089 
       0.760888           26.86         15.1192 
       0.767043         26.2817         14.8358 
       0.773185         25.9152         14.5603 
       0.779291         25.5887         14.2933 
       0.785407         25.2924         14.0327 
       0.791564         25.1871         13.7769 
       0.797719         24.5689         13.5277 
       0.803834         24.4637         13.2862 
       0.809972         24.0568         13.0498 
       0.816124         23.7815         12.8186 
       0.822261         23.4342         12.5937 
       0.828378         23.2876         12.3748 
       0.834502         22.9913          12.161 
       0.840667         22.7433         11.9508 
       0.846816         22.3653         11.7462 
       0.852925         22.1817         11.5477 
       0.859047         22.0113         11.3534 
       0.865192         21.6593          11.163 
       0.871341         21.4077         10.9768 
       0.877463         21.1315         10.7956 
       0.883569         21.0171         10.6191 
       0.889708         20.7171         10.4456 
       0.895864         20.4636         10.2755 
       0.902008         20.2772         10.1096 
       0.908149         19.9785         9.94745 
       0.914301         19.8023          9.7886 
       0.920448         19.6386         9.63338 
       0.926574         19.4014         9.48207 
       0.932687         19.1573         9.33433 
       0.938823          18.884         9.18922 
       0.944975         18.7449         9.04686 
       0.951105         18.5937         8.90803 
       0.957225         18.4102         8.77234 
       0.963368         18.1851         8.63903 
       0.969511         18.0089         8.50848 
       0.975621          17.872         8.38133 
       0.981748         17.6426         8.25645 
       0.987916         17.5076         8.13333 
        0.99406         17.2792         8.01318 
        1.00019         17.1567          7.8957 
        1.00632         17.0314         7.78068 
        1.01246         16.8146         7.66778 
        1.01859         16.6645          7.5573 
        1.02471         16.5066         7.44913 
        1.03085         16.3916          7.3427 
        1.03698         16.2731         7.23858 
        1.04314         16.0801         7.13603 
        1.04929         15.8591          7.0357 
        1.05541         15.8081         6.93771 
        1.06154         15.6593         6.84134 
        1.06769         15.4503         6.74666 
        1.07382         15.3444         6.65408 
        1.07993         15.2218         6.56345 
        1.08607         15.0722         6.47414 
        1.09222         14.9402          6.3864 
        1.09836         14.7828         6.30038 
        1.10449         14.7225         6.21606 
        1.11063         14.5877         6.13318 
        1.11677         14.5161         6.05185 
         1.1229         14.3418         5.97213 
        1.12903         14.2061         5.89378 
        1.13518         14.1481         5.81677 
        1.14131         14.0223         5.74118 
        1.14745         13.8525         5.66697 
        1.15359         13.6941         5.59406 
        1.15973         13.6511         5.52241 
        1.16584          13.505         5.45233 
        1.17197         13.3676         5.38336 
        1.17811         13.2906         5.31538 
        1.18424         13.1552         5.24876 
        1.19038         13.1113         5.18309 
        1.19652         12.9434         5.11857 
        1.20267         12.9061         5.05515 
        1.20881          12.757         4.99281 
        1.21495         12.6993         4.93162 
        1.22108         12.6145         4.87146 
         1.2272         12.4851         4.81244 
        1.23334         12.4272         4.75427 
        1.23949         12.3155         4.69692 
        1.24562         12.1901         4.64067 
        1.25174         12.1494         4.58543 
        1.25789         12.0641         4.53091 
        1.26402         11.9634         4.47738 
        1.27014         11.8875         4.42484 
        1.27628         11.7771         4.37299 
        1.28244          11.758         4.32186 
        1.28858         11.6185         4.27162 
        1.29471         11.5197         4.22228 
        1.30084           11.43         4.17377 
        1.30697         11.3619         4.12595 
        1.31312         11.2971         4.07881 
        1.31925         11.2212         4.03255 
        1.32537         11.1119         3.98705 
        1.33151         11.0301          3.9421 
        1.33765         11.0095         3.89786 
        1.34378         10.9247         3.85438 
        1.34992         10.8314         3.81154 
        1.35606         10.7296         3.76926 
         1.3622         10.6791         3.72769 
        1.36833          10.632         3.68685 
        1.37445         10.5464         3.64664 
        1.38059         10.4656         3.60691 
        1.38675         10.4306         3.56767 
        1.39288         10.3274         3.52917 
        1.39901         10.2477         3.49126 
        1.40515         10.2082         3.45382 
         1.4113         10.1382         3.41694 
        1.41742         10.0793         3.38073 
        1.42355         9.99742         3.34499 
         1.4297         9.93725         3.30965 
        1.43585         9.87211         3.27483 
        1.44198         9.85503         3.24065 
        1.44809         9.77044         3.20702 
        1.45423         9.69952         3.17374 
        1.46036         9.64256         3.14099 
        1.46649         9.58071         3.10869 
        1.47263         9.52577         3.07682 
        1.47877         9.43795          3.0454 
        1.48491         9.41511         3.01438 
        1.49104         9.35548         2.98384 
        1.49718         9.31364         2.95371 
        1.50333         9.26362         2.92395 
        1.50947         9.18376         2.89465 
         1.5156         9.15138          2.8658 
        1.52172         9.08543         2.83734 
        1.52787         9.06832         2.80921 
          1.534         8.99014         2.78149 
        1.54013         8.94482         2.75418 
        1.54627         8.87111         2.72718 
        1.55241         8.80585         2.70054 
        1.55855         8.77848         2.67429 
        1.56467         8.73068         2.64846 
         1.5708         8.69528          2.6229 
        1.57695         8.63753         2.59763 
        1.58308         8.58582         2.57276 
        1.58922         8.53648          2.5482 
        1.59535         8.49318         2.52396 
         1.6015         8.42729         2.50001 
        1.60764         8.38527         2.47637 
        1.61376         8.34773         2.45311 
        1.61989         8.28565         2.43013 
        1.62604         8.25967         2.40738 
        1.63218         8.20646         2.38495 
        1.63831         8.15994         2.36285 
        1.64444         8.11794         2.34102 
        1.65059         8.06919         2.31941 
        1.65673         8.03057          2.2981 
        1.66285         7.97796         2.27712 
        1.66898         7.94951         2.25639 
        1.67512         7.92982         2.23587 
        1.68127         7.86436          2.2156 
         1.6874         7.85168         2.19562 
        1.69353         7.76567         2.17589 
        1.69967         7.73231         2.15636 
        1.70581         7.70641         2.13708 
        1.71193         7.65182          2.1181 
        1.71806         7.61507         2.09932 
        1.72421         7.57937         2.08072 
        1.73035         7.55267         2.06237 
        1.73649         7.51185         2.04424 
        1.74262         7.47435         2.02635 
        1.74876         7.43686         2.00866 
        1.75489         7.40209         1.99121 
        1.76101         7.33969         1.97397 
        1.76715         7.33766         1.95692 
        1.77329         7.28698         1.94005 
        1.77943         7.24458         1.92336 
        1.78557         7.23824          1.9069 
        1.79171         7.17971         1.89062 
        1.79785         7.13568         1.87454 
        1.80399         7.11373         1.85864 
        1.81012         7.06995         1.84294 
        1.81625         7.04278         1.82744 
        1.82239         7.00362         1.81209 
        1.82853          6.9654         1.79692 
        1.83466          6.9304         1.78194 
        1.84078         6.89005         1.76715 
        1.84692         6.88815          1.7525 
        1.85306         6.84695         1.73799 
         1.8592          6.8188         1.72368 
        1.86533          6.7702         1.70953 
        1.87147         6.75075         1.69552 
        1.87761         6.72509         1.68167 
        1.88375         6.69451         1.66798 
        1.88988         6.64751         1.65446 
        1.89601         6.61979         1.64109 
        1.90215         6.58931         1.62785 
        1.90829         6.55843         1.61476 
        1.91442         6.53526         1.60182 
        1.92056         6.50359         1.58902 
         1.9267            6.49         1.57636 
        1.93284         6.46123         1.56382 
        1.93897         6.40644         1.55145 
        1.94509         6.38663         1.53923 
        1.95123         6.35747         1.52711 
        1.95737         6.32805         1.51512 
        1.96349         6.29632         1.50328 
        1.96964         6.27824         1.49154 
        1.97578         6.25348         1.47991 
        1.98192         6.23839         1.46843 
        1.98805         6.18141         1.45708 
        1.99419          6.1777         1.44584 
        2.00033         6.13442         1.43471 
        2.00647         6.10736          1.4237 
         2.0126         6.08343         1.41283 
        2.01874         6.06015         1.40205 
        2.02488         6.03528         1.39138 
        2.03101         6.02284         1.38084 
        2.03714         5.97616         1.37041 
        2.04328         5.95032         1.36008 
        2.04941         5.92396         1.34987 
        2.05554         5.91187         1.33976 
        2.06167         5.88403         1.32975 
        2.06781         5.87366         1.31984 
        2.07396         5.83782         1.31001 
        2.08009         5.79874          1.3003 
        2.08622         5.78224          1.2907 
        2.09237         5.77345         1.28118 
        2.09851         5.72992         1.27175 
        2.10464         5.71884         1.26243 
        2.11077          5.6817         1.25321 
        2.11691         5.66641         1.24407 
        2.12305         5.64255         1.23502 
        2.12918         5.60449         1.22608 
        2.13531         5.60202         1.21722 
        2.14145         5.56692         1.20843 
         2.1476         5.55112         1.19972 
        2.15372           5.534         1.19114 
        2.15985          5.4979         1.18263 
        2.16599          5.4949         1.17418 
        2.17213         5.47699         1.16583 
        2.17827         5.45253         1.15755 
         2.1844         5.43564         1.14936 
        2.19054         5.40312         1.14125 
        2.19666         5.38426         1.13323 
         2.2028         5.36001         1.12528 
        2.20893         5.34821          1.1174 
        2.21508         5.31335         1.10959 
        2.22122         5.29575         1.10185 
        2.22736         5.27209         1.09419 
        2.23349         5.25229         1.08662 
        2.23962         5.23369         1.07911 
        2.24577         5.22501         1.07166 
         2.2519         5.20103         1.06429 
        2.25802         5.17667         1.05701 
        2.26417         5.15856         1.04977 
        2.27031         5.13723          1.0426 
        2.27644         5.12726         1.03551 
        2.28257         5.08901         1.02848 
        2.28872         5.08182         1.02151 
        2.29486         5.06337         1.01461 
        2.30099         5.04078         1.00778 
        2.30712         5.01067         1.00101 
        2.31326         5.00291        0.994291 
         2.3194         4.97695        0.987639 
        2.32553         4.96238        0.981058 
        2.33166         4.93536         0.97454 
         2.3378         4.93036        0.968071 
        2.34394         4.90348         0.96166 
        2.35007         4.89245        0.955315 
        2.35619         4.87348        0.949034 
        2.36233          4.8529        0.942796 
        2.36848         4.83179          0.9366 
        2.37462         4.81763        0.930473 
        2.38075         4.79181        0.924406 
        2.38689         4.78229        0.918388 
        2.39303         4.76623        0.912424 
        2.39916         4.75219        0.906519 
        2.40529         4.73892        0.900667 
        2.41143          4.7206        0.894862 
        2.41757         4.69513        0.889105 
         2.4237          4.6787         0.88341 
        2.42983         4.66617        0.877764 
        2.43598         4.64769        0.872153 
        2.44211         4.62722        0.866599 
        2.44823         4.61295        0.861107 
        2.45437         4.59771        0.855646 
        2.46052         4.58676        0.850228 
        2.46665          4.5738        0.844867 
        2.47279          4.5489        0.839553 
        2.47892         4.53158        0.834281 
        2.48507         4.51921         0.82905 
         2.4912         4.50193        0.823873 
