# k  (h/Mpc)    Pcb(k)  (Mpc/h)^3    Pcb_linear(k)  (Mpc/h)^3
     0.00783031         264.776         266.738 
       0.013688         334.955         337.576 
       0.019231         349.541         350.599 
      0.0249154          332.71         333.015 
      0.0312784          296.15         296.363 
      0.0375637          256.99         257.205 
      0.0433917         225.984         225.593 
      0.0492413         200.954           200.9 
      0.0555754         182.158          181.67 
      0.0619321         167.403          167.94 
       0.067871         157.572         157.608 
      0.0738098         147.608         147.633 
      0.0800417         136.414         136.283 
      0.0862327         123.868         123.926 
      0.0921407         111.731         111.778 
      0.0982031         100.157         99.9632 
       0.104506         89.2386         89.3449 
       0.110769         80.9703         81.0054 
       0.116806          75.275         75.0499 
       0.122832         70.7463         70.7487 
       0.129052         67.5165         67.3899 
       0.135211         64.6447         64.4593 
       0.141259         61.4581         61.4353 
       0.147318         57.8554         57.9899 
       0.153489          54.058         54.0612 
       0.159709         50.0086         49.9139 
       0.165845         45.8503         45.9717 
       0.171974         42.6713         42.4772 
       0.178125         39.7613         39.5865 
       0.184229         37.4283         37.3511 
        0.19034         35.8691         35.6426 
       0.196428         34.4522         34.2872 
       0.202534         33.0514         33.0732 
       0.208729         31.9284         31.8156 
       0.214876         30.6412         30.4394 
       0.220989         28.9397         28.9288 
       0.227147         27.5475          27.322 
        0.23329         25.9856         25.7318 
       0.239377         24.5469         24.2667 
       0.245482         23.2477         22.9764 
       0.251667         22.0687         21.8791 
       0.257832         21.2763         20.9796 
       0.263955         20.4391         20.2303 
       0.270079         19.7658         19.5618 
        0.27624         19.0435         18.9124 
       0.282372         18.3898         18.2464 
        0.28843         17.8041         17.5535 
       0.294538          17.055         16.8265 
       0.300721         16.2536         16.0862 
        0.30691         15.6334         15.3716 
       0.313033         14.9567         14.7172 
       0.319153         14.4725         14.1312 
       0.325316         13.8168         13.6116 
        0.33145         13.3562         13.1555 
       0.337538          12.972         12.7456 
       0.343633         12.6144         12.3594 
       0.349808         12.2018         11.9766 
       0.355968         11.8055         11.5925 
       0.362074         11.4668         11.2081 
       0.368217         11.0665         10.8208 
       0.374374         10.7472         10.4406 
       0.380519         10.3226         10.0773 
       0.386598         9.96574         9.74056 
       0.392688         9.64359         9.42927 
        0.39888         9.38167         9.13802 
       0.405048         9.12141          8.8701 
       0.411186          8.8601         8.61945 
       0.417313         8.62324         8.37928 
       0.423458         8.35378         8.14453 
       0.429607         8.16671         7.91271 
       0.435692         7.95346         7.68623 
       0.441815         7.69753         7.46282 
       0.447964         7.45405         7.24492 
       0.454126         7.28011         7.03529 
       0.460267         7.11639         6.83708 
       0.466387         6.90908         6.65042 
        0.47254         6.74566         6.47295 
       0.478662         6.56449         6.30551 
       0.484765         6.40759         6.14587 
       0.490885         6.23486         5.99116 
       0.497035         6.06331         5.83986 
       0.503198         5.93854         5.69202 
       0.509342         5.77188         5.54812 
       0.515458         5.65332         5.40849 
       0.521598          5.5192         5.27262 
       0.527764         5.40776         5.14118 
       0.533884         5.24372         5.01592 
           0.54         5.13712          4.8958 
       0.546137         5.00067          4.7801 
       0.552299         4.89899         4.66848 
       0.558452         4.79098           4.561 
       0.564573         4.69398         4.45738 
       0.570708         4.59056         4.35634 
       0.576825         4.49159         4.25828 
       0.582926         4.38631         4.16316 
       0.589034         4.30872          4.0706 
       0.595184         4.22696         3.98012 
       0.601379         4.12143         3.89181 
       0.607522         4.03271         3.80705 
       0.613639         3.93726         3.72548 
       0.619772         3.87562         3.64642 
       0.625918         3.79531         3.56972 
       0.632068          3.7239         3.49526 
       0.638161          3.6483         3.42354 
         0.6443         3.57326         3.35322 
       0.650464         3.50142         3.28453 
       0.656582         3.44995          3.2182 
       0.662703         3.38233         3.15364 
       0.668861         3.29846         3.09048 
       0.675024         3.24172           3.029 
       0.681124         3.21414         2.96985 
       0.687237          3.1365         2.91221 
       0.693381         3.06137          2.8559 
       0.699536         3.02711         2.80105 
       0.705665         2.97017         2.74794 
       0.711789         2.90438         2.69628 
       0.717957         2.85437          2.6456 
        0.72409         2.80662         2.59649 
       0.730186         2.77121          2.5489 
       0.736317         2.71063         2.50222 
       0.742472         2.67255         2.45652 
       0.748622         2.62974         2.41201 
        0.75476         2.57203         2.36872 
       0.760888         2.54098         2.32658 
       0.767043         2.47467         2.28533 
       0.773185         2.44484         2.24519 
       0.779291         2.41973         2.20627 
       0.785407         2.37259         2.16823 
       0.791564         2.33433         2.13086 
       0.797719         2.29443         2.09438 
       0.803834         2.25793           2.059 
       0.809972         2.22239          2.0243 
       0.816124         2.18781         1.99033 
       0.822261         2.15605         1.95723 
       0.828378         2.11858         1.92499 
       0.834502         2.08694         1.89346 
       0.840667         2.06056         1.86243 
       0.846816         2.02589          1.8322 
       0.852925          1.9908         1.80284 
       0.859047         1.96228         1.77407 
       0.865192         1.93483         1.74584 
       0.871341         1.90882         1.71821 
       0.877463          1.8743         1.69131 
       0.883569           1.849         1.66506 
       0.889708         1.82668         1.63923 
       0.895864         1.80022         1.61389 
       0.902008         1.76896         1.58914 
       0.908149         1.74726         1.56493 
       0.914301         1.72662         1.54118 
       0.920448         1.70259         1.51795 
       0.926574         1.68401         1.49529 
       0.932687         1.65781         1.47313 
       0.938823          1.6278         1.45136 
       0.944975         1.61151         1.42997 
       0.951105         1.58133         1.40909 
       0.957225         1.56297         1.38867 
       0.963368         1.54622         1.36859 
       0.969511         1.52794         1.34891 
       0.975621         1.50319         1.32972 
       0.981748         1.47662         1.31086 
       0.987916         1.46064         1.29225 
        0.99406         1.44647         1.27408 
        1.00019         1.42602         1.25629 
        1.00632         1.41264         1.23886 
        1.01246         1.39215         1.22174 
        1.01859         1.37499         1.20497 
        1.02471           1.352         1.18854 
        1.03085         1.33526         1.17236 
        1.03698         1.32252         1.15652 
        1.04314         1.30618         1.14091 
        1.04929         1.29298         1.12562 
        1.05541         1.27072         1.11068 
        1.06154         1.25956         1.09597 
        1.06769         1.24574         1.08151 
        1.07382         1.22902         1.06736 
        1.07993         1.21411          1.0535 
        1.08607         1.20063         1.03982 
        1.09222          1.1835         1.02638 
        1.09836         1.17295         1.01319 
        1.10449         1.15497         1.00026 
        1.11063         1.14164        0.987529 
        1.11677         1.13158         0.97503 
         1.1229         1.11364        0.962771 
        1.12903         1.10521        0.950712 
        1.13518         1.08993        0.938851 
        1.14131         1.07969          0.9272 
        1.14745         1.06945        0.915754 
        1.15359         1.05519          0.9045 
        1.15973         1.04459        0.893431 
        1.16584         1.03078        0.882598 
        1.17197         1.01868        0.871929 
        1.17811         1.00731        0.861405 
        1.18424        0.996418        0.851087 
        1.19038        0.984158        0.840908 
        1.19652        0.977741          0.8309 
        1.20267        0.967944        0.821056 
        1.20881        0.952701        0.811374 
        1.21495        0.944792        0.801865 
        1.22108        0.935384         0.79251 
         1.2272        0.922378        0.783327 
        1.23334        0.914401         0.77427 
        1.23949        0.906769        0.765335 
        1.24562        0.896407        0.756566 
        1.25174        0.887081        0.747949 
        1.25789        0.875269         0.73944 
        1.26402        0.867502         0.73108 
        1.27014        0.856342         0.72287 
        1.27628        0.850682        0.714762 
        1.28244        0.842238        0.706764 
        1.28858         0.83134          0.6989 
        1.29471        0.823197        0.691173 
        1.30084        0.815692        0.683571 
        1.30697        0.809978        0.676072 
        1.31312        0.800932        0.668676 
        1.31925        0.792581        0.661414 
        1.32537        0.785282        0.654268 
        1.33151        0.776689        0.647202 
        1.33765        0.769299        0.640245 
        1.34378        0.760205        0.633405 
        1.34992         0.75632         0.62666 
        1.35606        0.746967        0.619999 
         1.3622        0.740472        0.613447 
        1.36833        0.734191        0.607006 
        1.37445        0.727281        0.600662 
        1.38059        0.719922        0.594388 
        1.38675        0.712617         0.58819 
        1.39288        0.705182        0.582105 
        1.39901        0.700033         0.57611 
        1.40515        0.692643        0.570185 
         1.4113        0.688896        0.564346 
        1.41742        0.680835        0.558612 
        1.42355        0.672282        0.552947 
         1.4297        0.669365        0.547343 
        1.43585        0.661319        0.541819 
        1.44198        0.656346        0.536393 
        1.44809        0.649454        0.531052 
        1.45423        0.644865        0.525764 
        1.46036        0.638701        0.520558 
        1.46649        0.632398         0.51542 
        1.47263        0.626016        0.510349 
        1.47877        0.624081        0.505347 
        1.48491        0.614515        0.500406 
        1.49104        0.612604        0.495541 
        1.49718        0.605057        0.490737 
        1.50333        0.601019         0.48599 
        1.50947        0.596461        0.481315 
         1.5156        0.590519        0.476709 
        1.52172        0.586108        0.472164 
        1.52787        0.579295        0.467669 
          1.534        0.576404        0.463238 
        1.54013        0.571138        0.458869 
        1.54627         0.56625        0.454549 
        1.55241        0.560732        0.450284 
        1.55855        0.556476         0.44608 
        1.56467        0.552253        0.441942 
         1.5708        0.546952        0.437845 
        1.57695        0.542209        0.433793 
        1.58308        0.536294        0.429802 
        1.58922        0.534099        0.425859 
        1.59535        0.528509        0.421967 
         1.6015        0.524471        0.418119 
        1.60764        0.520299         0.41432 
        1.61376        0.516055         0.41058 
        1.61989        0.511783        0.406882 
        1.62604        0.507131        0.403222 
        1.63218        0.504539        0.399609 
        1.63831         0.49932        0.396049 
        1.64444        0.495962        0.392531 
        1.65059        0.491327        0.389048 
        1.65673        0.487787         0.38561 
        1.66285        0.484586        0.382224 
        1.66898        0.480425        0.378877 
        1.67512         0.47589        0.375565 
        1.68127        0.471898        0.372288 
         1.6874        0.469378        0.369059 
        1.69353        0.465335        0.365869 
        1.69967        0.461667         0.36271 
        1.70581        0.458854         0.35959 
        1.71193        0.455635        0.356518 
        1.71806        0.451856        0.353475 
        1.72421        0.448083        0.350463 
        1.73035        0.443849        0.347488 
        1.73649        0.442505         0.34455 
        1.74262        0.437384        0.341647 
        1.74876        0.435115        0.338776 
        1.75489        0.432107        0.335944 
        1.76101        0.428086        0.333146 
        1.76715        0.425413        0.330375 
        1.77329        0.422062        0.327633 
        1.77943        0.418755        0.324921 
        1.78557        0.417061        0.322243 
        1.79171          0.4137        0.319596 
        1.79785        0.409964        0.316977 
        1.80399        0.406189        0.314389 
        1.81012        0.404364        0.311833 
        1.81625        0.401984        0.309307 
        1.82239        0.399299        0.306805 
        1.82853        0.395532        0.304332 
        1.83466        0.392614        0.301889 
        1.84078        0.389606        0.299475 
        1.84692        0.387354        0.297083 
        1.85306        0.384897        0.294715 
         1.8592        0.381948        0.292377 
        1.86533        0.379826        0.290065 
        1.87147        0.376194        0.287776 
        1.87761        0.373806         0.28551 
        1.88375        0.371354        0.283272 
        1.88988        0.368314         0.28106 
        1.89601        0.365172         0.27887 
        1.90215        0.363595        0.276702 
        1.90829        0.360441        0.274558 
        1.91442        0.358905        0.272437 
        1.92056        0.357083         0.27034 
         1.9267         0.35366        0.268263 
        1.93284        0.350943        0.266206 
        1.93897        0.349256        0.264175 
        1.94509        0.347126         0.26217 
        1.95123        0.343921        0.260181 
        1.95737        0.341938         0.25821 
        1.96349        0.339683        0.256265 
        1.96964        0.337309        0.254335 
        1.97578        0.334861        0.252424 
        1.98192         0.33341        0.250536 
        1.98805        0.331276        0.248668 
        1.99419        0.329497        0.246818 
        2.00033        0.326901        0.244986 
        2.00647        0.324577        0.243174 
         2.0126        0.322744        0.241383 
        2.01874        0.320812        0.239607 
        2.02488        0.318549        0.237848 
        2.03101        0.316178        0.236109 
        2.03714        0.315282         0.23439 
        2.04328        0.312127        0.232685 
        2.04941        0.310979           0.231 
        2.05554        0.308972        0.229332 
        2.06167        0.306831        0.227678 
        2.06781        0.303863        0.226041 
        2.07396        0.303004        0.224417 
        2.08009        0.300844        0.222812 
        2.08622        0.299335        0.221224 
        2.09237        0.297349        0.219649 
        2.09851        0.295018        0.218089 
        2.10464        0.293484        0.216547 
        2.11077        0.291295        0.215022 
        2.11691        0.290039        0.213508 
        2.12305        0.287915        0.212008 
        2.12918         0.28609        0.210527 
        2.13531        0.284779         0.20906 
        2.14145        0.282766        0.207603 
         2.1476        0.281341        0.206158 
        2.15372        0.279707        0.204735 
        2.15985        0.277555        0.203323 
        2.16599        0.276072        0.201921 
        2.17213         0.27468        0.200534 
        2.17827        0.272728        0.199159 
         2.1844        0.271557        0.197799 
        2.19054        0.269991        0.196452 
        2.19666        0.268397        0.195118 
         2.2028        0.266038        0.193796 
        2.20893        0.265043        0.192486 
        2.21508        0.263552        0.191186 
        2.22122        0.262313        0.189898 
        2.22736        0.260085        0.188624 
        2.23349        0.258385        0.187363 
        2.23962        0.257176        0.186112 
        2.24577         0.25599        0.184871 
         2.2519        0.254578        0.183644 
        2.25802        0.252934         0.18243 
        2.26417        0.251716        0.181223 
        2.27031        0.250034        0.180026 
        2.27644        0.249474        0.178844 
        2.28257        0.247515        0.177672 
        2.28872        0.246125        0.176508 
        2.29486         0.24476        0.175355 
        2.30099         0.24319        0.174215 
        2.30712        0.241942        0.173085 
        2.31326        0.240363        0.171962 
         2.3194        0.239423        0.170851 
        2.32553        0.238022        0.169751 
        2.33166         0.23676        0.168661 
         2.3378        0.235381        0.167579 
        2.34394         0.23412        0.166506 
        2.35007        0.232842        0.165444 
        2.35619        0.231517        0.164393 
        2.36233        0.230093        0.163349 
        2.36848        0.229071        0.162311 
        2.37462         0.22822        0.161285 
        2.38075        0.226808        0.160268 
        2.38689        0.225674        0.159259 
        2.39303        0.224332         0.15826 
        2.39916        0.223045         0.15727 
        2.40529        0.222019        0.156288 
        2.41143        0.220384        0.155314 
        2.41757        0.219466        0.154348 
         2.4237         0.21841        0.153392 
        2.42983        0.217717        0.152444 
        2.43598        0.216223        0.151502 
        2.44211        0.214339        0.150569 
        2.44823        0.214211        0.149647 
        2.45437        0.212983        0.148729 
        2.46052        0.211785        0.147818 
        2.46665        0.210577        0.146917 
        2.47279        0.209371        0.146023 
        2.47892        0.208773        0.145137 
        2.48507        0.207301        0.144256 
         2.4912        0.206562        0.143385 
