# k  (h/Mpc)    P(k)  (Mpc/h)^3    P_linear(k)  (Mpc/h)^3
     0.00783031         9466.04         9535.77 
       0.013688         11281.9         11528.1 
       0.019231         11301.2         11435.8 
      0.0249154         10360.2         10334.1 
      0.0312784         8650.73         8699.39 
      0.0375637         7121.27            7199 
      0.0433917         6118.55         6122.07 
      0.0492413         5333.16         5369.82 
      0.0555754          4856.1         4847.12 
      0.0619321         4389.71         4500.03 
       0.067871         4177.99         4224.63 
      0.0738098         3898.65         3922.78 
      0.0800417         3541.35         3549.23 
      0.0862327         3121.96         3139.41 
      0.0921407         2760.93         2754.74 
      0.0982031         2454.07         2409.36 
       0.104506         2149.43         2130.91 
       0.110769          1972.4         1939.64 
       0.116806          1881.7         1821.11 
       0.122832          1777.9         1742.63 
       0.129052         1706.15         1675.26 
       0.135211         1652.18         1599.21 
       0.141259         1535.28         1504.17 
       0.147318         1410.29         1390.02 
       0.153489         1304.62         1265.12 
       0.159709          1218.5         1145.08 
       0.165845         1098.06         1044.21 
       0.171974         1058.31          966.61 
       0.178125         1008.38         911.362 
       0.184229         941.024         873.566 
        0.19034         924.715          844.88 
       0.196428         897.673         817.577 
       0.202534         840.483         785.728 
       0.208729         823.031         746.473 
       0.214876         783.439         701.842 
       0.220989         728.995         655.476 
       0.227147         705.008           611.1 
        0.23329         672.086         572.546 
       0.239377         657.496         541.568 
       0.245482         622.258         517.487 
       0.251667         598.487         498.522 
       0.257832         591.646         482.558 
       0.263955         560.676         467.231 
       0.270079         540.872         450.708 
        0.27624         518.487         432.209 
       0.282372         505.787         412.327 
        0.28843         499.934         392.245 
       0.294538         473.121         372.829 
       0.300721         457.278         355.049 
        0.30691         448.633         339.703 
       0.313033         427.972         326.887 
       0.319153         420.994         315.951 
       0.325316         412.371          306.09 
        0.33145         402.076         296.697 
       0.337538         387.639          287.23 
       0.343633         376.116         277.402 
       0.349808         365.852          267.12 
       0.355968         358.447          256.85 
       0.362074         346.834         246.997 
       0.368217         343.366         237.749 
       0.374374         335.545         229.324 
       0.380519         321.733         221.769 
       0.386598         317.502         215.024 
       0.392688         309.316         208.766 
        0.39888         301.876           202.7 
       0.405048         295.724         196.773 
       0.411186          293.76         190.874 
       0.417313         288.567         185.003 
       0.423458         280.596         179.182 
       0.429607         273.113         173.524 
       0.435692         268.717         168.194 
       0.441815          263.43         163.153 
       0.447964         256.806         158.423 
       0.454126         253.255         154.004 
       0.460267         249.718         149.852 
       0.466387         244.388         145.888 
        0.47254         241.369         142.022 
       0.478662         234.766         138.265 
       0.484765         231.797         134.584 
       0.490885          228.49         130.966 
       0.497035         225.062         127.436 
       0.503198         223.187         124.033 
       0.509342         217.325         120.783 
       0.515458         214.251         117.696 
       0.521598         209.607         114.747 
       0.527764         207.365         111.919 
       0.533884         206.346          109.22 
           0.54          201.99         106.607 
       0.546137         197.481         104.057 
       0.552299         195.852         101.567 
       0.558452         192.463         99.1465 
       0.564573         191.405         96.8036 
       0.570708         186.961         94.5261 
       0.576825          184.42         92.3322 
       0.582926         182.548         90.2254 
       0.589034         179.759         88.1946 
       0.595184           178.3         86.2218 
       0.601379         175.041         84.3005 
       0.607522         171.449         82.4534 
       0.613639         170.447         80.6678 
       0.619772         168.699         78.9286 
       0.625918          167.19         77.2343 
       0.632068         163.465         75.5854 
       0.638161         162.387         73.9966 
         0.6443         161.006         72.4414 
       0.650464         157.994         70.9263 
       0.656582         156.977         69.4683 
       0.662703         155.563         68.0549 
       0.668861         152.426         66.6758 
       0.675024         152.303         65.3355 
       0.681124         149.999          64.046 
       0.687237         148.315         62.7879 
       0.693381         146.517         61.5561 
       0.699536         145.088         60.3542 
       0.705665         143.617          59.189 
       0.711789         141.827         58.0558 
       0.717957         140.256         56.9451 
        0.72409         138.789         55.8707 
       0.730186         138.862         54.8315 
       0.736317          136.69          53.814 
       0.742472         134.666          52.819 
       0.748622         132.731         51.8504 
        0.75476         133.221         50.9083 
       0.760888         131.624         49.9909 
       0.767043         129.327         49.0924 
       0.773185         128.058         48.2179 
       0.779291         126.644         47.3698 
       0.785407         125.867          46.541 
       0.791564         124.846         45.7271 
       0.797719         123.022         44.9333 
       0.803834         123.082         44.1638 
       0.809972         121.954         43.4099 
       0.816124         120.035         42.6722 
       0.822261         119.098         41.9538 
       0.828378         118.829         41.2543 
       0.834502         117.256         40.5703 
       0.840667         116.737         39.8975 
       0.846816         115.382          39.242 
       0.852925         114.241         38.6053 
       0.859047         113.421         37.9815 
       0.865192          112.63         37.3696 
       0.871341         111.463         36.7708 
       0.877463         110.508         36.1879 
       0.883569         110.448         35.6192 
       0.889708         109.351           35.06 
       0.895864         108.373         34.5114 
       0.902008         107.274         33.9757 
       0.908149         105.976         33.4519 
       0.914301         105.858         32.9384 
       0.920448         105.598         32.4362 
       0.926574         103.556         31.9463 
       0.932687          103.54         31.4677 
       0.938823         102.798         30.9972 
       0.944975         101.786         30.5354 
       0.951105         100.856         30.0847 
       0.957225         100.541         29.6439 
       0.963368         99.4986         29.2105 
       0.969511         98.9064         28.7858 
       0.975621         97.8039          28.372 
       0.981748         97.2231         27.9653 
       0.987916         96.5643          27.564 
        0.99406         96.2205         27.1722 
        1.00019         95.1837         26.7889 
        1.00632           94.46         26.4134 
        1.01246         94.0123         26.0445 
        1.01859         93.5345         25.6834 
        1.02471         92.8593         25.3296 
        1.03085         91.9589         24.9813 
        1.03698         91.3437         24.6403 
        1.04314         90.7879         24.3043 
        1.04929         90.4392         23.9754 
        1.05541         89.7371          23.654 
        1.06154         89.0951         23.3377 
        1.06769         88.5194         23.0268 
        1.07382         87.8209         22.7225 
        1.07993         87.4633         22.4245 
        1.08607         86.7939         22.1307 
        1.09222         86.3715         21.8418 
        1.09836         85.6258         21.5585 
        1.10449         85.1649         21.2805 
        1.11063         84.6712         21.0072 
        1.11677         84.1285         20.7388 
         1.1229         83.3996         20.4756 
        1.12903          83.066         20.2168 
        1.13518         82.5916         19.9622 
        1.14131          82.007         19.7122 
        1.14745         81.6874         19.4666 
        1.15359          80.661         19.2252 
        1.15973         80.5636         18.9878 
        1.16584         80.0379         18.7555 
        1.17197         79.5998         18.5268 
        1.17811           78.96         18.3012 
        1.18424         78.4005           18.08 
        1.19038         78.2483         17.8619 
        1.19652         77.7371         17.6475 
        1.20267           77.23         17.4366 
        1.20881         76.7316         17.2292 
        1.21495         76.2797         17.0256 
        1.22108         76.0775         16.8252 
         1.2272         75.3119         16.6287 
        1.23334         75.1845         16.4348 
        1.23949         74.6159         16.2435 
        1.24562          74.023         16.0559 
        1.25174         73.7855         15.8715 
        1.25789         73.4568         15.6895 
        1.26402         72.9892         15.5107 
        1.27014         72.6178         15.3351 
        1.27628         72.0556         15.1617 
        1.28244         72.0084         14.9907 
        1.28858         71.3623         14.8226 
        1.29471         70.9397         14.6574 
        1.30084         70.3659         14.4949 
        1.30697         70.3631         14.3347 
        1.31312         69.8803         14.1767 
        1.31925         69.3673         14.0215 
        1.32537         69.0798         13.8688 
        1.33151         68.8196         13.7179 
        1.33765          68.404         13.5693 
        1.34378         67.9777         13.4233 
        1.34992         67.7854         13.2792 
        1.35606         67.2942          13.137 
         1.3622         67.1048         12.9972 
        1.36833         66.5797         12.8597 
        1.37445         66.0962         12.7242 
        1.38059         65.9292         12.5904 
        1.38675         65.3251         12.4581 
        1.39288         65.2277         12.3283 
        1.39901         64.7033         12.2004 
        1.40515         64.4721          12.074 
         1.4113          64.211         11.9494 
        1.41742         63.7666         11.8272 
        1.42355         63.6337         11.7063 
         1.4297            63.2         11.5869 
        1.43585         62.8886         11.4691 
        1.44198         62.4934         11.3535 
        1.44809         62.0796         11.2396 
        1.45423         61.9767         11.1269 
        1.46036         61.5523          11.016 
        1.46649         61.2139         10.9066 
        1.47263         60.9339         10.7985 
        1.47877         60.6958          10.692 
        1.48491         60.2893         10.5867 
        1.49104          59.938         10.4831 
        1.49718         59.7159         10.3808 
        1.50333         59.4606         10.2797 
        1.50947         59.2166         10.1802 
         1.5156         58.9897         10.0822 
        1.52172         58.5128         9.98541 
        1.52787         58.2085         9.88974 
          1.534         57.8934         9.79544 
        1.54013         57.8408         9.70247 
        1.54627         57.2932         9.61054 
        1.55241          57.153          9.5198 
        1.55855         56.7934         9.43036 
        1.56467         56.3207         9.34232 
         1.5708         56.3118         9.25516 
        1.57695         55.9631         9.16898 
        1.58308         55.6877          9.0841 
        1.58922         55.4701         9.00025 
        1.59535         55.3736         8.91748 
         1.6015         55.1473         8.83565 
        1.60764         54.7784         8.75489 
        1.61376         54.5043         8.67536 
        1.61989         54.0605         8.59676 
        1.62604          53.937         8.51896 
        1.63218          53.624         8.44218 
        1.63831         53.4942         8.36652 
        1.64444         53.2885         8.29176 
        1.65059         52.8846         8.21775 
        1.65673         52.6525         8.14472 
        1.66285         52.4105         8.07278 
        1.66898         52.0551         8.00169 
        1.67512         51.8704         7.93133 
        1.68127         51.7655         7.86174 
         1.6874         51.4406         7.79315 
        1.69353         51.1821         7.72542 
        1.69967         51.0072         7.65834 
        1.70581         50.6679         7.59208 
        1.71193         50.4861         7.52686 
        1.71806         50.2657         7.46227 
        1.72421         50.0814         7.39832 
        1.73035          49.815         7.33519 
        1.73649         49.4981         7.27281 
        1.74262          49.165         7.21121 
        1.74876         49.2182         7.15029 
        1.75489         48.8764         7.09019 
        1.76101          48.687         7.03081 
        1.76715         48.4756         6.97203 
        1.77329         48.1014         6.91385 
        1.77943           48.11         6.85631 
        1.78557         47.7969         6.79952 
        1.79171         47.5607         6.74336 
        1.79785         47.3699         6.68782 
        1.80399         47.1173         6.63292 
        1.81012         46.9138         6.57872 
        1.81625         46.6806         6.52515 
        1.82239          46.455         6.47209 
        1.82853         46.2575         6.41965 
        1.83466         46.0735         6.36785 
        1.84078         45.8571         6.31667 
        1.84692         45.7127         6.26598 
        1.85306         45.4308         6.21578 
         1.8592         45.2204         6.16622 
        1.86533         45.0427         6.11722 
        1.87147         44.8063          6.0687 
        1.87761         44.6456         6.02069 
        1.88375         44.4179         5.97325 
        1.88988         44.1951         5.92638 
        1.89601         44.0451         5.87999 
        1.90215         43.7608         5.83405 
        1.90829          43.664         5.78864 
        1.91442         43.3923          5.7437 
        1.92056         43.2887         5.69928 
         1.9267         43.1186         5.65529 
        1.93284         42.9148         5.61173 
        1.93897         42.6477         5.56872 
        1.94509         42.4395         5.52625 
        1.95123         42.3119         5.48412 
        1.95737         42.1694          5.4424 
        1.96349          42.001         5.40122 
        1.96964          41.725         5.36035 
        1.97578         41.5306         5.31988 
        1.98192         41.3004         5.27992 
        1.98805         41.1156         5.24036 
        1.99419         41.0053         5.20121 
        2.00033         40.8477         5.16243 
        2.00647         40.6583         5.12407 
         2.0126         40.4388         5.08616 
        2.01874         40.3549         5.04858 
        2.02488         40.0628         5.01135 
        2.03101         40.0163         4.97456 
        2.03714         39.7702         4.93818 
        2.04328         39.6395         4.90212 
        2.04941         39.3691         4.86645 
        2.05554         39.2867         4.83116 
        2.06167         39.1331         4.79617 
        2.06781         38.9091         4.76153 
        2.07396         38.6889         4.72718 
        2.08009          38.547         4.69323 
        2.08622         38.4412         4.65965 
        2.09237          38.215         4.62633 
        2.09851         38.0645         4.59334 
        2.10464         37.9292         4.56072 
        2.11077          37.787         4.52846 
        2.11691         37.5357         4.49645 
        2.12305         37.3303         4.46474 
        2.12918         37.2458         4.43341 
        2.13531         37.0196         4.40238 
        2.14145         36.9254         4.37158 
         2.1476         36.8305         4.34104 
        2.15372         36.6958         4.31094 
        2.15985         36.4149          4.2811 
        2.16599         36.2562         4.25146 
        2.17213         36.1602         4.22213 
        2.17827         36.0022         4.19308 
         2.1844         35.7537         4.16434 
        2.19054         35.7234         4.13585 
        2.19666         35.4923         4.10768 
         2.2028         35.2842         4.07974 
        2.20893         35.2339         4.05205 
        2.21508         35.0597         4.02458 
        2.22122         34.9409         3.99736 
        2.22736         34.6965         3.97045 
        2.23349         34.6277         3.94379 
        2.23962         34.4651         3.91736 
        2.24577         34.3038         3.89116 
         2.2519         34.1236         3.86523 
        2.25802         34.0115         3.83958 
        2.26417         33.8545         3.81409 
        2.27031         33.7025         3.78881 
        2.27644         33.6737         3.76383 
        2.28257         33.3936         3.73908 
        2.28872         33.3588          3.7145 
        2.29486          33.214         3.69016 
        2.30099         33.0069         3.66608 
        2.30712         32.9182          3.6422 
        2.31326         32.7292          3.6185 
         2.3194         32.5872         3.59502 
        2.32553         32.4912          3.5718 
        2.33166         32.3282         3.54878 
         2.3378         32.1498         3.52594 
        2.34394         32.0451         3.50329 
        2.35007         31.9852         3.48088 
        2.35619         31.8247         3.45869 
        2.36233         31.6197         3.43664 
        2.36848         31.5967         3.41473 
        2.37462         31.3893         3.39307 
        2.38075         31.2758         3.37161 
        2.38689         31.1735         3.35032 
        2.39303          31.051         3.32922 
        2.39916          30.807         3.30832 
        2.40529          30.755          3.2876 
        2.41143         30.6302         3.26705 
        2.41757          30.546         3.24666 
         2.4237         30.3939         3.22649 
        2.42983         30.1973         3.20649 
        2.43598         30.1159          3.1866 
        2.44211         29.9787         3.16692 
        2.44823         29.8462         3.14745 
        2.45437         29.7791         3.12809 
        2.46052         29.5835         3.10887 
        2.46665         29.5029         3.08985 
        2.47279          29.303           3.071 
        2.47892         29.2623         3.05229 
        2.48507          29.156         3.03372 
         2.4912         29.0099         3.01535 
