# k  (h/Mpc)    Pcb(k)  (Mpc/h)^3    Pcb_linear(k)  (Mpc/h)^3
     0.00783031         16529.4         16636.8 
       0.013688         17726.3         18168.3 
       0.019231         16295.6         16511.3 
      0.0249154         13744.3         13636.2 
      0.0312784         10376.1           10386 
      0.0375637         7827.17         7870.05 
      0.0433917         6350.53         6306.59 
      0.0492413         5378.12         5364.48 
      0.0555754         4874.17         4817.48 
      0.0619321         4425.59         4506.45 
       0.067871         4223.88         4240.43 
      0.0738098         3901.16         3890.75 
      0.0800417         3448.02         3414.86 
      0.0862327         2917.77         2889.99 
      0.0921407         2484.43         2421.02 
      0.0982031         2140.68         2034.46 
       0.104506         1833.72         1759.84 
       0.110769         1687.48         1603.86 
       0.116806          1626.1         1531.02 
       0.122832         1560.76         1493.79 
       0.129052         1501.26         1452.24 
       0.135211          1453.3         1380.43 
       0.141259         1326.33         1273.38 
       0.147318         1195.93         1141.58 
       0.153489         1075.64            1004 
       0.159709         988.427         883.144 
       0.165845         884.141         793.609 
       0.171974          851.52         735.542 
       0.178125         814.748         702.804 
       0.184229         765.409         685.191 
        0.19034         755.437         670.867 
       0.196428         733.503         650.531 
       0.202534         679.523         619.334 
       0.208729         661.373         577.408 
       0.214876         620.217         530.592 
       0.220989         571.812         485.276 
       0.227147         548.079         446.149 
        0.23329         519.784         416.306 
       0.239377         510.853         395.731 
       0.245482         483.009         381.924 
       0.251667         465.564         371.566 
       0.257832         458.752         361.519 
       0.263955         433.786         349.367 
       0.270079         415.215         334.099 
        0.27624         396.835         316.209 
       0.282372          385.35         297.405 
        0.28843         378.186         279.656 
       0.294538         356.689         263.965 
       0.300721         344.877         251.038 
        0.30691          337.36         240.951 
       0.313033         320.571         233.051 
       0.319153         315.466          226.23 
       0.325316         308.667         219.467 
        0.33145         299.892         212.187 
       0.337538         287.668         204.201 
       0.343633         279.117         195.631 
       0.349808         270.494         186.837 
       0.355968         264.746         178.444 
       0.362074         254.264         170.935 
       0.368217         251.382         164.341 
       0.374374         245.488         158.677 
       0.380519         234.944         153.738 
       0.386598         231.549         149.246 
       0.392688         224.229         144.884 
        0.39888         219.266         140.371 
       0.405048         213.372         135.738 
       0.411186         212.034         131.056 
       0.417313         207.702         126.412 
       0.423458         202.116         121.946 
       0.429607          195.56         117.789 
       0.435692         192.476         114.014 
       0.441815         188.231         110.556 
       0.447964         183.207         107.368 
       0.454126         180.582         104.356 
       0.460267         177.698         101.452 
       0.466387         172.724         98.6072 
        0.47254         170.909         95.7651 
       0.478662         166.232         92.9561 
       0.484765          163.29         90.2176 
       0.490885         160.692         87.5743 
       0.497035         157.736         85.0459 
       0.503198         156.401         82.6512 
       0.509342         152.628          80.409 
       0.515458         149.614         78.3036 
       0.521598         146.133         76.2855 
       0.527764         144.786         74.3248 
       0.533884         143.087          72.428 
           0.54         140.246         70.5785 
       0.546137         136.865         68.7655 
       0.552299         135.016         66.9903 
       0.558452         132.802         65.2719 
       0.564573         132.282         63.6267 
       0.570708         128.468         62.0494 
       0.576825         126.763         60.5464 
       0.582926         125.571         59.1078 
       0.589034         123.087         57.7183 
       0.595184         121.789          56.364 
       0.601379         119.786         55.0408 
       0.607522         116.603         53.7667 
       0.613639         116.014         52.5334 
       0.619772         114.578         51.3307 
       0.625918         113.269         50.1596 
       0.632068          110.66         49.0232 
       0.638161         110.218         47.9338 
         0.6443          108.61         46.8738 
       0.650464         106.708         45.8464 
       0.656582         105.564         44.8605 
       0.662703         104.929         43.9045 
       0.668861         102.443         42.9703 
       0.675024         102.207         42.0605 
       0.681124         100.547         41.1838 
       0.687237         99.6297         40.3287 
       0.693381         97.4979         39.4931 
       0.699536         97.1835         38.6798 
       0.705665         95.9242         37.8938 
       0.711789         94.3698         37.1315 
       0.717957         93.4432         36.3859 
        0.72409         92.1404         35.6656 
       0.730186         92.0211         34.9693 
       0.736317         90.8246         34.2878 
       0.742472         89.3048         33.6216 
       0.748622         87.9955         32.9732 
        0.75476          88.034          32.343 
       0.760888         86.8537           31.73 
       0.767043         85.2584         31.1303 
       0.773185         84.1033         30.5475 
       0.779291          83.625         29.9831 
       0.785407         82.9238         29.4323 
       0.791564         81.9824         28.8922 
       0.797719         80.6501          28.366 
       0.803834          80.634         27.8565 
       0.809972         79.6744         27.3577 
       0.816124         78.2078         26.8701 
       0.822261         77.6388         26.3956 
       0.828378         77.2351         25.9339 
       0.834502         76.6372         25.4829 
       0.840667         75.9965         25.0395 
       0.846816         74.8461          24.608 
       0.852925         74.3246         24.1892 
       0.859047         73.4702         23.7794 
       0.865192         72.9026         23.3776 
       0.871341         72.3861         22.9849 
       0.877463         71.5576          22.603 
       0.883569         71.4795         22.2307 
       0.889708         70.7275          21.865 
       0.895864         69.9241         21.5065 
       0.902008         69.0707         21.1569 
       0.908149         68.3496         20.8152 
       0.914301         67.9552         20.4805 
       0.920448         67.9194         20.1535 
       0.926574         66.5563         19.8348 
       0.932687         66.3893         19.5236 
       0.938823         65.9957          19.218 
       0.944975         65.3921         18.9182 
       0.951105         64.7218         18.6259 
       0.957225         64.2991         18.3403 
       0.963368         63.6732         18.0597 
       0.969511         63.2713         17.7849 
       0.975621         62.3034         17.5173 
       0.981748         62.2019         17.2546 
       0.987916         61.5485         16.9956 
        0.99406          61.263         16.7429 
        1.00019         60.6974         16.4958 
        1.00632         60.1094         16.2539 
        1.01246         59.7503         16.0165 
        1.01859         59.3777         15.7843 
        1.02471         59.0362         15.5569 
        1.03085         58.4318         15.3333 
        1.03698         57.9508         15.1145 
        1.04314         57.6057          14.899 
        1.04929         57.3416         14.6883 
        1.05541         56.6921         14.4824 
        1.06154         56.1822           14.28 
        1.06769         55.8094         14.0812 
        1.07382         55.4815         13.8868 
        1.07993         55.2695         13.6965 
        1.08607         54.8141          13.509 
        1.09222          54.369         13.3247 
        1.09836         53.9907         13.1442 
        1.10449          53.616         12.9672 
        1.11063         53.2466         12.7932 
        1.11677         53.1024         12.6225 
         1.1229          52.386         12.4552 
        1.12903         52.1021         12.2908 
        1.13518         51.6334         12.1292 
        1.14131         51.4458         11.9706 
        1.14745         51.2256         11.8149 
        1.15359         50.6756         11.6619 
        1.15973         50.5012         11.5116 
        1.16584         50.1675         11.3646 
        1.17197         49.7791         11.2199 
        1.17811         49.4978         11.0773 
        1.18424         49.0082         10.9376 
        1.19038         48.8183         10.7999 
        1.19652         48.6085         10.6646 
        1.20267         48.1225         10.5316 
        1.20881         47.7644         10.4009 
        1.21495         47.5715         10.2727 
        1.22108         47.3614         10.1466 
         1.2272         47.1311         10.0229 
        1.23334          46.859         9.90103 
        1.23949         46.3465         9.78086 
        1.24562         46.0716         9.66303 
        1.25174         46.0488          9.5473 
        1.25789         45.6815         9.43312 
        1.26402         45.2687           9.321 
        1.27014          45.015         9.21098 
        1.27628          44.803          9.1024 
        1.28244         44.7177         8.99536 
        1.28858         44.3811         8.89019 
        1.29471         43.9739         8.78692 
        1.30084         43.7213         8.68539 
        1.30697          43.464          8.5853 
        1.31312         43.3714         8.48664 
        1.31925         42.9434         8.38984 
        1.32537         42.7094         8.29464 
        1.33151         42.6183         8.20057 
        1.33765         42.2696         8.10801 
        1.34378         42.0566         8.01705 
        1.34992         41.7829         7.92743 
        1.35606         41.6102         7.83897 
         1.3622           41.32         7.75202 
        1.36833         41.1035          7.6666 
        1.37445         40.8676         7.58249 
        1.38059         40.5878         7.49939 
        1.38675         40.4056         7.41734 
        1.39288         40.2245         7.33683 
        1.39901         39.9466         7.25755 
        1.40515         39.6548         7.17925 
         1.4113          39.579         7.10214 
        1.41742         39.3202         7.02645 
        1.42355         39.1315         6.95172 
         1.4297         38.9025         6.87784 
        1.43585         38.8856         6.80506 
        1.44198         38.4469         6.73361 
        1.44809         38.2209         6.66332 
        1.45423         38.1923         6.59377 
        1.46036         37.9146         6.52533 
        1.46649         37.6287         6.45784 
        1.47263         37.4081         6.39124 
        1.47877         37.2313         6.32561 
        1.48491         36.9742          6.2608 
        1.49104         36.9323         6.19703 
        1.49718         36.6343         6.13409 
        1.50333         36.5335         6.07193 
        1.50947         36.2853         6.01075 
         1.5156         36.1545         5.95051 
        1.52172         35.9011         5.89109 
        1.52787         35.7976         5.83235 
          1.534         35.5559         5.77449 
        1.54013         35.4668         5.71747 
        1.54627         35.1553         5.66111 
        1.55241         35.0878         5.60551 
        1.55855         34.8786         5.55072 
        1.56467         34.5471         5.49682 
         1.5708         34.5897         5.44347 
        1.57695         34.3039         5.39076 
        1.58308         34.2037         5.33886 
        1.58922         33.9462          5.2876 
        1.59535         33.9374         5.23704 
         1.6015         33.7593         5.18706 
        1.60764         33.5642         5.13775 
        1.61376         33.3824         5.08922 
        1.61989         33.1174         5.04128 
        1.62604          32.988         4.99384 
        1.63218         32.8354         4.94704 
        1.63831         32.6694         4.90094 
        1.64444         32.5304         4.85541 
        1.65059         32.3841         4.81035 
        1.65673         32.2211          4.7659 
        1.66285          32.046         4.72214 
        1.66898         31.8794         4.67891 
        1.67512         31.6776         4.63614 
        1.68127         31.6262         4.59385 
         1.6874         31.5085         4.55219 
        1.69353         31.3186         4.51107 
        1.69967         31.1711         4.47035 
        1.70581         31.0409         4.43016 
        1.71193         30.7617         4.39061 
        1.71806         30.7124         4.35145 
        1.72421          30.487         4.31269 
        1.73035         30.4389         4.27445 
        1.73649         30.2705         4.23668 
        1.74262         30.1165         4.19939 
        1.74876         30.0476         4.16253 
        1.75489         29.8986         4.12618 
        1.76101         29.7851         4.09027 
        1.76715         29.6316         4.05474 
        1.77329         29.4708         4.01959 
        1.77943          29.301         3.98484 
        1.78557          29.237         3.95055 
        1.79171         29.0156         3.91665 
        1.79785         28.9313         3.88315 
        1.80399         28.7967         3.85004 
        1.81012         28.6276         3.81736 
        1.81625         28.5442         3.78507 
        1.82239         28.3654         3.75311 
        1.82853         28.2653         3.72153 
        1.83466         28.0963         3.69034 
        1.84078         27.9828         3.65954 
        1.84692         27.8824         3.62904 
        1.85306         27.7706         3.59885 
         1.8592         27.5496         3.56905 
        1.86533         27.4991         3.53961 
        1.87147         27.3176         3.51045 
        1.87761         27.2605         3.48162 
        1.88375         27.0818         3.45313 
        1.88988         26.9431           3.425 
        1.89601         26.8888         3.39716 
        1.90215         26.7666         3.36961 
        1.90829         26.6515         3.34237 
        1.91442         26.5135         3.31543 
        1.92056         26.3547         3.28882 
         1.9267         26.2548         3.26246 
        1.93284         26.1931         3.23638 
        1.93897         26.0409         3.21063 
        1.94509         25.9479         3.18521 
        1.95123         25.8293            3.16 
        1.95737         25.7296         3.13505 
        1.96349         25.6351         3.11043 
        1.96964         25.5577           3.086 
        1.97578         25.3857         3.06182 
        1.98192         25.2825         3.03795 
        1.98805         25.1537         3.01433 
        1.99419         25.0139         2.99095 
        2.00033         24.8948         2.96782 
        2.00647         24.7991         2.94493 
         2.0126         24.7421         2.92232 
        2.01874         24.6171         2.89991 
        2.02488         24.4881         2.87772 
        2.03101         24.4132          2.8558 
        2.03714         24.3314         2.83413 
        2.04328         24.2409         2.81266 
        2.04941          24.043         2.79142 
        2.05554         23.9601         2.77042 
        2.06167         23.8424         2.74961 
        2.06781         23.7674           2.729 
        2.07396         23.6624         2.70858 
        2.08009         23.5489          2.6884 
        2.08622         23.4651         2.66845 
        2.09237         23.3808         2.64866 
        2.09851         23.2332         2.62906 
        2.10464         23.2069          2.6097 
        2.11077         23.1035         2.59055 
        2.11691         22.9717         2.57156 
        2.12305         22.8463         2.55275 
        2.12918         22.7954         2.53417 
        2.13531         22.5959         2.51578 
        2.14145         22.5855         2.49752 
         2.1476         22.4773         2.47943 
        2.15372         22.4032          2.4616 
        2.15985          22.264         2.44393 
        2.16599         22.1618         2.42638 
        2.17213         22.1542         2.40903 
        2.17827         22.0236         2.39184 
         2.1844         21.9222         2.37484 
        2.19054         21.8713           2.358 
        2.19666         21.7292         2.34134 
         2.2028         21.6452         2.32483 
        2.20893          21.557         2.30846 
        2.21508         21.4774         2.29224 
        2.22122          21.372         2.27616 
        2.22736         21.2644         2.26028 
        2.23349         21.2141         2.24454 
        2.23962         21.1582         2.22895 
        2.24577         21.0633         2.21349 
         2.2519         20.9688          2.1982 
        2.25802         20.8404         2.18308 
        2.26417         20.7101         2.16806 
        2.27031         20.6624         2.15316 
        2.27644         20.5822         2.13844 
        2.28257         20.5312         2.12387 
        2.28872         20.4127          2.1094 
        2.29486         20.3492         2.09507 
        2.30099         20.2787          2.0809 
        2.30712         20.1768         2.06685 
        2.31326         20.0935         2.05291 
         2.3194         20.0053         2.03911 
        2.32553         19.9571         2.02545 
        2.33166         19.8466         2.01193 
         2.3378         19.7839         1.99851 
        2.34394         19.6893          1.9852 
        2.35007         19.5896         1.97204 
        2.35619         19.5196         1.95901 
        2.36233         19.4449         1.94607 
        2.36848         19.4039         1.93321 
        2.37462         19.3638          1.9205 
        2.38075         19.2233         1.90792 
        2.38689         19.1428         1.89543 
        2.39303         19.0589         1.88306 
        2.39916          19.005         1.87082 
        2.40529         18.9439         1.85868 
        2.41143         18.8645         1.84664 
        2.41757         18.7662          1.8347 
         2.4237         18.7009         1.82289 
        2.42983         18.5802         1.81118 
        2.43598         18.5107         1.79954 
        2.44211           18.44         1.78803 
        2.44823         18.3848         1.77664 
        2.45437         18.3145         1.76532 
        2.46052         18.2469         1.75408 
        2.46665         18.1604         1.74297 
        2.47279         18.0586         1.73195 
        2.47892         18.0702         1.72102 
        2.48507         17.9217         1.71018 
         2.4912         17.8712         1.69945 
