# k  (h/Mpc)    P(k)  (Mpc/h)^3    P_linear(k)  (Mpc/h)^3
     0.00783031         6125.35         6161.13 
       0.013688         8066.78         8229.89 
       0.019231         8809.49         8911.24 
      0.0249154         8791.05         8805.14 
      0.0312784         8102.66          8185.4 
      0.0375637         7294.07         7415.74 
      0.0433917         6700.04         6754.18 
      0.0492413         6111.68         6213.15 
      0.0555754         5699.77         5764.05 
      0.0619321         5214.64         5406.23 
       0.067871         4974.82         5099.91 
      0.0738098         4681.34         4780.69 
      0.0800417         4332.92          4416.3 
      0.0862327         3942.41         4035.97 
      0.0921407         3600.31         3681.87 
      0.0982031         3311.57         3354.89 
       0.104506         3000.09         3073.14 
       0.110769         2794.83          2855.9 
       0.116806         2681.19         2696.05 
       0.122832          2521.1         2567.64 
       0.129052         2409.19         2447.93 
       0.135211         2322.16         2326.41 
       0.141259         2170.23         2196.89 
       0.147318         2011.15         2058.32 
       0.153489         1898.81         1915.73 
       0.159709         1806.62         1780.61 
       0.165845         1655.52         1663.82 
       0.171974         1612.15         1567.26 
       0.178125         1551.11         1489.46 
       0.184229         1446.99         1426.57 
        0.19034         1419.25         1371.55 
       0.196428         1375.28         1318.65 
       0.202534         1292.76         1263.44 
       0.208729         1265.02         1203.85 
       0.214876         1215.89         1142.45 
       0.220989          1139.6         1082.01 
       0.227147         1114.41         1024.96 
        0.23329         1073.07         974.211 
       0.239377         1053.29         930.892 
       0.245482          1003.1         893.842 
       0.251667         966.132          861.19 
       0.257832         956.843         831.374 
       0.263955          908.82         802.579 
       0.270079         882.431         773.373 
        0.27624         845.418         743.247 
       0.282372         829.161         713.004 
        0.28843         822.503         683.738 
       0.294538         782.242         655.828 
       0.300721         758.851         629.912 
        0.30691         747.373         606.593 
       0.313033         717.896         585.901 
       0.319153          706.86         567.051 
       0.325316         693.588         549.244 
        0.33145         679.948         532.095 
       0.337538         656.917         515.243 
       0.343633         638.185         498.441 
       0.349808         623.126         481.592 
       0.355968         611.731         465.237 
       0.362074         595.142         449.747 
       0.368217          590.12         435.116 
       0.374374          579.41         421.477 
       0.380519         557.756         408.832 
       0.386598          551.15         397.119 
       0.392688         540.922          385.96 
        0.39888          526.71         375.017 
       0.405048         518.998         364.385 
       0.411186         515.729         354.003 
       0.417313         508.587         343.873 
       0.423458         494.027         334.005 
       0.429607         483.146         324.498 
       0.435692         474.807         315.528 
       0.441815         467.941         306.953 
       0.447964         457.694         298.777 
       0.454126         451.771         290.984 
       0.460267         445.484         283.544 
       0.466387         438.868         276.383 
        0.47254         432.963         269.393 
       0.478662         422.366          262.63 
       0.484765         418.406         256.064 
       0.490885         414.219         249.669 
       0.497035         407.672         243.456 
       0.503198         405.439         237.464 
       0.509342         394.957         231.721 
       0.515458         390.422         226.226 
       0.521598         383.167         220.922 
       0.527764         378.227         215.789 
       0.533884         377.748          210.86 
           0.54          371.04         206.079 
       0.546137          363.17         201.416 
       0.552299         362.503         196.869 
       0.558452         356.852          192.46 
       0.564573         353.319         188.205 
       0.570708         348.427          184.07 
       0.576825         342.699          180.08 
       0.582926         339.404         176.232 
       0.589034         335.501         172.504 
       0.595184         333.543         168.866 
       0.601379          327.13         165.312 
       0.607522         322.378         161.886 
       0.613639         320.158          158.57 
       0.619772           318.2         155.337 
       0.625918         314.552         152.187 
       0.632068          308.94         149.123 
       0.638161         305.917         146.171 
         0.6443         304.637         143.279 
       0.650464         299.836         140.457 
       0.656582         297.405         137.735 
       0.662703         295.396         135.088 
       0.668861         290.563         132.498 
       0.675024         289.617         129.976 
       0.681124         286.082         127.546 
       0.687237         283.014         125.173 
       0.693381         281.042         122.848 
       0.699536         277.471         120.579 
       0.705665         274.461         118.377 
       0.711789         272.404         116.232 
       0.717957         269.321         114.128 
        0.72409          267.56         112.089 
       0.730186         267.566         110.113 
       0.736317         263.052         108.176 
       0.742472         259.692         106.279 
       0.748622         256.482          104.43 
        0.75476         257.086          102.63 
       0.760888         254.188         100.875 
       0.767043         251.208          99.154 
       0.773185         249.252         97.4775 
       0.779291         246.014         95.8497 
       0.785407         244.716         94.2573 
       0.791564         242.539         92.6916 
       0.797719         239.509         91.1629 
       0.803834         240.078          89.679 
       0.809972         238.381         88.2234 
       0.816124         235.376         86.7976 
       0.822261         232.673         85.4076 
       0.828378         233.014         84.0527 
       0.834502         228.843         82.7266 
       0.840667         228.434         81.4208 
       0.846816         226.051         80.1473 
       0.852925         224.292         78.9094 
       0.859047         222.047         77.6954 
       0.865192          221.51         76.5033 
       0.871341         218.577         75.3358 
       0.877463         217.018         74.1982 
       0.883569         216.708         73.0874 
       0.889708         215.147         71.9939 
       0.895864         213.028         70.9203 
       0.902008         211.312         69.8712 
       0.908149         209.041         68.8442 
       0.914301         208.956         67.8365 
       0.920448         207.354         66.8501 
       0.926574         205.085         65.8872 
       0.932687         204.228         64.9455 
       0.938823         202.638          64.019 
       0.944975         200.574         63.1088 
       0.951105         199.354         62.2198 
       0.957225         198.851         61.3496 
       0.963368         196.901         60.4933 
       0.969511         194.776         59.6536 
       0.975621         193.755         58.8346 
       0.981748         192.191          58.029 
       0.987916         191.261         57.2336 
        0.99406         190.067         56.4563 
        1.00019         188.731         55.6952 
        1.00632         188.101          54.949 
        1.01246         186.463         54.2155 
        1.01859         184.889         53.4967 
        1.02471         183.537         52.7921 
        1.03085         182.533         52.0978 
        1.03698         181.166         51.4176 
        1.04314         180.441         50.7468 
        1.04929         179.622         50.0898 
        1.05541          178.32         49.4471 
        1.06154         177.363         48.8143 
        1.06769         175.421         48.1917 
        1.07382         174.636         47.5821 
        1.07993         173.757         46.9846 
        1.08607         172.113         46.3951 
        1.09222         171.597         45.8151 
        1.09836         169.982         45.2459 
        1.10449         168.798         44.6871 
        1.11063         167.805         44.1372 
        1.11677         167.089         43.5969 
         1.1229         165.716         43.0667 
        1.12903         165.294          42.545 
        1.13518         164.129         42.0315 
        1.14131         163.183          41.527 
        1.14745         161.721          41.031 
        1.15359         160.324         40.5432 
        1.15973         159.767         40.0632 
        1.16584         158.931         39.5933 
        1.17197         158.098         39.1303 
        1.17811         156.804         38.6733 
        1.18424         155.821         38.2251 
        1.19038         155.367         37.7827 
        1.19652         153.969         37.3476 
        1.20267         153.113         36.9195 
        1.20881          152.17         36.4982 
        1.21495         151.873         36.0842 
        1.22108         150.418         35.6768 
         1.2272         149.435         35.2767 
        1.23334         148.958         34.8818 
        1.23949         148.364         34.4922 
        1.24562         146.917         34.1096 
        1.25174         145.692         33.7335 
        1.25789         145.705         33.3619 
        1.26402         144.652         32.9967 
        1.27014         143.792         32.6379 
        1.27628         142.242         32.2833 
        1.28244         142.003         31.9335 
        1.28858         140.923         31.5893 
        1.29471         140.086          31.251 
        1.30084         139.376         30.9181 
        1.30697         139.111         30.5895 
        1.31312         137.966         30.2653 
        1.31925         136.951         29.9469 
        1.32537         136.339         29.6334 
        1.33151         135.907         29.3233 
        1.33765         134.464         29.0179 
        1.34378         134.576         28.7174 
        1.34992         133.743         28.4211 
        1.35606         132.679         28.1283 
         1.3622         132.271         27.8403 
        1.36833         130.929          27.557 
        1.37445         130.394         27.2778 
        1.38059         129.801         27.0017 
        1.38675         128.877         26.7287 
        1.39288         128.375         26.4607 
        1.39901         127.083         26.1965 
        1.40515         127.065         25.9354 
         1.4113         126.258         25.6779 
        1.41742          125.37          25.425 
        1.42355         124.702          25.175 
         1.4297         124.005         24.9277 
        1.43585         123.093         24.6838 
        1.44198         122.403         24.4441 
        1.44809         121.692         24.2081 
        1.45423         121.145         23.9744 
        1.46036         120.212         23.7442 
        1.46649         119.685          23.517 
        1.47263         119.266         23.2926 
        1.47877          118.49         23.0713 
        1.48491         117.608         22.8525 
        1.49104         116.661          22.637 
        1.49718         116.663         22.4242 
        1.50333         115.901         22.2138 
        1.50947         115.447         22.0066 
         1.5156         114.687         21.8023 
        1.52172         113.957         21.6006 
        1.52787         113.169         21.4012 
          1.534         113.016         21.2045 
        1.54013         112.329         21.0104 
        1.54627         111.375         20.8185 
        1.55241         110.798          20.629 
        1.55855         110.398         20.4421 
        1.56467         109.344         20.2581 
         1.5708         109.161         20.0759 
        1.57695         108.619         19.8956 
        1.58308         107.995         19.7179 
        1.58922         107.583         19.5424 
        1.59535         106.953          19.369 
         1.6015         106.511         19.1976 
        1.60764         105.781         19.0283 
        1.61376         105.109         18.8615 
        1.61989         104.342         18.6966 
        1.62604         103.946         18.5334 
        1.63218         103.577         18.3722 
        1.63831         102.817         18.2133 
        1.64444         102.347         18.0563 
        1.65059         101.804         17.9007 
        1.65673         101.019         17.7472 
        1.66285         100.574         17.5959 
        1.66898         99.8627         17.4463 
        1.67512          99.754         17.2982 
        1.68127         99.0554         17.1517 
         1.6874         98.5036         17.0072 
        1.69353         97.9656         16.8645 
        1.69967         97.6929         16.7231 
        1.70581         97.0845         16.5834 
        1.71193         96.5166         16.4459 
        1.71806         95.7521         16.3096 
        1.72421         95.4263         16.1746 
        1.73035         95.1973         16.0413 
        1.73649         94.4801         15.9096 
        1.74262         93.7056         15.7794 
        1.74876         93.4758         15.6506 
        1.75489         92.7088         15.5236 
        1.76101         92.3146          15.398 
        1.76715         92.0501         15.2736 
        1.77329         91.2864         15.1505 
        1.77943         91.0209         15.0287 
        1.78557         90.6641         14.9084 
        1.79171         89.9628         14.7894 
        1.79785         89.5252         14.6717 
        1.80399         89.0684         14.5553 
        1.81012         88.5401         14.4403 
        1.81625         88.3262         14.3267 
        1.82239         88.0063         14.2141 
        1.82853         87.2728         14.1027 
        1.83466         86.7846         13.9927 
        1.84078         86.3764          13.884 
        1.84692          86.017         13.7763 
        1.85306         85.5904         13.6696 
         1.8592         85.1508         13.5642 
        1.86533         84.5132           13.46 
        1.87147          84.148         13.3567 
        1.87761         83.6152         13.2545 
        1.88375         83.1435         13.1535 
        1.88988         82.8239         13.0537 
        1.89601         82.2794         12.9549 
        1.90215         81.8894          12.857 
        1.90829         81.6186         12.7602 
        1.91442         81.1703         12.6644 
        1.92056         80.5964         12.5696 
         1.9267         80.3316         12.4758 
        1.93284         80.0797         12.3828 
        1.93897         79.5909          12.291 
        1.94509          79.094         12.2003 
        1.95123         78.7689         12.1103 
        1.95737         78.0775         12.0211 
        1.96349         77.8111         11.9331 
        1.96964         77.4204         11.8457 
        1.97578         76.9897         11.7592 
        1.98192         76.6648         11.6737 
        1.98805         76.2045         11.5891 
        1.99419         75.7595         11.5053 
        2.00033          75.284         11.4223 
        2.00647         75.1431         11.3401 
         2.0126         74.6562         11.2589 
        2.01874         74.2666         11.1784 
        2.02488         74.0034         11.0985 
        2.03101         73.5764         11.0197 
        2.03714         73.3476         10.9416 
        2.04328         72.8969         10.8643 
        2.04941         72.3764         10.7877 
        2.05554         72.1714          10.712 
        2.06167         71.9297         10.6369 
        2.06781         71.2146         10.5625 
        2.07396         70.9667         10.4887 
        2.08009         70.7579         10.4158 
        2.08622         70.2886         10.3436 
        2.09237         69.8234          10.272 
        2.09851         69.4729          10.201 
        2.10464         69.2161         10.1309 
        2.11077         68.8466         10.0614 
        2.11691         68.4927         9.99253 
        2.12305         68.1048         9.92427 
        2.12918         67.7793         9.85682 
        2.13531          67.458         9.78999 
        2.14145         67.0222         9.72363 
         2.1476         66.7356         9.65781 
        2.15372         66.4642         9.59294 
        2.15985         66.0842          9.5286 
        2.16599         65.7416         9.46467 
        2.17213         65.5075          9.4014 
        2.17827         65.1004         9.33873 
         2.1844         64.7793         9.27669 
        2.19054         64.4238          9.2152 
        2.19666         63.9854         9.15435 
         2.2028         63.8655           9.094 
        2.20893         63.3842         9.03417 
        2.21508         63.1145         8.97482 
        2.22122         62.7522         8.91598 
        2.22736         62.4595          8.8578 
        2.23349         62.3027         8.80015 
        2.23962         61.7759         8.74299 
        2.24577         61.7031         8.68629 
         2.2519         61.2339         8.63017 
        2.25802         60.9782         8.57464 
        2.26417         60.6309         8.51945 
        2.27031         60.3736          8.4647 
        2.27644          60.036         8.41059 
        2.28257         59.7537         8.35696 
        2.28872          59.568          8.3037 
        2.29486         59.2842         8.25092 
        2.30099         58.8099         8.19871 
        2.30712         58.6512         8.14693 
        2.31326         58.2205         8.09552 
         2.3194          58.002         8.04458 
        2.32553         57.8109         7.99416 
        2.33166          57.301         7.94421 
         2.3378         57.0061         7.89461 
        2.34394         56.8523         7.84543 
        2.35007          56.458         7.79673 
        2.35619         56.3485         7.74851 
        2.36233         55.9202         7.70059 
        2.36848          55.683         7.65298 
        2.37462          55.457         7.60587 
        2.38075         55.2115         7.55921 
        2.38689          54.921          7.5129 
        2.39303         54.7579         7.46699 
        2.39916         54.4132         7.42151 
        2.40529         54.0987         7.37642 
        2.41143         53.8469         7.33168 
        2.41757         53.5107         7.28728 
         2.4237         53.4011         7.24334 
        2.42983         52.9975         7.19977 
        2.43598         52.6916         7.15644 
        2.44211         52.5632         7.11354 
        2.44823         52.3063         7.07109 
        2.45437         52.0553         7.02888 
        2.46052         51.6698         6.98698 
        2.46665         51.4678         6.94549 
        2.47279         51.2379         6.90436 
        2.47892          50.994         6.86353 
        2.48507         50.7261         6.82301 
         2.4912         50.4548         6.78288 
