# k  (h/Mpc)    Pcb(k)  (Mpc/h)^3    Pcb_linear(k)  (Mpc/h)^3
     0.00783031         685.909         690.104 
       0.013688         914.487         923.186 
       0.019231         996.205         1000.28 
      0.0249154         987.984         988.743 
      0.0312784         917.555         919.389 
      0.0375637         830.461         833.077 
      0.0433917         759.366         758.837 
      0.0492413         696.669         698.105 
      0.0555754         648.378         647.684 
      0.0619321         602.758         607.506 
       0.067871         571.417         573.104 
      0.0738098         536.101         537.245 
      0.0800417         496.197         496.308 
      0.0862327         452.546         453.575 
      0.0921407         412.665         413.787 
      0.0982031         377.237         377.043 
       0.104506         343.741         345.383 
       0.110769         319.655         320.971 
       0.116806         303.582         303.008 
       0.122832         287.501         288.578 
       0.129052         274.925         275.125 
       0.135211         262.094         261.469 
       0.141259         246.565         246.913 
       0.147318           229.9          231.34 
       0.153489         214.964         215.314 
       0.159709         200.666         200.129 
       0.165845         185.867         187.004 
       0.171974          177.23          176.15 
       0.178125         168.519         167.407 
       0.184229         160.421         160.339 
        0.19034         155.317         154.156 
       0.196428         149.209          148.21 
       0.202534         141.678         142.005 
       0.208729         136.167         135.308 
       0.214876         130.124         128.407 
       0.220989         121.805         121.613 
       0.227147         117.187         115.201 
        0.23329         111.773         109.498 
       0.239377         107.196         104.629 
       0.245482         102.643         100.465 
       0.251667         98.4776         96.7948 
       0.257832         96.0337         93.4437 
       0.263955         92.0343         90.2071 
       0.270079         88.8025         86.9245 
        0.27624         84.9281         83.5386 
       0.282372           81.79         80.1394 
        0.28843         79.5568         76.8502 
       0.294538         76.1904         73.7133 
       0.300721         72.8405         70.8005 
        0.30691         70.9346         68.1794 
       0.313033         68.3542         65.8537 
       0.319153         66.9753          63.735 
       0.325316         64.0233         61.7336 
        0.33145         62.0801          59.806 
       0.337538         60.3563          57.912 
       0.343633         58.6346         56.0236 
       0.349808         56.6593         54.1298 
       0.355968          54.772         52.2916 
       0.362074         53.4477         50.5505 
       0.368217         51.7821          48.906 
       0.374374         50.6977          47.373 
       0.380519         48.6821         45.9518 
       0.386598         47.2752         44.6353 
       0.392688         45.9645          43.381 
        0.39888         44.9872         42.1511 
       0.405048         43.8673          40.956 
       0.411186          42.662         39.7892 
       0.417313         41.5162         38.6506 
       0.423458         40.2468         37.5414 
       0.429607           39.51         36.4729 
       0.435692         38.6932         35.4647 
       0.441815         37.3383         34.5009 
       0.447964         36.2621          33.582 
       0.454126         35.6329          32.706 
       0.460267         35.1776         31.8697 
       0.466387         34.1535         31.0649 
        0.47254         33.5582         30.2793 
       0.478662         32.6249         29.5191 
       0.484765         31.9149         28.7811 
       0.490885         31.0388         28.0624 
       0.497035         30.3643         27.3641 
       0.503198         29.7301         26.6906 
       0.509342         28.9647          26.045 
       0.515458         28.5525         25.4274 
       0.521598         27.9115         24.8313 
       0.527764         27.5191         24.2543 
       0.533884         26.7376         23.7003 
           0.54           26.25         23.1629 
       0.546137         25.5098         22.6389 
       0.552299         25.0843         22.1277 
       0.558452         24.5898         21.6322 
       0.564573         24.2459         21.1539 
       0.570708         23.6895         20.6892 
       0.576825         23.2801         20.2407 
       0.582926         22.8251         19.8082 
       0.589034         22.4246         19.3891 
       0.595184         22.1208         18.9803 
       0.601379         21.5435         18.5808 
       0.607522         21.1974         18.1957 
       0.613639         20.7488          17.823 
       0.619772         20.4652         17.4596 
       0.625918         20.0425         17.1056 
       0.632068         19.8243         16.7612 
       0.638161         19.4297         16.4294 
         0.6443          19.087         16.1043 
       0.650464         18.6359         15.7872 
       0.656582         18.5124         15.4812 
       0.662703         18.2562         15.1837 
       0.668861         17.7732         14.8926 
       0.675024         17.5295         14.6091 
       0.681124         17.4588          14.336 
       0.687237         17.0869         14.0692 
       0.693381         16.6682          13.808 
       0.699536         16.5897         13.5529 
       0.705665         16.2889         13.3054 
       0.711789         15.9664         13.0643 
       0.717957          15.661         12.8278 
        0.72409         15.5173         12.5986 
       0.730186         15.3891         12.3766 
       0.736317         15.0755         12.1588 
       0.742472         14.8863         11.9456 
       0.748622         14.6663         11.7378 
        0.75476         14.3142         11.5354 
       0.760888         14.2187         11.3382 
       0.767043         13.9325         11.1448 
       0.773185         13.7743         10.9563 
       0.779291         13.7026         10.7734 
       0.785407         13.4329         10.5944 
       0.791564         13.2884         10.4184 
       0.797719         13.0392         10.2466 
       0.803834         12.9273         10.0798 
       0.809972          12.702         9.91619 
       0.816124         12.5542         9.75592 
       0.822261         12.4014         9.59969 
       0.828378         12.2196         9.44741 
       0.834502         12.0946         9.29835 
       0.840667         11.9765         9.15159 
       0.846816         11.7473         9.00845 
       0.852925         11.6285         8.86931 
       0.859047         11.4906         8.73286 
       0.865192         11.3362         8.59887 
       0.871341          11.174         8.46764 
       0.877463         11.0535         8.33978 
       0.883569         10.9455         8.21492 
       0.889708         10.7916         8.09202 
       0.895864         10.6596         7.97135 
       0.902008         10.5144         7.85343 
       0.908149         10.3877         7.73799 
       0.914301         10.3072         7.62473 
       0.920448         10.1638         7.51387 
       0.926574         10.1104         7.40563 
       0.932687         9.94532         7.29978 
       0.938823         9.80455         7.19565 
       0.944975         9.72345         7.09334 
       0.951105         9.57826         6.99342 
       0.957225         9.51688         6.89561 
       0.963368         9.41919         6.79937 
       0.969511         9.31153         6.70499 
       0.975621         9.19764         6.61293 
       0.981748         9.04774         6.52238 
       0.987916         8.97618         6.43298 
        0.99406         8.92938         6.34562 
        1.00019         8.83048         6.26007 
        1.00632         8.74402          6.1762 
        1.01246         8.62613         6.09375 
        1.01859         8.53472         6.01297 
        1.02471         8.41576         5.93376 
        1.03085          8.3833         5.85572 
        1.03698         8.29248         5.77927 
        1.04314         8.21523         5.70388 
        1.04929          8.0987         5.63002 
        1.05541         8.03032         5.55779 
        1.06154         7.96449         5.48666 
        1.06769         7.93091         5.41668 
        1.07382         7.79329         5.34817 
        1.07993         7.70639         5.28101 
        1.08607         7.66902         5.21475 
        1.09222          7.5659         5.14956 
        1.09836         7.55458         5.08558 
        1.10449          7.3987         5.02277 
        1.11063         7.37173         4.96097 
        1.11677         7.30962         4.90024 
         1.1229         7.23434         4.84065 
        1.12903         7.18903           4.782 
        1.13518         7.08027         4.72429 
        1.14131         7.02343         4.66758 
        1.14745         6.94399         4.61184 
        1.15359         6.89582         4.55701 
        1.15973         6.82877         4.50306 
        1.16584         6.77276         4.45024 
        1.17197         6.70596         4.39819 
        1.17811         6.64469         4.34683 
        1.18424         6.58847         4.29645 
        1.19038         6.53314         4.24673 
        1.19652         6.49198         4.19783 
        1.20267         6.43633          4.1497 
        1.20881         6.37268         4.10235 
        1.21495         6.31973         4.05582 
        1.22108         6.27529         4.01003 
         1.2272           6.196         3.96505 
        1.23334         6.18842         3.92068 
        1.23949         6.11723         3.87688 
        1.24562         6.06665         3.83388 
        1.25174         6.02536          3.7916 
        1.25789         5.94843         3.74984 
        1.26402         5.90516         3.70879 
        1.27014         5.86487         3.66846 
        1.27628         5.80683         3.62861 
        1.28244         5.78061         3.58928 
        1.28858         5.73973          3.5506 
        1.29471         5.66453         3.51258 
        1.30084         5.62386         3.47515 
        1.30697         5.59313         3.43823 
        1.31312         5.54944         3.40178 
        1.31925         5.50471         3.36599 
        1.32537         5.47069         3.33076 
        1.33151         5.41764          3.2959 
        1.33765         5.38037         3.26157 
        1.34378         5.34897         3.22781 
        1.34992         5.30717          3.1945 
        1.35606         5.26712         3.16159 
         1.3622         5.23069         3.12921 
        1.36833         5.17791         3.09737 
        1.37445         5.13619         3.06599 
        1.38059         5.10626         3.03496 
        1.38675         5.06637         3.00428 
        1.39288         5.04094         2.97415 
        1.39901         4.98795         2.94446 
        1.40515         4.95664          2.9151 
         1.4113          4.9274         2.88617 
        1.41742         4.88355         2.85774 
        1.42355         4.84608         2.82964 
         1.4297         4.82574         2.80184 
        1.43585         4.78734         2.77443 
        1.44198         4.75373         2.74749 
        1.44809         4.72943         2.72097 
        1.45423         4.69681          2.6947 
        1.46036         4.66302         2.66882 
        1.46649         4.61296         2.64329 
        1.47263         4.60256         2.61806 
        1.47877         4.57174         2.59318 
        1.48491         4.53334         2.56859 
        1.49104         4.50533         2.54438 
        1.49718         4.47761         2.52045 
        1.50333         4.44436         2.49681 
        1.50947         4.41081         2.47351 
         1.5156         4.38997         2.45055 
        1.52172         4.36301         2.42789 
        1.52787         4.33401         2.40547 
          1.534         4.30794         2.38336 
        1.54013         4.27325         2.36155 
        1.54627         4.24742         2.33998 
        1.55241         4.21467         2.31868 
        1.55855         4.19639         2.29767 
        1.56467         4.16849         2.27699 
         1.5708         4.14132          2.2565 
        1.57695         4.10473         2.23624 
        1.58308         4.07916         2.21628 
        1.58922         4.07219         2.19654 
        1.59535         4.03497         2.17706 
         1.6015         4.00402         2.15779 
        1.60764         3.98634         2.13876 
        1.61376         3.95881         2.12002 
        1.61989         3.93304         2.10148 
        1.62604         3.90763         2.08313 
        1.63218         3.89459         2.06501 
        1.63831         3.87482         2.04716 
        1.64444         3.84603          2.0295 
        1.65059         3.82929         2.01202 
        1.65673         3.79688         1.99476 
        1.66285         3.77551         1.97776 
        1.66898          3.7574         1.96095 
        1.67512         3.72593          1.9443 
        1.68127          3.7017         1.92783 
         1.6874         3.69968         1.91159 
        1.69353         3.65717         1.89555 
        1.69967         3.64472         1.87966 
        1.70581         3.63086         1.86396 
        1.71193         3.59479          1.8485 
        1.71806         3.57783         1.83318 
        1.72421           3.563         1.81801 
        1.73035         3.53684         1.80303 
        1.73649         3.52848         1.78822 
        1.74262         3.50427         1.77359 
        1.74876         3.48082         1.75912 
        1.75489         3.46768         1.74484 
        1.76101         3.44056         1.73072 
        1.76715         3.42934         1.71674 
        1.77329         3.40511          1.7029 
        1.77943          3.3888         1.68921 
        1.78557          3.3709         1.67569 
        1.79171         3.35844         1.66231 
        1.79785         3.33518         1.64908 
        1.80399          3.3174           1.636 
        1.81012         3.29551         1.62308 
        1.81625         3.27613          1.6103 
        1.82239         3.26152         1.59765 
        1.82853         3.24409         1.58513 
        1.83466         3.22057         1.57277 
        1.84078         3.20698         1.56055 
        1.84692         3.19149         1.54844 
        1.85306          3.1793         1.53645 
         1.8592         3.16026          1.5246 
        1.86533          3.1428         1.51289 
        1.87147         3.12672         1.50128 
        1.87761         3.11438          1.4898 
        1.88375          3.0964         1.47845 
        1.88988          3.0823         1.46722 
        1.89601          3.0604         1.45612 
        1.90215         3.04468         1.44511 
        1.90829         3.03681         1.43423 
        1.91442         3.01583         1.42346 
        1.92056         3.00655         1.41281 
         1.9267          2.9928         1.40226 
        1.93284         2.97549         1.39181 
        1.93897         2.95212         1.38149 
        1.94509         2.94938          1.3713 
        1.95123         2.92788         1.36118 
        1.95737         2.91767         1.35116 
        1.96349         2.90201         1.34127 
        1.96964         2.88777         1.33145 
        1.97578         2.87157         1.32172 
        1.98192          2.8542         1.31211 
        1.98805         2.84852          1.3026 
        1.99419         2.83074         1.29318 
        2.00033         2.81501         1.28385 
        2.00647         2.80807         1.27462 
         2.0126         2.79464         1.26549 
        2.01874         2.77938         1.25644 
        2.02488         2.76343         1.24747 
        2.03101         2.75373          1.2386 
        2.03714         2.74422         1.22983 
        2.04328         2.72616         1.22114 
        2.04941         2.71406         1.21253 
        2.05554         2.70416         1.20402 
        2.06167          2.6885         1.19558 
        2.06781         2.67669         1.18721 
        2.07396         2.66478         1.17892 
        2.08009         2.65543         1.17072 
        2.08622         2.64118         1.16261 
        2.09237         2.63323         1.15456 
        2.09851         2.61327         1.14658 
        2.10464         2.61296          1.1387 
        2.11077         2.59876          1.1309 
        2.11691          2.5824         1.12315 
        2.12305          2.5722         1.11548 
        2.12918         2.55842          1.1079 
        2.13531         2.54729         1.10039 
        2.14145          2.5384         1.09293 
         2.1476         2.52469         1.08553 
        2.15372         2.51087         1.07824 
        2.15985         2.50259         1.07101 
        2.16599         2.49614         1.06382 
        2.17213         2.48377         1.05671 
        2.17827         2.46984         1.04966 
         2.1844         2.46019         1.04269 
        2.19054         2.45053         1.03578 
        2.19666         2.44006         1.02894 
         2.2028         2.42733         1.02216 
        2.20893         2.41687         1.01543 
        2.21508         2.41146         1.00876 
        2.22122         2.40229         1.00215 
        2.22736         2.38281        0.995609 
        2.23349         2.37758        0.989129 
        2.23962         2.36865        0.982704 
        2.24577         2.35773        0.976331 
         2.2519         2.34537        0.970024 
        2.25802         2.34275        0.963782 
        2.26417         2.32972        0.957579 
        2.27031         2.31914        0.951425 
        2.27644         2.31191        0.945343 
        2.28257         2.29575        0.939315 
        2.28872         2.29198        0.933329 
        2.29486          2.2818        0.927397 
        2.30099          2.2692        0.921528 
        2.30712         2.26613        0.915708 
        2.31326         2.25514        0.909929 
         2.3194          2.2447        0.904203 
        2.32553         2.23863        0.898537 
        2.33166         2.23173        0.892922 
         2.3378         2.22027        0.887347 
        2.34394         2.20967        0.881819 
        2.35007         2.19739        0.876346 
        2.35619         2.19387        0.870926 
        2.36233         2.18277         0.86554 
        2.36848         2.17699        0.860189 
        2.37462         2.17016        0.854894 
        2.38075         2.15772        0.849649 
        2.38689         2.15281        0.844444 
        2.39303         2.14553        0.839284 
        2.39916          2.1319        0.834172 
        2.40529         2.12881        0.829104 
        2.41143          2.1189        0.824074 
        2.41757         2.11223        0.819085 
         2.4237         2.10466        0.814145 
        2.42983          2.0927        0.809248 
        2.43598         2.08925        0.804378 
        2.44211         2.07928        0.799556 
        2.44823         2.07224        0.794785 
        2.45437         2.06556         0.79004 
        2.46052         2.05687        0.785331 
        2.46665         2.05008        0.780668 
        2.47279         2.03906        0.776044 
        2.47892         2.03366        0.771456 
        2.48507         2.02481          0.7669 
         2.4912         2.01843         0.76239 
