# k  (h/Mpc)    Pcb(k)  (Mpc/h)^3    Pcb_linear(k)  (Mpc/h)^3
     0.00783031         19574.6         19677.3 
       0.013688         22501.9         23153.6 
       0.019231         22187.8         22566.6 
      0.0249154         20252.2         20183.3 
      0.0312784         16817.4         16992.5 
      0.0375637         13988.8         14245.7 
      0.0433917         12284.2           12355 
      0.0492413           10896         11043.5 
      0.0555754         9998.64         10062.4 
      0.0619321         8916.31         9269.02 
       0.067871         8328.07         8520.46 
      0.0738098         7625.87         7698.48 
      0.0800417         6773.89         6791.07 
      0.0862327         5924.89         5935.37 
      0.0921407         5308.03         5241.75 
      0.0982031         4843.62         4695.08 
       0.104506         4361.48         4295.99 
       0.110769         4106.54          4023.4 
       0.116806         3947.19         3817.93 
       0.122832         3708.71         3616.72 
       0.129052          3462.3          3381.1 
       0.135211         3306.23         3116.25 
       0.141259         3006.81         2844.63 
       0.147318         2755.71         2588.11 
       0.153489         2575.25         2365.48 
       0.159709         2473.79         2190.62 
       0.165845         2278.15         2062.88 
       0.171974         2227.57         1966.15 
       0.178125         2159.49         1882.91 
       0.184229          1989.6         1799.45 
        0.19034         1952.04         1707.12 
       0.196428         1882.79         1606.28 
       0.202534         1757.01            1502 
       0.208729         1714.66         1401.21 
       0.214876         1627.13         1312.92 
       0.220989         1548.14         1239.77 
       0.227147         1504.48         1180.01 
        0.23329         1446.27         1130.59 
       0.239377          1439.2         1086.85 
       0.245482         1369.35          1043.9 
       0.251667         1318.66         998.824 
       0.257832         1292.84             952 
       0.263955         1232.12         905.014 
       0.270079         1195.54         859.739 
        0.27624         1146.23         817.907 
       0.282372         1131.48         781.007 
        0.28843         1108.72         749.176 
       0.294538         1058.71         720.779 
       0.300721         1038.71         694.493 
        0.30691         1011.21         669.279 
       0.313033         972.392         644.603 
       0.319153         961.735           619.9 
       0.325316         948.319         595.289 
        0.33145         924.893         571.566 
       0.337538         893.755         549.355 
       0.343633         873.176         528.766 
       0.349808         856.158         509.678 
       0.355968         839.178         492.172 
       0.362074         811.568         475.975 
       0.368217         808.281         460.467 
       0.374374         796.339         445.387 
       0.380519          767.22         430.689 
       0.386598         762.185         416.487 
       0.392688         742.578         402.705 
        0.39888           727.5         389.303 
       0.405048         711.673         376.655 
       0.411186         710.969           364.8 
       0.417313         704.017         353.663 
       0.423458         684.176         343.078 
       0.429607         665.272         332.961 
       0.435692         658.734          323.33 
       0.441815         645.915         313.943 
       0.447964         637.488           304.8 
       0.454126         629.392         295.945 
       0.460267         621.012         287.449 
       0.466387         608.313         279.323 
        0.47254         600.959         271.511 
       0.478662          590.93         264.092 
       0.484765         583.286         257.011 
       0.490885         578.719         250.191 
       0.497035         565.994         243.587 
       0.503198         565.424           237.2 
       0.509342         554.573         231.041 
       0.515458         543.689         225.106 
       0.521598           542.2         219.346 
       0.527764         529.809         213.768 
       0.533884         523.711         208.434 
           0.54         520.219         203.298 
       0.546137         511.723         198.329 
       0.552299         508.655         193.515 
       0.558452         501.562         188.873 
       0.564573         499.228         184.408 
       0.570708          492.42         180.075 
       0.576825          483.05         175.887 
       0.582926          481.98         171.841 
       0.589034         473.934         167.915 
       0.595184          469.95         164.089 
       0.601379         462.494         160.361 
       0.607522         454.826         156.782 
       0.613639         454.253         153.331 
       0.619772         451.561         149.976 
       0.625918         443.141         146.715 
       0.632068         441.673          143.55 
       0.638161         436.398         140.507 
         0.6443         430.607          137.53 
       0.650464         427.474         134.629 
       0.656582         423.628         131.833 
       0.662703          420.24         129.116 
       0.668861         413.972         126.462 
       0.675024         412.624          123.88 
       0.681124         403.768         121.397 
       0.687237         403.982         118.978 
       0.693381         397.787         116.615 
       0.699536         397.992         114.312 
       0.705665         391.902         112.081 
       0.711789         390.393         109.913 
       0.717957         385.896         107.788 
        0.72409          381.83         105.731 
       0.730186         382.129          103.74 
       0.736317         376.104          101.79 
       0.742472         372.797         99.8839 
       0.748622         371.703         98.0283 
        0.75476         366.841         96.2241 
       0.760888         364.945         94.4683 
       0.767043         361.824         92.7497 
       0.773185         358.807         91.0776 
       0.779291         355.632         89.4565 
       0.785407         352.961         87.8728 
       0.791564         351.301         86.3177 
       0.797719         345.796         84.8013 
       0.803834         346.535         83.3311 
       0.809972         341.035         81.8907 
       0.816124         338.807         80.4815 
       0.822261         336.585         79.1094 
       0.828378         334.816         77.7736 
       0.834502         329.778         76.4677 
       0.840667         329.418         75.1835 
       0.846816         325.221         73.9326 
       0.852925         325.793         72.7182 
       0.859047         321.716         71.5286 
       0.865192         320.138         70.3619 
       0.871341         316.659         69.2206 
       0.877463         315.512         68.1099 
       0.883569         313.215         67.0265 
       0.889708         310.124         65.9612 
       0.895864         306.435         64.9165 
       0.902008         305.582         63.8968 
       0.908149         302.467         62.8996 
       0.914301         301.708         61.9223 
       0.920448         298.332         60.9667 
       0.926574         296.446         60.0348 
       0.932687         296.047         59.1244 
       0.938823         292.653         58.2297 
       0.944975         292.263         57.3516 
       0.951105          289.65         56.4949 
       0.957225         286.285         55.6572 
       0.963368         286.652         54.8337 
       0.969511         282.519         54.0269 
       0.975621         280.032         53.2408 
       0.981748         279.756         52.4684 
       0.987916         277.917         51.7065 
        0.99406          275.21         50.9626 
        1.00019         272.875         50.2349 
        1.00632          272.25         49.5222 
        1.01246         270.254         48.8223 
        1.01859         267.668         48.1371 
        1.02471         266.007         47.4659 
        1.03085         264.846         46.8052 
        1.03698         263.597         46.1586 
        1.04314         262.159         45.5215 
        1.04929         260.467         44.8979 
        1.05541         258.943         44.2885 
        1.06154         256.422          43.689 
        1.06769         254.776         43.0997 
        1.07382         252.708         42.5232 
        1.07993         252.074         41.9586 
        1.08607         250.582          41.402 
        1.09222         248.324          40.855 
        1.09836         247.176         40.3185 
        1.10449          245.81         39.7923 
        1.11063         244.291          39.275 
        1.11677         241.868          38.767 
         1.1229          241.78          38.269 
        1.12903         239.046         37.7793 
        1.13518         237.761         37.2978 
        1.14131         236.641          36.825 
        1.14745          234.61         36.3606 
        1.15359         233.178         35.9042 
        1.15973         232.077         35.4555 
        1.16584         230.712         35.0165 
        1.17197         229.665         34.5844 
        1.17811         227.157         34.1582 
        1.18424         226.205         33.7405 
        1.19038         225.361         33.3285 
        1.19652          222.94         32.9237 
        1.20267         222.126         32.5255 
        1.20881         220.866         32.1341 
        1.21495         219.732         31.7497 
        1.22108         218.381         31.3717 
         1.2272         216.487         31.0008 
        1.23334         215.129          30.635 
        1.23949         214.263         30.2742 
        1.24562         212.786         29.9203 
        1.25174         212.281         29.5726 
        1.25789         210.055         29.2294 
        1.26402         209.525         28.8922 
        1.27014         208.283         28.5612 
        1.27628         207.101         28.2344 
        1.28244          205.17         27.9121 
        1.28858         204.571         27.5953 
        1.29471         203.013          27.284 
        1.30084         202.755         26.9779 
        1.30697         200.761          26.676 
        1.31312         199.962         26.3783 
        1.31925         198.651         26.0861 
        1.32537         198.018         25.7986 
        1.33151         196.032         25.5144 
        1.33765         195.233         25.2347 
        1.34378         194.468         24.9597 
        1.34992          192.66         24.6886 
        1.35606         192.035          24.421 
         1.3622         190.295         24.1579 
        1.36833         190.116         23.8992 
        1.37445         189.173         23.6445 
        1.38059         187.062         23.3928 
        1.38675         185.828         23.1441 
        1.39288         185.395            22.9 
        1.39901         183.875         22.6595 
        1.40515         182.961          22.422 
         1.4113         182.262          22.188 
        1.41742         180.878         21.9582 
        1.42355         179.695         21.7312 
         1.4297         178.939         21.5068 
        1.43585         178.318         21.2856 
        1.44198         176.768         21.0684 
        1.44809         176.314         20.8547 
        1.45423           175.2         20.6431 
        1.46036         174.321         20.4348 
        1.46649         172.885         20.2294 
        1.47263         172.324         20.0266 
        1.47877         171.283         19.8267 
        1.48491         170.047         19.6292 
        1.49104         168.633         19.4348 
        1.49718         168.218         19.2429 
        1.50333         166.786         19.0532 
        1.50947         166.125         18.8665 
         1.5156         165.193         18.6826 
        1.52172         164.272         18.5012 
        1.52787         163.537         18.3218 
          1.534         162.843          18.145 
        1.54013         161.678         17.9707 
        1.54627         161.012         17.7984 
        1.55241         160.098         17.6283 
        1.55855           159.1         17.4607 
        1.56467         158.237         17.2957 
         1.5708         157.268         17.1324 
        1.57695         156.609          16.971 
        1.58308         155.411          16.812 
        1.58922         154.489         16.6549 
        1.59535         153.692         16.4999 
         1.6015         152.905         16.3467 
        1.60764         151.876         16.1955 
        1.61376         151.161         16.0466 
        1.61989         150.278         15.8995 
        1.62604         149.684         15.7539 
        1.63218         148.662         15.6102 
        1.63831         148.034         15.4686 
        1.64444         146.922         15.3287 
        1.65059         146.168         15.1903 
        1.65673         145.305         15.0537 
        1.66285         144.696         14.9191 
        1.66898         143.844         14.7862 
        1.67512          142.73         14.6546 
        1.68127         142.285         14.5245 
         1.6874         141.452         14.3963 
        1.69353         140.837         14.2697 
        1.69967           139.9         14.1443 
        1.70581         139.376         14.0205 
        1.71193         138.615         13.8986 
        1.71806         137.494         13.7779 
        1.72421         136.763         13.6585 
        1.73035         136.225         13.5405 
        1.73649         135.422          13.424 
        1.74262          134.52         13.3089 
        1.74876         133.868         13.1952 
        1.75489         133.604         13.0829 
        1.76101         132.424         12.9721 
        1.76715          131.82         12.8623 
        1.77329         131.061         12.7537 
        1.77943         130.085         12.6463 
        1.78557         129.388         12.5403 
        1.79171         128.717         12.4355 
        1.79785         127.919         12.3319 
        1.80399         127.344         12.2294 
        1.81012         126.954         12.1283 
        1.81625         125.848         12.0284 
        1.82239         125.599         11.9294 
        1.82853         124.562         11.8316 
        1.83466         123.674          11.735 
        1.84078         123.395         11.6395 
        1.84692         122.679          11.545 
        1.85306         121.941         11.4514 
         1.8592         121.403          11.359 
        1.86533         120.589         11.2677 
        1.87147         119.787         11.1773 
        1.87761         119.336         11.0878 
        1.88375         118.618         10.9994 
        1.88988         118.039          10.912 
        1.89601           117.4         10.8256 
        1.90215         116.944           10.74 
        1.90829         116.027         10.6554 
        1.91442         115.349         10.5717 
        1.92056         115.059          10.489 
         1.9267         114.203         10.4071 
        1.93284         113.435          10.326 
        1.93897          113.21         10.2459 
        1.94509         112.399         10.1668 
        1.95123         111.794         10.0884 
        1.95737         111.317         10.0107 
        1.96349         110.627          9.9341 
        1.96964         109.929         9.85804 
        1.97578         109.454         9.78274 
        1.98192         108.952         9.70838 
        1.98805         108.512         9.63478 
        1.99419         107.754         9.56194 
        2.00033          107.15         9.48982 
        2.00647         106.715         9.41846 
         2.0126         106.026         9.34796 
        2.01874         105.254         9.27807 
        2.02488         105.022         9.20883 
        2.03101         104.441         9.14042 
        2.03714         103.751         9.07278 
        2.04328          103.38         9.00574 
        2.04941         102.594         8.93943 
        2.05554         102.387         8.87384 
        2.06167          101.64         8.80882 
        2.06781         101.287         8.74444 
        2.07396         100.558         8.68061 
        2.08009         99.9926         8.61753 
        2.08622         99.5769         8.55515 
        2.09237         98.9032         8.49326 
        2.09851         98.5082         8.43197 
        2.10464         98.1057         8.37139 
        2.11077         97.4857         8.31148 
        2.11691         96.8613         8.25202 
        2.12305         96.3014         8.19314 
        2.12918          95.942         8.13497 
        2.13531          95.525         8.07736 
        2.14145         95.0213         8.02018 
         2.1476         94.4312         7.96349 
        2.15372          93.907         7.90762 
        2.15985         93.5123         7.85224 
        2.16599         92.7625         7.79722 
        2.17213          92.567          7.7428 
        2.17827         92.0593          7.6889 
         2.1844         91.5262         7.63557 
        2.19054         91.0051         7.58272 
        2.19666         90.4245         7.53045 
         2.2028         90.2726         7.47863 
        2.20893         89.7516         7.42726 
        2.21508         89.0264         7.37633 
        2.22122         88.6225         7.32585 
        2.22736         88.4147         7.27595 
        2.23349         87.9184         7.22652 
        2.23962         87.4313         7.17753 
        2.24577          86.811         7.12895 
         2.2519         86.4205         7.08089 
        2.25802         86.0054         7.03334 
        2.26417         85.5287          6.9861 
        2.27031         84.9425         6.93925 
        2.27644         84.6398         6.89297 
        2.28257         84.4411         6.84711 
        2.28872         83.8533         6.80157 
        2.29486         83.4314         6.75647 
        2.30099         82.9757         6.71186 
        2.30712         82.6347         6.66763 
        2.31326         82.1036         6.62373 
         2.3194         81.7734         6.58025 
        2.32553         81.3645         6.53723 
        2.33166          80.943         6.49461 
         2.3378         80.4613         6.45232 
        2.34394         80.0756         6.41039 
        2.35007         79.6141         6.36888 
        2.35619         79.0632          6.3278 
        2.36233         78.7196         6.28698 
        2.36848         78.5276         6.24644 
        2.37462         78.0601         6.20634 
        2.38075         77.6332         6.16663 
        2.38689         77.3597         6.12724 
        2.39303          77.035         6.08819 
        2.39916          76.469         6.04953 
        2.40529         76.1837          6.0112 
        2.41143         75.6809         5.97318 
        2.41757          75.168         5.93547 
         2.4237         74.9975         5.89815 
        2.42983         74.5724         5.86116 
        2.43598         74.2903         5.82439 
        2.44211         73.8915         5.78799 
        2.44823         73.4255         5.75198 
        2.45437         73.2324         5.71619 
        2.46052         72.7968         5.68066 
        2.46665         72.2599          5.6455 
        2.47279         71.9694         5.61065 
        2.47892         71.6519         5.57607 
        2.48507         71.3379         5.54175 
         2.4912         70.9702         5.50778 
