# k  (h/Mpc)    Pcb(k)  (Mpc/h)^3    Pcb_linear(k)  (Mpc/h)^3
     0.00783031         9987.02         10047.9 
       0.013688         11576.5         11826.2 
       0.019231         11396.6         11527.7 
      0.0249154         10349.5         10310.9 
      0.0312784          8639.7         8681.21 
      0.0375637         7201.68         7278.15 
      0.0433917         6307.59         6312.29 
      0.0492413         5602.53         5642.28 
      0.0555754         5141.77         5141.12 
      0.0619321         4618.68         4735.78 
       0.067871         4304.99         4353.34 
      0.0738098         3919.01         3933.39 
      0.0800417         3478.94         3469.78 
      0.0862327         3035.05         3032.58 
      0.0921407         2699.75          2678.2 
      0.0982031         2450.09         2398.89 
       0.104506         2209.28         2194.98 
       0.110769         2077.15         2055.71 
       0.116806         1997.42         1950.73 
       0.122832         1871.66         1847.93 
       0.129052         1756.66         1727.54 
       0.135211         1655.48         1592.22 
       0.141259         1504.45         1453.44 
       0.147318         1366.01         1322.37 
       0.153489         1268.45         1208.62 
       0.159709         1204.14         1119.28 
       0.165845         1108.08         1054.01 
       0.171974          1086.4         1004.59 
       0.178125         1044.87          962.06 
       0.184229         973.186         919.418 
        0.19034         944.684         872.243 
       0.196428         903.383         820.718 
       0.202534         833.638         767.439 
       0.208729         809.241         715.939 
       0.214876         768.412         670.828 
       0.220989         718.672         633.453 
       0.227147          701.12          602.92 
        0.23329         674.571          577.67 
       0.239377          663.56         555.318 
       0.245482         629.188         533.375 
       0.251667         603.157         510.344 
       0.257832           593.1         486.419 
       0.263955         558.527         462.412 
       0.270079         536.176         439.279 
        0.27624         512.644         417.905 
       0.282372          500.12         399.051 
        0.28843         494.948         382.788 
       0.294538         469.659         368.279 
       0.300721         455.084         354.848 
        0.30691         446.737         341.965 
       0.313033         426.278         329.357 
       0.319153         418.638         316.735 
       0.325316         409.333          304.16 
        0.33145         398.367         292.039 
       0.337538         383.361          280.69 
       0.343633         371.621          270.17 
       0.349808         361.529         260.418 
       0.355968         354.163         251.473 
       0.362074         342.681         243.197 
       0.368217          339.13         235.274 
       0.374374         331.557         227.568 
       0.380519         317.862         220.058 
       0.386598         313.406         212.802 
       0.392688          305.14          205.76 
        0.39888         297.639         198.913 
       0.405048          291.35          192.45 
       0.411186         289.337         186.393 
       0.417313         284.113         180.703 
       0.423458         276.194         175.294 
       0.429607         268.628         170.125 
       0.435692         264.299         165.204 
       0.441815          259.17         160.408 
       0.447964         252.308         155.736 
       0.454126         248.798         151.212 
       0.460267         245.201         146.871 
       0.466387         239.845         142.719 
        0.47254         236.743         138.728 
       0.478662         230.268         134.937 
       0.484765         227.177         131.319 
       0.490885         223.985         127.834 
       0.497035         220.513          124.46 
       0.503198         218.537         121.196 
       0.509342         212.841         118.049 
       0.515458         209.655         115.017 
       0.521598         205.077         112.074 
       0.527764         202.882         109.224 
       0.533884         201.718         106.498 
           0.54         197.427         103.874 
       0.546137         192.948         101.335 
       0.552299         191.244         98.8755 
       0.558452         187.961          96.504 
       0.564573         186.816         94.2225 
       0.570708         182.451         92.0084 
       0.576825         179.909          89.869 
       0.582926         178.058         87.8013 
       0.589034         175.282         85.7957 
       0.595184         173.791         83.8408 
       0.601379         170.597         81.9358 
       0.607522          166.99         80.1073 
       0.613639         165.996         78.3436 
       0.619772         164.281         76.6295 
       0.625918         162.673         74.9636 
       0.632068         159.079         73.3464 
       0.638161         157.899         71.7913 
         0.6443         156.549         70.2703 
       0.650464         153.553         68.7882 
       0.656582         152.555         67.3596 
       0.662703         151.165         65.9716 
       0.668861         148.028         64.6151 
       0.675024         147.887          63.296 
       0.681124         145.619         62.0274 
       0.687237         143.984         60.7915 
       0.693381         142.182         59.5837 
       0.699536         140.817         58.4071 
       0.705665          139.28         57.2675 
       0.711789         137.415         56.1596 
       0.717957         135.996         55.0737 
        0.72409         134.471         54.0227 
       0.730186         134.569         53.0056 
       0.736317          132.44         52.0094 
       0.742472         130.393         51.0353 
       0.748622         128.496         50.0872 
        0.75476         128.974         49.1654 
       0.760888         127.376         48.2682 
       0.767043         125.084         47.3901 
       0.773185         123.855         46.5358 
       0.779291         122.445         45.7075 
       0.785407          121.66         44.8983 
       0.791564         120.672         44.1037 
       0.797719         118.821         43.3289 
       0.803834         118.934         42.5777 
       0.809972          117.76         41.8418 
       0.816124          115.86         41.1217 
       0.822261         114.991         40.4206 
       0.828378         114.659         39.7381 
       0.834502         113.174         39.0709 
       0.840667         112.602         38.4147 
       0.846816         111.205         37.7756 
       0.852925         110.182         37.1551 
       0.859047         109.342         36.5473 
       0.865192         108.535         35.9512 
       0.871341         107.422          35.368 
       0.877463         106.467         34.8005 
       0.883569         106.412         34.2469 
       0.889708         105.344         33.7026 
       0.895864         104.365         33.1689 
       0.902008         103.217         32.6478 
       0.908149         101.981         32.1383 
       0.914301         101.827          31.639 
       0.920448         101.612         31.1507 
       0.926574         99.5961         30.6746 
       0.932687         99.5792         30.2094 
       0.938823         98.8136         29.7523 
       0.944975          97.836         29.3036 
       0.951105         96.9221         28.8658 
       0.957225         96.6304         28.4378 
       0.963368         95.6109         28.0171 
       0.969511         95.0074         27.6049 
       0.975621         93.8743         27.2032 
       0.981748         93.3432         26.8085 
       0.987916         92.7324         26.4192 
        0.99406         92.3891         26.0392 
        1.00019         91.3635         25.6674 
        1.00632         90.6383         25.3032 
        1.01246         90.1841         24.9456 
        1.01859          89.699         24.5955 
        1.02471          89.023         24.2525 
        1.03085         88.1644          23.915 
        1.03698         87.5394         23.5846 
        1.04314         87.0104          23.259 
        1.04929         86.6515         22.9404 
        1.05541         85.9271          22.629 
        1.06154         85.3114         22.3227 
        1.06769         84.7693         22.0216 
        1.07382         84.0954         21.7271 
        1.07993         83.7235         21.4386 
        1.08607         83.1114         21.1542 
        1.09222         82.6889         20.8747 
        1.09836         81.9498         20.6006 
        1.10449         81.4898         20.3317 
        1.11063         80.9604         20.0674 
        1.11677         80.4651         19.8079 
         1.1229         79.7228         19.5534 
        1.12903         79.4039         19.3032 
        1.13518         78.9214         19.0572 
        1.14131          78.384         18.8156 
        1.14745         78.0684         18.5783 
        1.15359         77.0744         18.3451 
        1.15973         76.9611         18.1159 
        1.16584         76.4717         17.8916 
        1.17197         76.0458         17.6708 
        1.17811         75.4044          17.453 
        1.18424         74.8473         17.2396 
        1.19038         74.6731         17.0291 
        1.19652          74.204         16.8222 
        1.20267          73.679         16.6188 
        1.20881         73.2038         16.4188 
        1.21495         72.7669         16.2224 
        1.22108         72.5528         16.0293 
         1.2272         71.8353         15.8397 
        1.23334         71.6808         15.6528 
        1.23949         71.1489         15.4685 
        1.24562         70.5624         15.2877 
        1.25174         70.3153           15.11 
        1.25789         70.0017         14.9347 
        1.26402         69.5568         14.7624 
        1.27014         69.1509         14.5933 
        1.27628         68.6629         14.4263 
        1.28244         68.5874         14.2616 
        1.28858         67.9648         14.0997 
        1.29471         67.5571         13.9407 
        1.30084         66.9803         13.7843 
        1.30697         66.9826           13.63 
        1.31312         66.5288         13.4779 
        1.31925         65.9731         13.3286 
        1.32537          65.719         13.1817 
        1.33151         65.4724         13.0365 
        1.33765         65.0409         12.8936 
        1.34378         64.6267         12.7531 
        1.34992         64.4495         12.6146 
        1.35606         63.9571         12.4778 
         1.3622         63.7901         12.3434 
        1.36833         63.2767         12.2112 
        1.37445          62.837         12.0811 
        1.38059         62.6694         11.9524 
        1.38675         62.0733         11.8254 
        1.39288         61.9517         11.7007 
        1.39901         61.4452         11.5778 
        1.40515         61.2567         11.4564 
         1.4113          60.957         11.3369 
        1.41742         60.5425         11.2195 
        1.42355         60.4065         11.1035 
         1.4297         60.0201         10.9888 
        1.43585         59.6838         10.8758 
        1.44198         59.3144         10.7648 
        1.44809         58.8871         10.6556 
        1.45423         58.7885         10.5475 
        1.46036         58.4255         10.4411 
        1.46649          58.069         10.3361 
        1.47263         57.7891         10.2325 
        1.47877         57.5527         10.1304 
        1.48491         57.1576         10.0295 
        1.49104         56.8087         9.93013 
        1.49718         56.6287         9.83207 
        1.50333         56.3659         9.73519 
        1.50947         56.1164          9.6398 
         1.5156         55.9136         9.54583 
        1.52172         55.4452         9.45312 
        1.52787         55.1522         9.36146 
          1.534         54.8521         9.27112 
        1.54013         54.8185         9.18206 
        1.54627           54.27         9.09402 
        1.55241         54.1394         9.00712 
        1.55855          53.763         8.92148 
        1.56467         53.3461         8.83719 
         1.5708          53.343         8.75375 
        1.57695          52.986         8.67126 
        1.58308         52.7255         8.59003 
        1.58922         52.4909         8.50978 
        1.59535         52.4011         8.43059 
         1.6015         52.1824          8.3523 
        1.60764         51.8237         8.27504 
        1.61376         51.5609         8.19897 
        1.61989         51.1211         8.12379 
        1.62604         51.0174         8.04939 
        1.63218         50.7245         7.97597 
        1.63831         50.5732         7.90364 
        1.64444         50.3911         7.83217 
        1.65059         50.0054         7.76142 
        1.65673         49.7747         7.69162 
        1.66285         49.5408         7.62288 
        1.66898         49.2152         7.55496 
        1.67512         48.9822         7.48773 
        1.68127         48.9136         7.42125 
         1.6874         48.6074         7.35574 
        1.69353         48.3334         7.29105 
        1.69967          48.172         7.22699 
        1.70581         47.8799         7.16372 
        1.71193         47.6664         7.10146 
        1.71806         47.4773         7.03979 
        1.72421         47.2735         6.97874 
        1.73035         47.0357         6.91848 
        1.73649         46.7328         6.85895 
        1.74262         46.4283         6.80016 
        1.74876         46.4627         6.74202 
        1.75489         46.1243         6.68469 
        1.76101         45.9565         6.62803 
        1.76715         45.7319         6.57196 
        1.77329         45.3802         6.51646 
        1.77943         45.4073         6.46159 
        1.78557         45.0885         6.40742 
        1.79171          44.855         6.35387 
        1.79785          44.688         6.30092 
        1.80399         44.4356         6.24858 
        1.81012         44.2291         6.19691 
        1.81625         43.9987         6.14585 
        1.82239           43.79         6.09528 
        1.82853         43.6155         6.04531 
        1.83466         43.4267         5.99595 
        1.84078         43.2101         5.94719 
        1.84692         43.0712         5.89889 
        1.85306         42.8187         5.85107 
         1.8592         42.5949         5.80385 
        1.86533         42.4415         5.75719 
        1.87147         42.2224         5.71098 
        1.87761         42.0536         5.66526 
        1.88375          41.844         5.62009 
        1.88988         41.6342         5.57547 
        1.89601         41.4927          5.5313 
        1.90215         41.2028         5.48758 
        1.90829         41.1058         5.44435 
        1.91442         40.8436         5.40158 
        1.92056         40.7498         5.35932 
         1.9267          40.593         5.31746 
        1.93284         40.4067         5.27602 
        1.93897         40.1336          5.2351 
        1.94509         39.9359          5.1947 
        1.95123         39.8097         5.15463 
        1.95737         39.6688         5.11495 
        1.96349         39.5159          5.0758 
        1.96964         39.2325         5.03693 
        1.97578         39.0777         4.99846 
        1.98192         38.8492         4.96047 
        1.98805         38.6587         4.92286 
        1.99419         38.5716         4.88564 
        2.00033         38.4148         4.84879 
        2.00647         38.2319         4.81233 
         2.0126         38.0224         4.77631 
        2.01874          37.954          4.7406 
        2.02488         37.6597         4.70522 
        2.03101         37.6069         4.67027 
        2.03714         37.3815         4.63571 
        2.04328         37.2554         4.60145 
        2.04941         36.9859         4.56757 
        2.05554         36.9081         4.53406 
        2.06167         36.7563         4.50084 
        2.06781         36.5617         4.46794 
        2.07396         36.3509         4.43533 
        2.08009         36.2169          4.4031 
        2.08622         36.1158         4.37122 
        2.09237         35.8852          4.3396 
        2.09851         35.7546         4.30829 
        2.10464         35.6264         4.27734 
        2.11077         35.4863         4.24672 
        2.11691         35.2451         4.21634 
        2.12305         35.0662         4.18626 
        2.12918         34.9831         4.15654 
        2.13531         34.7472          4.1271 
        2.14145         34.6564         4.09789 
         2.1476         34.5755         4.06892 
        2.15372         34.4373         4.04037 
        2.15985         34.1851         4.01208 
        2.16599         34.0278         3.98397 
        2.17213          33.934         3.95616 
        2.17827         33.8012         3.92862 
         2.1844         33.5612         3.90137 
        2.19054         33.5206         3.87437 
        2.19666         33.3116         3.84766 
         2.2028          33.091         3.82118 
        2.20893         33.0506         3.79494 
        2.21508         32.8928         3.76891 
        2.22122         32.7701         3.74312 
        2.22736         32.5369         3.71762 
        2.23349          32.493         3.69237 
        2.23962         32.3212         3.66734 
        2.24577         32.1651         3.64252 
         2.2519          32.003         3.61796 
        2.25802         31.8842         3.59367 
        2.26417         31.7347         3.56953 
        2.27031         31.5866         3.54559 
        2.27644         31.5631         3.52194 
        2.28257          31.301         3.49851 
        2.28872         31.2561         3.47524 
        2.29486          31.128          3.4522 
        2.30099         30.9385          3.4294 
        2.30712         30.8451         3.40681 
        2.31326         30.6764         3.38438 
         2.3194         30.5326         3.36216 
        2.32553         30.4441         3.34018 
        2.33166         30.2813          3.3184 
         2.3378         30.1241         3.29679 
        2.34394         30.0369         3.27537 
        2.35007         29.9599         3.25416 
        2.35619          29.796         3.23317 
        2.36233         29.6201         3.21232 
        2.36848         29.5864          3.1916 
        2.37462         29.3929         3.17111 
        2.38075         29.2879         3.15082 
        2.38689         29.1891         3.13069 
        2.39303         29.0713         3.11074 
        2.39916         28.8503         3.09099 
        2.40529         28.8026          3.0714 
        2.41143         28.6783         3.05198 
        2.41757         28.5998         3.03271 
         2.4237         28.4609         3.01364 
        2.42983         28.2754         2.99474 
        2.43598         28.1976         2.97595 
        2.44211         28.0592         2.95736 
        2.44823         27.9425         2.93896 
        2.45437         27.8784         2.92067 
        2.46052         27.6964         2.90252 
        2.46665         27.6285         2.88455 
        2.47279         27.4314         2.86675 
        2.47892         27.3754         2.84908 
        2.48507         27.2872         2.83154 
         2.4912         27.1381         2.81419 
