# k  (h/Mpc)    Pcb(k)  (Mpc/h)^3    Pcb_linear(k)  (Mpc/h)^3
     0.00783031         1321.68         1330.17 
       0.013688         1709.17         1727.93 
       0.019231         1821.67         1830.69 
      0.0249154         1769.77         1770.03 
      0.0312784         1598.88         1602.52 
      0.0375637         1404.39         1409.97 
      0.0433917         1249.46         1248.22 
      0.0492413         1115.62         1118.32 
      0.0555754         1017.65         1015.18 
      0.0619321         932.092         941.197 
       0.067871         883.911         886.421 
      0.0738098         833.006         834.676 
      0.0800417         776.253         776.181 
      0.0862327           709.5          711.72 
      0.0921407         645.002         646.898 
      0.0982031         583.189          582.12 
       0.104506         519.796          522.13 
       0.110769         472.434         473.571 
       0.116806         440.905         438.006 
       0.122832         412.127         412.038 
       0.129052         393.806         392.169 
       0.135211         378.833         375.784 
       0.141259         360.558         359.739 
       0.147318          340.08         341.729 
       0.153489         320.908         320.863 
       0.159709         300.133         298.124 
       0.165845          274.64         275.682 
       0.171974         258.786          255.01 
       0.178125         241.452         237.286 
       0.184229         225.686         223.191 
        0.19034          216.96         212.323 
       0.196428          208.33         203.923 
       0.202534          198.55         196.856 
       0.208729         193.643         189.992 
       0.214876         187.311         182.692 
       0.220989         176.452         174.605 
       0.227147         170.579         165.737 
        0.23329         162.139         156.608 
       0.239377         154.351         147.847 
       0.245482         145.822         139.844 
       0.251667         138.245         132.851 
       0.257832         134.394         127.055 
       0.263955         128.049         122.305 
       0.270079         123.898         118.252 
        0.27624          119.22         114.519 
       0.282372         115.747          110.84 
        0.28843         113.722         107.039 
       0.294538         109.052         102.991 
       0.300721         104.067         98.7416 
        0.30691         101.229         94.4926 
       0.313033         96.8248         90.4697 
       0.319153         94.4319         86.7726 
       0.325316         89.9605         83.4518 
        0.33145         86.9494         80.5483 
       0.337538         84.5408         77.9987 
       0.343633         82.3613         75.6776 
       0.349808         79.8255          73.449 
       0.355968         77.5216         71.2593 
       0.362074         75.9915         69.0639 
       0.368217         73.7064         66.8259 
       0.374374         72.0403          64.574 
       0.380519         68.9247         62.3698 
       0.386598         66.8301         60.2823 
       0.392688         64.8204         58.3207 
        0.39888         63.4552         56.4834 
       0.405048         61.9246         54.8029 
       0.411186         60.3118         53.2576 
       0.417313         58.7153         51.8097 
       0.423458         57.0835          50.415 
       0.429607         56.1595         49.0512 
       0.435692         55.1383         47.7185 
       0.441815         53.1085         46.3877 
       0.447964         51.5511         45.0723 
       0.454126          50.615         43.7894 
       0.460267         50.0443         42.5585 
       0.466387         48.5813         41.3909 
        0.47254         47.8227         40.2831 
       0.478662         46.3769         39.2422 
       0.484765         45.4224          38.258 
       0.490885         44.1643          37.316 
       0.497035         43.4427         36.4035 
       0.503198          42.482         35.5131 
       0.509342         41.3919         34.6445 
       0.515458         40.8676         33.7988 
       0.521598         39.9268         32.9697 
       0.527764         39.3686         32.1595 
       0.533884         38.4025         31.3817 
           0.54         37.6728         30.6348 
       0.546137         36.5738         29.9163 
       0.552299         35.9672          29.224 
       0.558452         35.2513         28.5596 
       0.564573         34.8924         27.9227 
       0.570708         34.0122          27.305 
       0.576825         33.5281         26.7066 
       0.582926          32.936         26.1246 
       0.589034         32.3168         25.5558 
       0.595184         31.9053          24.998 
       0.601379         31.0622         24.4523 
       0.607522         30.5967         23.9273 
       0.613639         30.0491         23.4207 
       0.619772          29.588         22.9288 
       0.625918         28.9904          22.452 
       0.632068         28.7413         21.9903 
       0.638161         28.1733         21.5471 
         0.6443         27.7162         21.1135 
       0.650464         27.0411         20.6899 
       0.656582         26.8846         20.2801 
       0.662703         26.5723         19.8802 
       0.668861         25.8675         19.4884 
       0.675024         25.5425         19.1066 
       0.681124         25.4141         18.7391 
       0.687237         24.9001          18.381 
       0.693381         24.3441         18.0309 
       0.699536         24.2589         17.6897 
       0.705665         23.8113         17.3591 
       0.711789         23.3802         17.0375 
       0.717957         22.9178         16.7222 
        0.72409         22.7366         16.4167 
       0.730186         22.6085         16.1208 
       0.736317         22.1446         15.8306 
       0.742472         21.8676         15.5465 
       0.748622         21.5397         15.2695 
        0.75476          21.015         14.9997 
       0.760888         20.9221         14.7369 
       0.767043         20.5673         14.4794 
       0.773185         20.3526         14.2286 
       0.779291         20.1932         13.9854 
       0.785407         19.8313         13.7477 
       0.791564         19.6701         13.5142 
       0.797719         19.2708         13.2864 
       0.803834         19.1687         13.0654 
       0.809972         18.8162         12.8486 
       0.816124         18.6181         12.6364 
       0.822261         18.4115         12.4296 
       0.828378         18.1895          12.228 
       0.834502         18.0124         12.0307 
       0.840667         17.8309         11.8366 
       0.846816         17.4549         11.6473 
       0.852925         17.3719         11.4633 
       0.859047         17.1628          11.283 
       0.865192         16.9358          11.106 
       0.871341         16.7068         10.9328 
       0.877463         16.5396         10.7641 
       0.883569         16.4301         10.5994 
       0.889708         16.1686         10.4374 
       0.895864         15.9731         10.2784 
       0.902008          15.788          10.123 
       0.908149         15.5852         9.97102 
       0.914301         15.5017         9.82192 
       0.920448         15.2758         9.67603 
       0.926574          15.195         9.53364 
       0.932687         14.9684         9.39445 
       0.938823         14.7796         9.25756 
       0.944975         14.6673         9.12311 
       0.951105         14.4878         8.99183 
       0.957225          14.407         8.86339 
       0.963368         14.2099         8.73704 
       0.969511         14.0592         8.61318 
       0.975621         13.9202          8.4924 
       0.981748         13.7294         8.37366 
       0.987916         13.6344         8.25646 
        0.99406         13.5232         8.14196 
        1.00019         13.4056         8.02989 
        1.00632         13.2819         7.92005 
        1.01246         13.1366         7.81212 
        1.01859         12.9923         7.70639 
        1.02471         12.8315         7.60278 
        1.03085          12.793         7.50073 
        1.03698         12.6666         7.40079 
        1.04314         12.5293         7.30226 
        1.04929           12.36         7.20578 
        1.05541         12.3041         7.11144 
        1.06154         12.1926         7.01858 
        1.06769         12.1316         6.92725 
        1.07382         11.9264         6.83786 
        1.07993         11.8203         6.75027 
        1.08607         11.7699         6.66386 
        1.09222         11.6211         6.57889 
        1.09836         11.5935         6.49552 
        1.10449          11.394          6.4137 
        1.11063         11.3616         6.33321 
        1.11677         11.2813         6.25414 
         1.1229         11.1768         6.17656 
        1.12903         11.0987         6.10025 
        1.13518         10.9316         6.02517 
        1.14131         10.8682         5.95141 
        1.14745         10.7311         5.87893 
        1.15359         10.6574         5.80765 
        1.15973         10.5641         5.73753 
        1.16584         10.4876          5.6689 
        1.17197         10.3985          5.6013 
        1.17811         10.3068          5.5346 
        1.18424         10.2342         5.46919 
        1.19038         10.1725         5.40465 
        1.19652         10.0964         5.34119 
        1.20267         10.0124         5.27875 
        1.20881         9.91422         5.21734 
        1.21495         9.83317           5.157 
        1.22108         9.78122         5.09763 
         1.2272         9.68605         5.03935 
        1.23334         9.66523         4.98185 
        1.23949         9.54983         4.92512 
        1.24562         9.47999         4.86943 
        1.25174         9.42426          4.8147 
        1.25789         9.29727         4.76065 
        1.26402         9.27185         4.70753 
        1.27014         9.21698         4.65536 
        1.27628         9.10446         4.60383 
        1.28244         9.08803         4.55299 
        1.28858         9.02496         4.50298 
        1.29471         8.90367         4.45385 
        1.30084         8.83935          4.4055 
        1.30697         8.82363         4.35781 
        1.31312         8.73425         4.31075 
        1.31925         8.67646         4.26454 
        1.32537         8.62656         4.21906 
        1.33151         8.55487         4.17409 
        1.33765         8.48965          4.1298 
        1.34378         8.47497         4.08625 
        1.34992         8.38868          4.0433 
        1.35606          8.3305         4.00088 
         1.3622         8.26913         3.95915 
        1.36833         8.21241         3.91811 
        1.37445         8.14888         3.87768 
        1.38059         8.10438          3.8377 
        1.38675         8.04291         3.79819 
        1.39288         7.98981          3.7594 
        1.39901         7.92452         3.72117 
        1.40515         7.88537         3.68339 
         1.4113         7.82225         3.64615 
        1.41742         7.78447         3.60957 
        1.42355         7.71978         3.57342 
         1.4297         7.68511         3.53767 
        1.43585         7.63973         3.50242 
        1.44198         7.58278         3.46779 
        1.44809         7.54742          3.4337 
        1.45423         7.48503         3.39994 
        1.46036         7.44763          3.3667 
        1.46649         7.39314          3.3339 
        1.47263         7.36108         3.30151 
        1.47877         7.31032         3.26956 
        1.48491         7.27353         3.23799 
        1.49104         7.21267         3.20691 
        1.49718         7.18736         3.17621 
        1.50333         7.13648         3.14587 
        1.50947         7.06968         3.11599 
         1.5156         7.05882         3.08655 
        1.52172         7.01694         3.05748 
        1.52787         6.97338         3.02874 
          1.534         6.93109          3.0004 
        1.54013         6.89362         2.97246 
        1.54627         6.84829         2.94482 
        1.55241          6.7941         2.91754 
        1.55855         6.78108         2.89064 
        1.56467          6.7312         2.86415 
         1.5708         6.69439         2.83793 
        1.57695         6.63556         2.81199 
        1.58308         6.59885         2.78644 
        1.58922         6.57748         2.76119 
        1.59535         6.53981         2.73627 
         1.6015         6.48929         2.71162 
        1.60764         6.46692         2.68729 
        1.61376         6.43292         2.66332 
        1.61989         6.37482         2.63963 
        1.62604         6.34975         2.61618 
        1.63218         6.32112         2.59302 
        1.63831         6.29929         2.57021 
        1.64444         6.24502         2.54765 
        1.65059         6.22141         2.52532 
        1.65673         6.18728         2.50328 
        1.66285          6.1576         2.48157 
        1.66898         6.11769         2.46011 
        1.67512         6.07745         2.43886 
        1.68127         6.04356         2.41785 
         1.6874          6.0282         2.39713 
        1.69353         5.97578         2.37667 
        1.69967         5.95728          2.3564 
        1.70581         5.91734         2.33637 
        1.71193         5.89263         2.31666 
        1.71806         5.86595         2.29713 
        1.72421         5.82933         2.27778 
        1.73035         5.79857         2.25869 
        1.73649          5.7701         2.23982 
        1.74262         5.73983         2.22118 
        1.74876         5.72076         2.20274 
        1.75489         5.68732         2.18455 
        1.76101         5.64823         2.16657 
        1.76715         5.63835         2.14877 
        1.77329         5.60616         2.13115 
        1.77943         5.56556         2.11371 
        1.78557         5.54928         2.09651 
        1.79171         5.52894         2.07949 
        1.79785         5.49553         2.06266 
        1.80399         5.45148         2.04601 
        1.81012         5.43696         2.02958 
        1.81625         5.40956         2.01333 
        1.82239         5.38775         1.99724 
        1.82853         5.35528         1.98133 
        1.83466         5.31766         1.96562 
        1.84078         5.29748         1.95009 
        1.84692         5.27737          1.9347 
        1.85306         5.25166         1.91946 
         1.8592         5.23591         1.90441 
        1.86533         5.20656         1.88953 
        1.87147         5.18176         1.87479 
        1.87761         5.16777         1.86021 
        1.88375         5.13428          1.8458 
        1.88988         5.11007         1.83155 
        1.89601         5.08175         1.81745 
        1.90215         5.04835         1.80349 
        1.90829         5.04767         1.78969 
        1.91442         5.00873         1.77602 
        1.92056         5.00019         1.76251 
         1.9267         4.96731         1.74913 
        1.93284         4.96075         1.73588 
        1.93897          4.9182          1.7228 
        1.94509         4.89883         1.70987 
        1.95123         4.88042         1.69705 
        1.95737         4.86163         1.68435 
        1.96349          4.8272         1.67182 
        1.96964         4.81138         1.65937 
        1.97578         4.79522         1.64705 
        1.98192         4.76548         1.63487 
        1.98805         4.75381         1.62282 
        1.99419         4.73357         1.61089 
        2.00033         4.69544         1.59908 
        2.00647           4.694         1.58739 
         2.0126         4.66932         1.57583 
        2.01874          4.6566         1.56438 
        2.02488         4.62894         1.55302 
        2.03101         4.60098          1.5418 
        2.03714         4.59218         1.53071 
        2.04328         4.57063         1.51971 
        2.04941         4.55048         1.50882 
        2.05554         4.53698         1.49806 
        2.06167         4.50864         1.48738 
        2.06781          4.4956         1.47681 
        2.07396         4.47086         1.46632 
        2.08009         4.46135         1.45596 
        2.08622         4.44195          1.4457 
        2.09237         4.43409         1.43553 
        2.09851         4.39678         1.42545 
        2.10464         4.38661         1.41549 
        2.11077         4.37739         1.40563 
        2.11691         4.35329         1.39585 
        2.12305         4.33018         1.38616 
        2.12918         4.31676         1.37658 
        2.13531         4.29451          1.3671 
        2.14145         4.28427         1.35768 
         2.1476         4.25696         1.34834 
        2.15372         4.24647         1.33914 
        2.15985         4.23075         1.33001 
        2.16599         4.21703         1.32095 
        2.17213         4.20052         1.31197 
        2.17827         4.17418         1.30309 
         2.1844         4.15665         1.29429 
        2.19054         4.14567         1.28557 
        2.19666         4.13063         1.27695 
         2.2028         4.10232         1.26839 
        2.20893         4.09949         1.25991 
        2.21508         4.08778          1.2515 
        2.22122         4.05709         1.24317 
        2.22736         4.04942         1.23493 
        2.23349         4.02941         1.22676 
        2.23962         4.02198         1.21866 
        2.24577         3.99594         1.21063 
         2.2519         3.98558         1.20269 
        2.25802         3.96859         1.19483 
        2.26417         3.95367         1.18702 
        2.27031         3.93636         1.17926 
        2.27644         3.92575         1.17161 
        2.28257         3.90881         1.16402 
        2.28872         3.89618         1.15648 
        2.29486         3.87588         1.14901 
        2.30099         3.86177         1.14163 
        2.30712         3.85257          1.1343 
        2.31326         3.83642         1.12703 
         2.3194         3.82171         1.11983 
        2.32553         3.81139          1.1127 
        2.33166         3.80064         1.10563 
         2.3378         3.78366         1.09862 
        2.34394         3.76588         1.09167 
        2.35007         3.74705         1.08479 
        2.35619         3.74152         1.07797 
        2.36233         3.72527          1.0712 
        2.36848         3.71614         1.06447 
        2.37462         3.70196         1.05782 
        2.38075          3.6917         1.05123 
        2.38689         3.67676         1.04469 
        2.39303          3.6632          1.0382 
        2.39916         3.64626         1.03178 
        2.40529         3.63472         1.02541 
        2.41143         3.62832          1.0191 
        2.41757         3.61789         1.01283 
         2.4237         3.59802         1.00663 
        2.42983         3.59361         1.00048 
        2.43598         3.57901        0.994361 
        2.44211         3.55955        0.988308 
        2.44823         3.54942        0.982318 
        2.45437         3.53398        0.976362 
        2.46052          3.5244        0.970451 
        2.46665         3.51647        0.964599 
        2.47279         3.49231        0.958798 
        2.47892         3.48962         0.95304 
        2.48507         3.47595        0.947325 
         2.4912         3.46907        0.941667 
