#  k  (h/Mpc)          P(k)  (Mpc/h)^3     P_linear(k) (Mpc/h)^3
     0.00783031         1380.64         1393.43 
       0.013688         1819.95         1820.35 
       0.019231         1942.48         1942.53 
      0.0249154         1883.53         1896.75 
      0.0312784         1738.29         1742.69 
      0.0375637         1563.05         1561.26 
      0.0433917         1401.57         1407.48 
      0.0492413         1281.48         1282.29 
      0.0555754         1170.67         1179.25 
      0.0619321         1103.17          1099.3 
       0.067871         1027.54         1033.72 
      0.0738098         960.898         967.741 
      0.0800417         883.547         893.481 
      0.0862327         809.903         815.621 
      0.0921407         739.234         742.054 
      0.0982031         668.333         672.816 
       0.104506         614.114         611.956 
       0.110769         566.086         564.334 
       0.116806         527.553         529.353 
       0.122832         503.065         502.102 
       0.129052         475.491         478.105 
       0.135211         452.107         454.948 
       0.141259          430.49         430.676 
       0.147318         406.207         404.384 
       0.153489         376.699         376.552 
       0.159709         350.904         349.248 
       0.165845         330.336         324.823 
       0.171974         307.011          304.06 
       0.178125         290.851         287.133 
       0.184229         278.494         273.672 
        0.19034         263.683         262.475 
       0.196428         256.225         252.384 
       0.202534         248.264         242.314 
       0.208729         236.182         231.544 
       0.214876         223.354         220.228 
       0.220989         215.088         208.699 
       0.227147         201.313          197.38 
        0.23329         191.571         186.941 
       0.239377         183.889         177.802 
       0.245482         174.028         169.935 
       0.251667         169.639         163.136 
       0.257832         163.588         157.202 
       0.263955         157.979          151.76 
       0.270079         152.783         146.433 
        0.27624         148.944         140.996 
       0.282372         143.124         135.457 
        0.28843         137.085          129.95 
       0.294538         131.704         124.524 
       0.300721         128.102         119.334 
        0.30691         122.298         114.569 
       0.313033         118.403         110.323 
       0.319153         113.044         106.513 
       0.325316         111.257         103.019 
        0.33145         107.463         99.7671 
       0.337538         104.909          96.654 
       0.343633         101.493         93.5798 
       0.349808         98.6205         90.4826 
       0.355968         95.7707         87.4216 
       0.362074         92.7409          84.462 
       0.368217         90.1077         81.6051 
       0.374374          87.261          78.907 
       0.380519          85.035         76.3961 
       0.386598         82.7812         74.0864 
       0.392688         81.0637          71.925 
        0.39888         78.8045         69.8447 
       0.405048         77.0588         67.8576 
       0.411186         75.3679         65.9366 
       0.417313         72.8978          64.058 
       0.423458         71.2064         62.2155 
       0.429607         69.2816           60.42 
       0.435692         67.1855         58.7026 
       0.441815          66.139         57.0477 
       0.447964         65.0589         55.4659 
       0.454126         62.5738         53.9602 
       0.460267         61.4578         52.5346 
       0.466387         59.7863         51.1783 
        0.47254         58.9521         49.8664 
       0.478662         57.9061         48.6034 
       0.484765         56.3543         47.3811 
       0.490885         55.0906         46.1881 
       0.497035         54.3868         45.0216 
       0.503198         53.0235         43.8894 
       0.509342         51.6992         42.7999 
       0.515458         50.7061         41.7555 
       0.521598          49.909         40.7469 
       0.527764         48.8983         39.7737 
       0.533884         48.0569         38.8444 
           0.54         47.1506         37.9481 
       0.546137         46.3992          37.077 
       0.552299         45.6931         36.2282 
       0.558452         44.3032         35.4054 
       0.564573         43.7299         34.6104 
       0.570708         43.0823         33.8363 
       0.576825         42.0212         33.0875 
       0.582926         41.3302         32.3637 
       0.589034         40.2507         31.6624 
       0.595184         39.7617         30.9793 
       0.601379         39.1156         30.3134 
       0.607522         38.4174         29.6733 
       0.613639         38.0973         29.0548 
       0.619772         37.1239         28.4522 
       0.625918         36.9577         27.8655 
       0.632068         36.3439         27.2947 
       0.638161         35.6242         26.7447 
         0.6443         34.9417         26.2057 
       0.650464         34.3618         25.6795 
       0.656582         34.1529         25.1717 
       0.662703         33.5262         24.6779 
       0.668861         32.9586         24.1951 
       0.675024         32.4071         23.7255 
       0.681124         31.8701         23.2735 
       0.687237         31.3772         22.8326 
       0.693381         31.1101         22.4012 
       0.699536         30.3364           21.98 
       0.705665         30.2221         21.5714 
       0.711789         29.6352         21.1735 
       0.717957         29.2596          20.783 
        0.72409         28.8235         20.4046 
       0.730186         28.4584         20.0381 
       0.736317         28.1814         19.6789 
       0.742472         27.7135         19.3273 
       0.748622         27.4206         18.9849 
        0.75476         26.9274         18.6515 
       0.760888         26.6271         18.3268 
       0.767043         26.3272         18.0086 
       0.773185         25.8482         17.6986 
       0.779291          25.712         17.3978 
       0.785407         25.3744         17.1036 
       0.791564         24.9375         16.8144 
       0.797719         24.5058         16.5321 
       0.803834         24.4287         16.2581 
       0.809972         24.2257         15.9895 
       0.816124          23.664         15.7264 
       0.822261         23.5082         15.4701 
       0.828378          23.233         15.2203 
       0.834502         23.0049         14.9759 
       0.840667         22.7167         14.7353 
       0.846816         22.3467         14.5008 
       0.852925          22.155         14.2728 
       0.859047         21.9112         14.0494 
       0.865192         21.7323           13.83 
       0.871341         21.5565         13.6152 
       0.877463         21.1936          13.406 
       0.883569         20.9206         13.2018 
       0.889708         20.6344         13.0008 
       0.895864         20.5275         12.8035 
       0.902008         20.3517         12.6108 
       0.908149         20.1368         12.4222 
       0.914301         19.9662         12.2371 
       0.920448         19.5997         12.0561 
       0.926574         19.4521         11.8794 
       0.932687         19.2804         11.7066 
       0.938823         19.0294         11.5367 
       0.944975         18.8133         11.3698 
       0.951105         18.6851         11.2069 
       0.957225          18.523         11.0474 
       0.963368         18.3316         10.8905 
       0.969511         18.1854         10.7368 
       0.975621         18.0119         10.5868 
       0.981748         17.8087         10.4393 
       0.987916         17.6833         10.2938 
        0.99406         17.4481         10.1516 
        1.00019         17.1999         10.0124 
        1.00632          17.205         9.87593 
        1.01246         17.0089         9.74185 
        1.01859         16.7725          9.6105 
        1.02471         16.6904         9.48175 
        1.03085         16.5443         9.35494 
        1.03698         16.3057         9.23074 
        1.04314         16.2203         9.10829 
        1.04929          16.011         8.98836 
        1.05541         15.8631         8.87109 
        1.06154         15.7442         8.75565 
        1.06769         15.6804          8.6421 
        1.07382          15.462         8.53095 
        1.07993         15.3704         8.42203 
        1.08607         15.2293         8.31458 
        1.09222          15.107          8.2089 
        1.09836         14.9445          8.1052 
        1.10449         14.8426         8.00343 
        1.11063         14.7219          7.9033 
        1.11677         14.6356         7.80493 
         1.1229         14.5355         7.70842 
        1.12903         14.3832         7.61347 
        1.13518         14.2183         7.52006 
        1.14131           14.12         7.42827 
        1.14745         14.0048         7.33808 
        1.15359         13.9191         7.24938 
        1.15973         13.8182         7.16213 
        1.16584         13.6241         7.07671 
        1.17197         13.5556         6.99257 
        1.17811         13.4864         6.90956 
        1.18424         13.3807         6.82814 
        1.19038         13.3143         6.74781 
        1.19652         13.1793         6.66882 
        1.20267         13.0364         6.59109 
        1.20881         13.0254         6.51464 
        1.21495         12.9133         6.43952 
        1.22108         12.7675         6.36561 
         1.2272            12.7         6.29305 
        1.23334         12.5599         6.22146 
        1.23949         12.4776         6.15082 
        1.24562         12.4344         6.08148 
        1.25174         12.3262         6.01332 
        1.25789         12.2498           5.946 
        1.26402         12.1828         5.87985 
        1.27014         12.0843         5.81487 
        1.27628         11.9552         5.75068 
        1.28244         11.8619         5.68734 
        1.28858         11.8471         5.62505 
        1.29471         11.7258         5.56384 
        1.30084         11.6196          5.5036 
        1.30697         11.6203         5.44417 
        1.31312         11.4358         5.38554 
        1.31925         11.3877         5.32796 
        1.32537         11.3212         5.27128 
        1.33151         11.2677         5.21524 
        1.33765         11.1592         5.16004 
        1.34378         11.0764         5.10576 
        1.34992         11.0103         5.05222 
        1.35606         10.9458         4.99934 
         1.3622         10.8879         4.94732 
        1.36833         10.8113         4.89616 
        1.37445         10.7496         4.84576 
        1.38059         10.7087         4.79592 
        1.38675         10.6107         4.74666 
        1.39288         10.5488         4.69829 
        1.39901         10.4435         4.65063 
        1.40515         10.4111         4.60352 
         1.4113         10.3561         4.55709 
        1.41742          10.286         4.51148 
        1.42355         10.2008         4.46641 
         1.4297         10.1285         4.42182 
        1.43585         10.1017         4.37787 
        1.44198         10.0674         4.33468 
        1.44809         9.96682         4.29217 
        1.45423         9.90007         4.25006 
        1.46036         9.85015         4.20861 
        1.46649         9.77978         4.16769 
        1.47263         9.70878         4.12729 
        1.47877         9.65991         4.08745 
        1.48491         9.60322         4.04807 
        1.49104         9.55571          4.0093 
        1.49718         9.50575         3.97101 
        1.50333         9.44728         3.93316 
        1.50947         9.38788         3.89589 
         1.5156         9.33713         3.85916 
        1.52172         9.28722          3.8229 
        1.52787         9.23046         3.78704 
          1.534          9.1707         3.75168 
        1.54013         9.13843         3.71682 
        1.54627         9.05691         3.68234 
        1.55241         9.02189         3.64829 
        1.55855         8.98299         3.61472 
        1.56467         8.91576         3.58167 
         1.5708         8.88722         3.54894 
        1.57695         8.80659         3.51657 
        1.58308          8.7634         3.48468 
        1.58922         8.73827         3.45317 
        1.59535         8.69517         3.42206 
         1.6015         8.63226         3.39129 
        1.60764          8.5788         3.36091 
        1.61376         8.54525           3.331 
        1.61989         8.50374         3.30142 
        1.62604         8.44382         3.27214 
        1.63218         8.42388         3.24324 
        1.63831         8.38357         3.21475 
        1.64444         8.34109          3.1866 
        1.65059         8.25229         3.15872 
        1.65673         8.23815          3.1312 
        1.66285         8.16652         3.10409 
        1.66898         8.14605         3.07729 
        1.67512         8.10543         3.05076 
        1.68127         8.06288         3.02452 
         1.6874         8.02978         2.99865 
        1.69353         7.97755          2.9731 
        1.69967         7.93677         2.94779 
        1.70581         7.89279         2.92278 
        1.71193         7.86484         2.89816 
        1.71806         7.83782         2.87378 
        1.72421         7.77612         2.84962 
        1.73035         7.75782         2.82578 
        1.73649         7.71775         2.80221 
        1.74262         7.65842         2.77893 
        1.74876          7.6455          2.7559 
        1.75489         7.61866         2.73318 
        1.76101         7.55374         2.71073 
        1.76715         7.52932          2.6885 
        1.77329         7.49611         2.66649 
        1.77943         7.43603         2.64472 
        1.78557         7.43072         2.62322 
        1.79171         7.37455         2.60197 
        1.79785         7.34565         2.58094 
        1.80399         7.30222         2.56015 
        1.81012         7.28222         2.53962 
        1.81625         7.23352         2.51932 
        1.82239         7.21095         2.49922 
        1.82853         7.17903         2.47935 
        1.83466         7.15223         2.45971 
        1.84078         7.11219         2.44031 
        1.84692         7.09748         2.42108 
        1.85306         7.04094         2.40204 
         1.8592         7.00467         2.38324 
        1.86533         6.98423         2.36464 
        1.87147         6.95466         2.34623 
        1.87761          6.9178           2.328 
        1.88375         6.88857         2.30999 
        1.88988         6.85004          2.2922 
        1.89601         6.83508         2.27458 
        1.90215         6.80864         2.25713 
        1.90829         6.76763         2.23987 
        1.91442         6.74272          2.2228 
        1.92056         6.70188         2.20591 
         1.9267         6.67911         2.18919 
        1.93284         6.65062         2.17263 
        1.93897         6.61989         2.15627 
        1.94509         6.57742         2.14012 
        1.95123          6.5538          2.1241 
        1.95737         6.51994         2.10822 
        1.96349         6.50093         2.09255 
        1.96964         6.48319           2.077 
        1.97578         6.44193         2.06159 
        1.98192         6.42292         2.04638 
        1.98805         6.39916         2.03132 
        1.99419         6.37377         2.01641 
        2.00033         6.35178         2.00164 
        2.00647         6.31828         1.98702 
         2.0126         6.29788         1.97258 
        2.01874         6.25369         1.95826 
        2.02488          6.2416         1.94406 
        2.03101         6.20117         1.93004 
        2.03714         6.18006         1.91617 
        2.04328         6.15259         1.90242 
        2.04941         6.11762         1.88881 
        2.05554         6.10088         1.87535 
        2.06167         6.08442           1.862 
        2.06781         6.05702         1.84878 
        2.07396         6.04256         1.83568 
        2.08009           6.011         1.82272 
        2.08622          5.9756          1.8099 
        2.09237         5.97453         1.79718 
        2.09851         5.93583         1.78458 
        2.10464         5.91091         1.77212 
        2.11077         5.88239         1.75979 
        2.11691         5.86934         1.74756 
        2.12305         5.84688         1.73544 
        2.12918         5.83437         1.72347 
        2.13531         5.80068         1.71161 
        2.14145         5.78151         1.69983 
         2.1476         5.74835         1.68816 
        2.15372         5.73348         1.67665 
        2.15985         5.71572         1.66523 
        2.16599         5.68572         1.65389 
        2.17213         5.66713         1.64267 
        2.17827         5.64911         1.63156 
         2.1844         5.62165         1.62056 
        2.19054         5.61086         1.60965 
        2.19666         5.57918         1.59887 
         2.2028         5.55746         1.58817 
        2.20893          5.5442         1.57756 
        2.21508         5.51173         1.56705 
        2.22122         5.49505         1.55662 
        2.22736         5.47422         1.54631 
        2.23349         5.46951          1.5361 
        2.23962         5.43527         1.52597 
        2.24577         5.41114         1.51593 
         2.2519         5.40672         1.50599 
        2.25802         5.37327         1.49615 
        2.26417         5.35429         1.48638 
        2.27031         5.33356         1.47669 
        2.27644         5.31808         1.46711 
        2.28257         5.29614         1.45761 
        2.28872         5.28245         1.44819 
        2.29486         5.25764         1.43884 
        2.30099         5.24059          1.4296 
        2.30712         5.21957         1.42044 
        2.31326           5.196         1.41134 
         2.3194         5.18629         1.40233 
        2.32553         5.15599         1.39341 
        2.33166         5.14943         1.38458 
         2.3378          5.1292         1.37581 
        2.34394         5.11242         1.36711 
        2.35007         5.08801          1.3585 
        2.35619         5.08052         1.34997 
        2.36233         5.06602          1.3415 
        2.36848         5.03426         1.33308 
        2.37462         5.02414         1.32476 
        2.38075         5.01019         1.31651 
        2.38689         4.98324         1.30832 
        2.39303         4.97315         1.30021 
        2.39916         4.95374         1.29218 
        2.40529         4.93578         1.28421 
        2.41143         4.92348         1.27631 
        2.41757         4.90497         1.26846 
         2.4237         4.88969          1.2607 
        2.42983         4.84856         1.25301 
        2.43598         4.85918         1.24536 
        2.44211         4.82994         1.23778 
        2.44823         4.81981         1.23029 
        2.45437         4.79403         1.22283 
        2.46052         4.78489         1.21544 
        2.46665         4.77239         1.20811 
        2.47279         4.75616         1.20085 
        2.47892         4.73999         1.19365 
        2.48507         4.72705          1.1865 
         2.4912         4.69907         1.17942 
