# k  (h/Mpc)    P(k)  (Mpc/h)^3    P_linear(k)  (Mpc/h)^3
     0.00783031           12438         12603.2 
       0.013688         16445.3         16311.9 
       0.019231         17287.4         17288.5 
      0.0249154         16415.6         16788.8 
      0.0312784         15116.8         15347.2 
      0.0375637         13591.6         13687.7 
      0.0433917         11967.3         12289.9 
      0.0492413         10969.9         11153.5 
      0.0555754         9802.12         10218.9 
      0.0619321         9396.44         9498.02 
       0.067871          8554.2         8914.98 
      0.0738098          7988.2          8337.4 
      0.0800417         7262.07         7693.85 
      0.0862327         6706.28         7020.99 
      0.0921407         6193.56         6383.68 
      0.0982031          5586.1          5780.6 
       0.104506         5235.37         5246.56 
       0.110769         4822.58         4825.41 
       0.116806         4502.69          4514.6 
       0.122832         4280.37         4273.31 
       0.129052         3983.97         4064.13 
       0.135211         3801.96         3866.59 
       0.141259         3662.27         3662.47 
       0.147318         3478.55          3442.1 
       0.153489         3211.68         3207.65 
       0.159709         3049.71         2975.34 
       0.165845         2938.05         2764.93 
       0.171974          2761.8         2583.73 
       0.178125         2622.48         2434.36 
       0.184229         2510.57         2315.02 
        0.19034         2374.34         2216.49 
       0.196428         2335.75         2129.48 
       0.202534         2253.98         2044.72 
       0.208729         2164.01         1955.52 
       0.214876         2079.82         1862.15 
       0.220989         2018.14         1766.49 
       0.227147         1930.49         1671.49 
        0.23329         1857.14         1582.62 
       0.239377         1831.74         1503.67 
       0.245482         1719.67         1434.87 
       0.251667         1711.57          1375.1 
       0.257832          1647.2         1323.23 
       0.263955         1595.61         1276.37 
       0.270079         1546.02         1231.43 
        0.27624         1531.58         1186.25 
       0.282372         1467.67         1140.56 
        0.28843         1463.36         1095.08 
       0.294538         1394.14         1049.89 
       0.300721         1388.15         1006.18 
        0.30691         1334.35         965.532 
       0.313033         1309.32         928.957 
       0.319153         1290.92         895.927 
       0.325316         1247.96         865.704 
        0.33145         1221.88           837.8 
       0.337538         1204.27         811.438 
       0.343633         1177.43         785.696 
       0.349808         1141.17         759.977 
       0.355968         1134.41           734.6 
       0.362074         1123.14         709.983 
       0.368217         1089.67          686.07 
       0.374374         1050.86         663.275 
       0.380519          1052.2         641.919 
       0.386598         1026.28         622.163 
       0.392688         1022.44         603.663 
        0.39888         994.021         585.928 
       0.405048         982.798         569.084 
       0.411186         968.907         552.927 
       0.417313         949.238         537.226 
       0.423458         935.257         521.859 
       0.429607         921.685         506.892 
       0.435692         904.606         492.536 
       0.441815         899.448          478.63 
       0.447964         879.928         465.285 
       0.454126          871.38         452.539 
       0.460267         853.164         440.443 
       0.466387         842.805         428.946 
        0.47254         835.732         417.861 
       0.478662         829.188         407.225 
       0.484765         808.389         396.961 
       0.490885          803.38         386.976 
       0.497035         786.303         377.225 
       0.503198          781.91          367.75 
       0.509342         773.054         358.613 
       0.515458         769.659          349.84 
       0.521598         752.606         341.354 
       0.527764         736.948         333.148 
       0.533884         737.596          325.31 
           0.54         729.194         317.758 
       0.546137         724.083         310.433 
       0.552299         714.133         303.306 
       0.558452          709.73         296.406 
       0.564573         699.537         289.743 
       0.570708         693.001         283.261 
       0.576825         674.173         276.988 
       0.582926         677.795         270.921 
       0.589034         671.656         265.033 
       0.595184         664.864         259.293 
       0.601379         656.767         253.697 
       0.607522         647.866          248.32 
       0.613639         649.044         243.127 
       0.619772          633.14         238.071 
       0.625918         630.228          233.15 
       0.632068         622.887         228.365 
       0.638161         620.942         223.756 
         0.6443         609.015         219.239 
       0.650464         607.681          214.83 
       0.656582         604.944         210.575 
       0.662703         600.877         206.435 
       0.668861          590.43         202.386 
       0.675024         586.226         198.447 
       0.681124         583.084         194.655 
       0.687237         578.147         190.958 
       0.693381         571.483         187.341 
       0.699536          562.32         183.812 
       0.705665          562.52         180.388 
       0.711789         557.894         177.056 
       0.717957         552.987         173.784 
        0.72409         549.862         170.615 
       0.730186         542.741         167.545 
       0.736317         539.234         164.535 
       0.742472         537.158          161.59 
       0.748622         531.051          158.72 
        0.75476          523.73         155.928 
       0.760888         519.033         153.208 
       0.767043         519.149         150.543 
       0.773185         513.372         147.947 
       0.779291         508.802         145.428 
       0.785407         504.642         142.965 
       0.791564         499.346         140.544 
       0.797719          497.02          138.18 
       0.803834         493.143         135.887 
       0.809972         490.336         133.639 
       0.816124         489.796         131.437 
       0.822261         482.237         129.291 
       0.828378         479.838           127.2 
       0.834502         475.276         125.155 
       0.840667         471.124         123.141 
       0.846816         469.116         121.179 
       0.852925         464.609         119.271 
       0.859047          464.48         117.401 
       0.865192         458.992         115.566 
       0.871341         455.208         113.769 
       0.877463         453.914         112.018 
       0.883569         449.619          110.31 
       0.889708         447.102         108.628 
       0.895864         443.753         106.978 
       0.902008         440.987         105.365 
       0.908149         437.057         103.788 
       0.914301         433.581          102.24 
       0.920448         430.943         100.725 
       0.926574         424.986         99.2471 
       0.932687         425.252         97.8021 
       0.938823         420.513         96.3808 
       0.944975         420.862         94.9849 
       0.951105         415.212         93.6219 
       0.957225          412.49         92.2882 
       0.963368          408.72         90.9762 
       0.969511         407.159           89.69 
       0.975621         404.138         88.4358 
       0.981748         402.847         87.2027 
       0.987916         399.924         85.9855 
        0.99406         393.257         84.7963 
        1.00019         392.915         83.6323 
        1.00632         390.642         82.4914 
        1.01246         387.522         81.3703 
        1.01859          387.76         80.2721 
        1.02471         382.308         79.1957 
        1.03085         380.265         78.1355 
        1.03698         379.068         77.0972 
        1.04314         375.496         76.0735 
        1.04929         371.636          75.071 
        1.05541         371.939         74.0908 
        1.06154         366.664         73.1258 
        1.06769         364.685         72.1768 
        1.07382         362.944         71.2478 
        1.07993          360.54         70.3375 
        1.08607         359.483         69.4394 
        1.09222         356.296         68.5563 
        1.09836         353.971         67.6897 
        1.10449         350.433         66.8391 
        1.11063         347.289         66.0024 
        1.11677         347.428         65.1804 
         1.1229         345.332         64.3739 
        1.12903         342.138         63.5805 
        1.13518         339.145         62.7999 
        1.14131         337.825         62.0329 
        1.14745          335.57         61.2793 
        1.15359         333.354         60.5381 
        1.15973         331.414          59.809 
        1.16584         329.027         59.0953 
        1.17197         328.302         58.3923 
        1.17811         325.035         57.6986 
        1.18424         322.285         57.0183 
        1.19038         320.854         56.3471 
        1.19652         318.655          55.687 
        1.20267         317.626         55.0376 
        1.20881          315.78         54.3987 
        1.21495         312.981         53.7711 
        1.22108         311.483         53.1536 
         1.2272         309.207         52.5473 
        1.23334         307.132         51.9491 
        1.23949         305.751         51.3589 
        1.24562         304.089         50.7796 
        1.25174         301.121         50.2102 
        1.25789         298.848         49.6479 
        1.26402         297.401         49.0952 
        1.27014         295.325         48.5524 
        1.27628         293.823         48.0162 
        1.28244         293.247         47.4871 
        1.28858         289.983         46.9668 
        1.29471          287.68         46.4556 
        1.30084          286.67         45.9524 
        1.30697         284.674          45.456 
        1.31312         282.055         44.9663 
        1.31925         281.909         44.4854 
        1.32537         280.474         44.0121 
        1.33151         277.406          43.544 
        1.33765          275.58          43.083 
        1.34378          274.58         42.6297 
        1.34992         272.792         42.1826 
        1.35606         272.061          41.741 
         1.3622         269.909         41.3065 
        1.36833         267.694         40.8793 
        1.37445         266.431         40.4584 
        1.38059         263.917         40.0422 
        1.38675         263.155         39.6308 
        1.39288         261.171         39.2269 
        1.39901         260.446         38.8289 
        1.40515         258.425         38.4355 
         1.4113         256.953         38.0477 
        1.41742         255.227         37.6668 
        1.42355         253.216         37.2905 
         1.4297         251.805         36.9182 
        1.43585         250.373         36.5511 
        1.44198         249.107         36.1905 
        1.44809          247.73         35.8354 
        1.45423         245.669         35.4839 
        1.46036         244.782         35.1377 
        1.46649         242.641          34.796 
        1.47263           241.1         34.4587 
        1.47877          239.89          34.126 
        1.48491         238.211         33.7971 
        1.49104         237.343         33.4734 
        1.49718         235.166         33.1537 
        1.50333         234.171         32.8376 
        1.50947         232.771         32.5264 
         1.5156         230.687         32.2197 
        1.52172          229.98         31.9169 
        1.52787         228.299         31.6175 
          1.534         227.399         31.3223 
        1.54013         225.236         31.0312 
        1.54627         224.665         30.7433 
        1.55241         222.863          30.459 
        1.55855         221.581         30.1788 
        1.56467         220.115         29.9028 
         1.5708         219.864         29.6296 
        1.57695         217.597         29.3593 
        1.58308         216.603         29.0931 
        1.58922         214.347           28.83 
        1.59535         213.057         28.5703 
         1.6015          212.86         28.3134 
        1.60764         211.132         28.0599 
        1.61376         209.559         27.8101 
        1.61989         208.527         27.5633 
        1.62604         207.407         27.3188 
        1.63218         206.252         27.0775 
        1.63831          204.84         26.8397 
        1.64444         204.039         26.6047 
        1.65059         202.272          26.372 
        1.65673         201.328         26.1423 
        1.66285         200.188          25.916 
        1.66898         198.698         25.6923 
        1.67512         198.302         25.4708 
        1.68127         195.963         25.2518 
         1.6874         195.047         25.0358 
        1.69353         194.146         24.8225 
        1.69967         192.684         24.6112 
        1.70581         191.755         24.4024 
        1.71193         190.384         24.1969 
        1.71806         189.826         23.9933 
        1.72421         188.228         23.7917 
        1.73035          187.59         23.5926 
        1.73649         186.437         23.3958 
        1.74262         185.134         23.2015 
        1.74876          184.21         23.0093 
        1.75489         182.742         22.8196 
        1.76101         181.726         22.6322 
        1.76715         181.016         22.4466 
        1.77329         180.094         22.2629 
        1.77943         179.022         22.0811 
        1.78557         177.884         21.9017 
        1.79171         176.754         21.7242 
        1.79785         175.477         21.5487 
        1.80399         174.599         21.3752 
        1.81012          173.53         21.2038 
        1.81625         172.812         21.0344 
        1.82239          171.53         20.8666 
        1.82853         170.969         20.7007 
        1.83466         169.653         20.5368 
        1.84078         168.963         20.3748 
        1.84692         167.262         20.2144 
        1.85306         167.038         20.0554 
         1.8592          165.69         19.8985 
        1.86533         164.791         19.7433 
        1.87147         163.617         19.5896 
        1.87761         163.213         19.4375 
        1.88375         161.344         19.2872 
        1.88988         160.606         19.1386 
        1.89601         160.043         18.9916 
        1.90215         158.838         18.8459 
        1.90829         158.129         18.7019 
        1.91442         157.152         18.5594 
        1.92056         156.434         18.4185 
         1.9267         155.394         18.2789 
        1.93284         154.562         18.1407 
        1.93897          153.59         18.0042 
        1.94509         152.925         17.8694 
        1.95123         152.078         17.7356 
        1.95737         151.447         17.6031 
        1.96349         150.387         17.4723 
        1.96964         149.235         17.3425 
        1.97578         148.388         17.2139 
        1.98192         147.692         17.0869 
        1.98805         146.583         16.9612 
        1.99419         145.887         16.8367 
        2.00033         145.128         16.7135 
        2.00647         144.501         16.5915 
         2.0126           143.1         16.4709 
        2.01874         142.788         16.3514 
        2.02488         142.073         16.2329 
        2.03101         140.808         16.1159 
        2.03714         140.167         16.0001 
        2.04328         139.367         15.8853 
        2.04941         138.614         15.7718 
        2.05554         137.741         15.6594 
        2.06167         137.414          15.548 
        2.06781         136.544         15.4377 
        2.07396         135.443         15.3282 
        2.08009         134.937         15.2201 
        2.08622         133.997         15.1131 
        2.09237         133.178         15.0069 
        2.09851         132.532         14.9018 
        2.10464          132.05         14.7978 
        2.11077         131.218         14.6949 
        2.11691         130.536         14.5928 
        2.12305         129.306         14.4917 
        2.12918          128.87         14.3917 
        2.13531         128.271         14.2928 
        2.14145         127.291         14.1945 
         2.1476         126.503          14.097 
        2.15372         126.161         14.0009 
        2.15985         125.751         13.9057 
        2.16599         124.568          13.811 
        2.17213         123.924         13.7174 
        2.17827         123.358         13.6246 
         2.1844         122.568         13.5328 
        2.19054         122.009         13.4418 
        2.19666         121.274         13.3518 
         2.2028         120.536         13.2625 
        2.20893         120.015          13.174 
        2.21508         119.235         13.0862 
        2.22122         118.617         12.9992 
        2.22736         117.937         12.9131 
        2.23349         117.337         12.8279 
        2.23962         116.592         12.7434 
        2.24577         116.169         12.6596 
         2.2519         115.536         12.5766 
        2.25802         114.648         12.4945 
        2.26417         114.083          12.413 
        2.27031         113.277         12.3321 
        2.27644         112.789         12.2521 
        2.28257         112.323         12.1729 
        2.28872         111.738         12.0942 
        2.29486         111.042         12.0162 
        2.30099         110.519         11.9391 
        2.30712         109.877         11.8626 
        2.31326         109.184         11.7867 
         2.3194         108.598         11.7115 
        2.32553         108.051         11.6371 
        2.33166         107.686         11.5633 
         2.3378          107.03         11.4901 
        2.34394          106.57         11.4175 
        2.35007         105.852         11.3456 
        2.35619         105.218         11.2745 
        2.36233         104.727         11.2038 
        2.36848         104.056         11.1335 
        2.37462         103.712          11.064 
        2.38075         103.134         10.9952 
        2.38689         102.438         10.9269 
        2.39303         101.768         10.8592 
        2.39916          101.36         10.7921 
        2.40529         100.999         10.7256 
        2.41143         100.463         10.6597 
        2.41757         99.8474         10.5942 
         2.4237         99.1808         10.5294 
        2.42983         98.6065         10.4652 
        2.43598         98.0916         10.4013 
        2.44211         97.8001         10.3381 
        2.44823          97.334         10.2756 
        2.45437         96.6392         10.2134 
        2.46052         96.0353         10.1516 
        2.46665         95.5647         10.0905 
        2.47279          95.129         10.0299 
        2.47892         94.6693         9.96978 
        2.48507         94.0629         9.91008 
         2.4912         93.7059         9.85099 
