# k  (h/Mpc)    P(k)  (Mpc/h)^3    P_linear(k)  (Mpc/h)^3
     0.00783031           10981         11129.4 
       0.013688         14508.1         14405.3 
       0.019231         15266.1         15268.2 
      0.0249154         14519.7         14827.2 
      0.0312784         13370.2         13554.3 
      0.0375637         12017.2         12088.8 
      0.0433917         10596.2         10854.4 
      0.0492413         9707.91         9850.78 
      0.0555754         8690.81         9025.36 
      0.0619321         8317.84         8388.74 
       0.067871         7587.24         7873.82 
      0.0738098          7084.8         7363.71 
      0.0800417         6447.56         6795.34 
      0.0862327         5949.95         6201.06 
      0.0921407         5487.84          5638.2 
      0.0982031         4947.92         5105.55 
       0.104506         4629.14         4633.87 
       0.110769         4262.52         4261.91 
       0.116806         3975.16          3987.4 
       0.122832         3781.05         3774.29 
       0.129052         3522.53         3589.55 
       0.135211         3361.34         3415.07 
       0.141259          3234.4         3234.79 
       0.147318          3069.8         3040.15 
       0.153489         2834.77         2833.08 
       0.159709         2688.33         2627.91 
       0.165845         2583.25         2442.07 
       0.171974         2425.16         2282.03 
       0.178125         2301.54          2150.1 
       0.184229         2205.15         2044.69 
        0.19034         2079.08         1957.66 
       0.196428         2046.45         1880.82 
       0.202534         1977.62         1805.96 
       0.208729         1895.74         1727.17 
       0.214876         1816.99         1644.71 
       0.220989         1763.83         1560.22 
       0.227147          1682.5         1476.31 
        0.23329         1617.48         1397.82 
       0.239377         1592.37         1328.09 
       0.245482         1492.69         1267.32 
       0.251667         1484.39         1214.53 
       0.257832         1429.05         1168.72 
       0.263955          1384.4         1127.33 
       0.270079         1340.75         1087.64 
        0.27624         1328.69         1047.74 
       0.282372         1272.44         1007.38 
        0.28843         1263.53         967.206 
       0.294538         1202.97         927.294 
       0.300721         1198.69         888.695 
        0.30691         1149.47         852.789 
       0.313033         1128.39         820.485 
       0.319153          1108.4         791.312 
       0.325316         1072.36         764.618 
        0.33145         1048.62         739.972 
       0.337538         1034.78         716.688 
       0.343633         1008.98         693.952 
       0.349808         977.307         671.237 
       0.355968         972.078         648.822 
       0.362074         960.443          627.08 
       0.368217         932.683         605.959 
       0.374374         897.553         585.826 
       0.380519         896.954         566.964 
       0.386598         875.723         549.515 
       0.392688         872.986         533.175 
        0.39888         847.777         517.511 
       0.405048         836.605         502.634 
       0.411186         824.348         488.363 
       0.417313             808         474.496 
       0.423458         796.151         460.923 
       0.429607         783.332         447.703 
       0.435692         767.677         435.024 
       0.441815          763.47         422.742 
       0.447964         747.156         410.955 
       0.454126         736.417         399.698 
       0.460267         722.583         389.014 
       0.466387         714.616         378.859 
        0.47254         705.167         369.068 
       0.478662         701.782         359.674 
       0.484765         682.983         350.609 
       0.490885         678.152          341.79 
       0.497035         664.552         333.178 
       0.503198         659.033         324.809 
       0.509342         652.476         316.739 
       0.515458          648.51         308.991 
       0.521598         634.508         301.495 
       0.527764         621.167         294.247 
       0.533884         621.123         287.324 
           0.54         613.267         280.655 
       0.546137         610.468         274.185 
       0.552299         600.428          267.89 
       0.558452          597.38         261.795 
       0.564573         588.295         255.911 
       0.570708         581.895         250.186 
       0.576825         567.087         244.645 
       0.582926         568.658         239.286 
       0.589034         563.602         234.086 
       0.595184         558.079         229.016 
       0.601379         551.515         224.074 
       0.607522         543.815         219.325 
       0.613639         543.949         214.738 
       0.619772         529.834         210.272 
       0.625918         528.562         205.926 
       0.632068         521.709         201.699 
       0.638161          519.94         197.628 
         0.6443         509.879         193.639 
       0.650464         507.971         189.745 
       0.656582         506.364         185.987 
       0.662703         502.659          182.33 
       0.668861         493.742         178.754 
       0.675024         490.309         175.275 
       0.681124         487.507         171.926 
       0.687237         483.039          168.66 
       0.693381         477.191         165.466 
       0.699536          470.84         162.349 
       0.705665         469.597         159.325 
       0.711789         465.734         156.381 
       0.717957         461.736         153.492 
        0.72409         458.443         150.693 
       0.730186         453.438         147.981 
       0.736317         449.812         145.323 
       0.742472         448.332         142.721 
       0.748622         443.068         140.187 
        0.75476         437.984         137.721 
       0.760888         433.367         135.318 
       0.767043          434.11         132.964 
       0.773185         428.315         130.672 
       0.779291         423.568         128.447 
       0.785407         421.166         126.271 
       0.791564         416.533         124.133 
       0.797719         414.259         122.046 
       0.803834         411.086          120.02 
       0.809972         408.908         118.034 
       0.816124         408.842         116.089 
       0.822261         402.132         114.194 
       0.828378         400.248         112.348 
       0.834502         397.164         110.541 
       0.840667         392.758         108.763 
       0.846816         391.341         107.029 
       0.852925         387.684         105.344 
       0.859047         387.005         103.693 
       0.865192         382.898         102.072 
       0.871341         379.875         100.484 
       0.877463         377.842         98.9385 
       0.883569         375.227         97.4293 
       0.889708         372.419         95.9441 
       0.895864         368.649         94.4864 
       0.902008         367.203         93.0623 
       0.908149         364.797         91.6687 
       0.914301         360.801         90.3016 
       0.920448         358.317          88.964 
       0.926574          354.62         87.6584 
       0.932687         355.122         86.3821 
       0.938823         350.686         85.1268 
       0.944975         350.345         83.8938 
       0.951105         346.647           82.69 
       0.957225         344.138         81.5121 
       0.963368          340.49         80.3533 
       0.969511          338.84         79.2172 
       0.975621         336.213         78.1095 
       0.981748         336.212         77.0203 
       0.987916          333.17         75.9453 
        0.99406         328.092          74.895 
        1.00019         328.256         73.8669 
        1.00632         326.033         72.8592 
        1.01246         323.229          71.869 
        1.01859         323.589          70.899 
        1.02471         319.097         69.9483 
        1.03085         316.596         69.0119 
        1.03698         315.818         68.0948 
        1.04314         312.854         67.1907 
        1.04929          310.39         66.3052 
        1.05541         310.175         65.4395 
        1.06154         305.936         64.5872 
        1.06769         304.892          63.749 
        1.07382         303.268         62.9285 
        1.07993         301.019         62.1244 
        1.08607         300.141         61.3313 
        1.09222         297.676         60.5512 
        1.09836         295.337         59.7858 
        1.10449         292.475         59.0346 
        1.11063         290.174         58.2955 
        1.11677         289.879         57.5695 
         1.1229         288.019         56.8572 
        1.12903         285.625         56.1564 
        1.13518         283.674          55.467 
        1.14131         281.958         54.7896 
        1.14745         281.146         54.1239 
        1.15359         278.544         53.4693 
        1.15973         277.427         52.8253 
        1.16584         274.853         52.1949 
        1.17197         274.478          51.574 
        1.17811         271.815         50.9613 
        1.18424         270.009         50.3605 
        1.19038         268.868         49.7676 
        1.19652         266.846         49.1846 
        1.20267         266.212          48.611 
        1.20881         264.019         48.0468 
        1.21495         261.972         47.4925 
        1.22108         260.854          46.947 
         1.2272         258.973         46.4115 
        1.23334         257.361         45.8832 
        1.23949         256.152         45.3619 
        1.24562         254.737         44.8503 
        1.25174         251.971         44.3473 
        1.25789          250.47         43.8507 
        1.26402         249.452         43.3625 
        1.27014         247.749         42.8831 
        1.27628          246.42         42.4095 
        1.28244         245.876         41.9422 
        1.28858         243.346         41.4827 
        1.29471         241.214         41.0311 
        1.30084         240.383         40.5867 
        1.30697         238.742         40.1483 
        1.31312         236.883         39.7158 
        1.31925         236.801          39.291 
        1.32537          235.25          38.873 
        1.33151         232.995         38.4595 
        1.33765         231.517         38.0524 
        1.34378          230.67          37.652 
        1.34992          229.35         37.2571 
        1.35606          228.95         36.8671 
         1.3622         227.049         36.4833 
        1.36833         224.872          36.106 
        1.37445         223.663         35.7342 
        1.38059         222.015         35.3666 
        1.38675           221.2         35.0033 
        1.39288          219.45         34.6465 
        1.39901         219.249          34.295 
        1.40515         217.312         33.9475 
         1.4113         215.764          33.605 
        1.41742         214.843         33.2686 
        1.42355         212.862         32.9362 
         1.4297         211.874         32.6074 
        1.43585          210.45         32.2832 
        1.44198         209.352         31.9647 
        1.44809          208.56         31.6511 
        1.45423         206.729         31.3406 
        1.46036         206.139         31.0348 
        1.46649         204.424          30.733 
        1.47263         202.966         30.4351 
        1.47877         202.142         30.1412 
        1.48491         200.639         29.8508 
        1.49104         199.926         29.5648 
        1.49718         197.841         29.2824 
        1.50333         197.203         29.0033 
        1.50947         196.288         28.7284 
         1.5156         194.555         28.4575 
        1.52172         193.605         28.1901 
        1.52787         192.256         27.9257 
          1.534         191.777         27.6649 
        1.54013         189.972         27.4078 
        1.54627         189.415         27.1535 
        1.55241         187.818         26.9024 
        1.55855         186.788         26.6549 
        1.56467         185.616         26.4112 
         1.5708         185.103         26.1698 
        1.57695         183.286         25.9312 
        1.58308         182.857          25.696 
        1.58922         181.302         25.4636 
        1.59535         180.075         25.2343 
         1.6015         179.719         25.0074 
        1.60764         178.232         24.7834 
        1.61376         176.856         24.5629 
        1.61989         176.086         24.3448 
        1.62604         175.274         24.1289 
        1.63218         174.216         23.9158 
        1.63831         173.131         23.7058 
        1.64444         172.307         23.4982 
        1.65059         170.974         23.2926 
        1.65673         170.009         23.0897 
        1.66285         169.366         22.8899 
        1.66898         168.259         22.6923 
        1.67512         167.705         22.4967 
        1.68127         165.924         22.3032 
         1.6874         164.825         22.1125 
        1.69353         164.481         21.9241 
        1.69967          163.23         21.7374 
        1.70581         162.314          21.553 
        1.71193         161.206         21.3715 
        1.71806         160.749         21.1917 
        1.72421         159.578         21.0136 
        1.73035         158.907         20.8378 
        1.73649         158.132          20.664 
        1.74262         156.797         20.4924 
        1.74876         156.279         20.3226 
        1.75489          154.85         20.1551 
        1.76101         154.167         19.9895 
        1.76715         153.497         19.8256 
        1.77329         152.895         19.6633 
        1.77943         151.594         19.5028 
        1.78557         150.792         19.3443 
        1.79171         149.944         19.1876 
        1.79785         148.982         19.0326 
        1.80399         148.239         18.8793 
        1.81012         147.326         18.7279 
        1.81625         146.584         18.5783 
        1.82239          145.84         18.4301 
        1.82853         145.164         18.2836 
        1.83466         144.222         18.1388 
        1.84078         143.544         17.9957 
        1.84692         142.302          17.854 
        1.85306         141.955         17.7136 
         1.8592         140.744          17.575 
        1.86533         139.854          17.438 
        1.87147         139.129         17.3022 
        1.87761         138.765         17.1679 
        1.88375         137.224         17.0351 
        1.88988          136.74         16.9039 
        1.89601         135.821          16.774 
        1.90215         135.168         16.6454 
        1.90829         134.591         16.5182 
        1.91442         133.902         16.3923 
        1.92056         133.042         16.2678 
         1.9267         132.418         16.1445 
        1.93284         131.809         16.0225 
        1.93897         130.761         15.9019 
        1.94509         130.397         15.7828 
        1.95123         129.574         15.6647 
        1.95737         128.898         15.5477 
        1.96349          128.13         15.4321 
        1.96964         127.087         15.3175 
        1.97578         126.443         15.2039 
        1.98192         125.934         15.0918 
        1.98805         124.858         14.9807 
        1.99419         124.484         14.8708 
        2.00033          123.76         14.7619 
        2.00647         123.214         14.6542 
         2.0126         122.268         14.5477 
        2.01874         121.697         14.4421 
        2.02488         121.274         14.3375 
        2.03101         120.149         14.2341 
        2.03714         119.535         14.1318 
        2.04328         119.064         14.0304 
        2.04941         118.254         13.9302 
        2.05554         117.498         13.8309 
        2.06167         117.211         13.7325 
        2.06781         116.677         13.6351 
        2.07396         115.624         13.5384 
        2.08009         115.022         13.4429 
        2.08622         114.667         13.3484 
        2.09237         113.659         13.2546 
        2.09851         113.258         13.1617 
        2.10464         112.559         13.0699 
        2.11077         112.089          12.979 
        2.11691         111.512         12.8889 
        2.12305         110.544         12.7995 
        2.12918         110.081         12.7113 
        2.13531          109.52         12.6238 
        2.14145         108.799          12.537 
         2.1476         108.223         12.4509 
        2.15372         107.748         12.3661 
        2.15985         107.286          12.282 
        2.16599         106.723         12.1984 
        2.17213         105.786         12.1157 
        2.17827         105.618         12.0337 
         2.1844         104.763         11.9526 
        2.19054         104.369         11.8723 
        2.19666         103.874         11.7927 
         2.2028         103.278         11.7139 
        2.20893         102.545         11.6357 
        2.21508         101.888         11.5582 
        2.22122         101.479         11.4813 
        2.22736         100.942         11.4053 
        2.23349          100.58           11.33 
        2.23962         99.8295         11.2554 
        2.24577         99.4618         11.1813 
         2.2519         98.9962         11.1081 
        2.25802         98.0619         11.0356 
        2.26417         97.8082         10.9636 
        2.27031         97.2154         10.8921 
        2.27644          96.707         10.8215 
        2.28257         96.2162         10.7515 
        2.28872         95.5906          10.682 
        2.29486         95.2173         10.6131 
        2.30099         94.7017          10.545 
        2.30712         94.0651         10.4775 
        2.31326         93.7079         10.4104 
         2.3194          93.085          10.344 
        2.32553         92.6203         10.2782 
        2.33166         92.1354         10.2131 
         2.3378         91.6455         10.1484 
        2.34394         91.2886         10.0843 
        2.35007         90.6501         10.0209 
        2.35619         90.1508         9.95801 
        2.36233         89.7571         9.89555 
        2.36848         89.1622         9.83351 
        2.37462         88.7215         9.77213 
        2.38075         88.3927         9.71133 
        2.38689         87.7081           9.651 
        2.39303         87.2316          9.5912 
        2.39916         86.8067         9.53196 
        2.40529         86.5954         9.47324 
        2.41143         86.0722         9.41497 
        2.41757         85.4931         9.35716 
         2.4237         85.1555         9.29995 
        2.42983         84.6733         9.24322 
        2.43598         84.2238         9.18681 
        2.44211         83.8541         9.13097 
        2.44823         83.3741         9.07573 
        2.45437         82.8801         9.02079 
        2.46052         82.3353         8.96626 
        2.46665         81.9844         8.91227 
        2.47279         81.5677         8.85876 
        2.47892         81.1989         8.80565 
        2.48507         80.7169         8.75292 
         2.4912         80.3482         8.70073 
