# k  (h/Mpc)    Pcb(k)  (Mpc/h)^3    Pcb_linear(k)  (Mpc/h)^3
     0.00783031         65.0474          65.582 
       0.013688         84.5115         84.9017 
       0.019231         88.6916         88.8188 
      0.0249154         83.9732         84.2408 
      0.0312784         74.4648         74.4965 
      0.0375637         64.4423         64.3504 
      0.0433917         56.5703          56.521 
      0.0492413          50.814         50.7416 
      0.0555754         46.4977         46.4932 
      0.0619321          43.556         43.4929 
       0.067871         40.9866         41.0207 
      0.0738098         38.2591         38.3121 
      0.0800417         34.9347         35.0029 
      0.0862327         31.3745         31.3993 
      0.0921407         28.0175         28.0136 
      0.0982031         24.9464         24.9492 
       0.104506         22.4842         22.4404 
       0.110769          20.703         20.6708 
       0.116806          19.511         19.5222 
       0.122832         18.7116         18.7061 
       0.129052         17.9379         17.9642 
       0.135211         17.0959         17.1336 
       0.141259         16.1183         16.1353 
       0.147318         14.9818         14.9762 
       0.153489         13.7347         13.7368 
       0.159709         12.5648         12.5621 
       0.165845         11.6137         11.5815 
       0.171974          10.828         10.8261 
       0.178125         10.2845           10.28 
       0.184229         9.90121         9.89072 
        0.19034         9.55784         9.57433 
       0.196428          9.2507         9.25682 
       0.202534         8.89965          8.8849 
       0.208729         8.43775         8.43738 
       0.214876          7.9322         7.94344 
       0.220989         7.46138         7.44394 
       0.227147         6.97154         6.97674 
        0.23329         6.57534         6.57849 
       0.239377         6.26203         6.26285 
       0.245482         6.01195         6.01767 
       0.251667         5.82551          5.8198 
       0.257832         5.64236         5.64492 
       0.263955         5.46804         5.46807 
       0.270079         5.27367         5.27199 
        0.27624         5.06436         5.05263 
       0.282372         4.83151         4.82002 
        0.28843         4.59341         4.59033 
       0.294538         4.37905         4.37361 
       0.300721         4.19379         4.18001 
        0.30691         4.02182         4.01631 
       0.313033         3.88673         3.88067 
       0.319153         3.75533         3.76388 
       0.325316         3.66654          3.6551 
        0.33145         3.55527         3.54727 
       0.337538         3.44163          3.4351 
       0.343633         3.31998         3.31687 
       0.349808          3.2004         3.19352 
       0.355968         3.08114         3.07169 
       0.362074         2.96457         2.95737 
       0.368217         2.86006         2.85215 
       0.374374         2.75969         2.75836 
       0.380519         2.68287         2.67512 
       0.386598         2.60987         2.60054 
       0.392688         2.54243         2.53038 
        0.39888          2.4692         2.46034 
       0.405048         2.39973         2.39018 
       0.411186         2.33014         2.31933 
       0.417313         2.25557         2.24811 
       0.423458         2.18949         2.17803 
       0.429607          2.1186         2.11076 
       0.435692         2.05605         2.04819 
       0.441815         1.99841            1.99 
       0.447964         1.94939         1.93608 
       0.454126         1.89353         1.88556 
       0.460267         1.84451         1.83777 
       0.466387         1.79743         1.79163 
        0.47254         1.75265          1.7458 
       0.478662         1.70895         1.70048 
       0.484765         1.66239          1.6559 
       0.490885         1.61988         1.61214 
       0.497035         1.58197         1.56953 
       0.503198         1.53831         1.52872 
       0.509342         1.50217         1.49027 
       0.515458         1.46293         1.45407 
       0.521598         1.42891         1.41946 
       0.527764         1.39302         1.38612 
       0.533884         1.36523         1.35413 
           0.54         1.33301         1.32298 
       0.546137         1.30362          1.2923 
       0.552299         1.27233         1.26202 
       0.558452          1.2407          1.2325 
       0.564573         1.21378         1.20403 
       0.570708         1.18658         1.17653 
       0.576825         1.15921         1.15016 
       0.582926         1.13601         1.12486 
       0.589034         1.10704         1.10046 
       0.595184         1.08427         1.07678 
       0.601379         1.06195         1.05371 
       0.607522          1.0414         1.03149 
       0.613639         1.02156         1.00989 
       0.619772        0.997158        0.988707 
       0.625918        0.977209        0.967971 
       0.632068         0.95842        0.947772 
       0.638161        0.937842        0.928359 
         0.6443        0.918896        0.909433 
       0.650464        0.898872        0.891059 
       0.656582        0.882518        0.873391 
       0.662703        0.865764        0.856229 
       0.668861        0.850588        0.839435 
       0.675024        0.832639        0.823062 
       0.681124         0.81501        0.807269 
       0.687237         0.80155        0.791847 
       0.693381        0.786936         0.77675 
       0.699536        0.769282         0.76202 
       0.705665        0.755513        0.747743 
       0.711789        0.743294        0.733854 
       0.717957        0.728306         0.72023 
        0.72409        0.715936        0.707035 
       0.730186        0.702351        0.694257 
       0.736317        0.691633         0.68173 
       0.742472        0.678886        0.669471 
       0.748622        0.666444        0.657529 
        0.75476        0.653576        0.645908 
       0.760888        0.642013         0.63459 
       0.767043        0.633965        0.623502 
       0.773185        0.621323        0.612706 
       0.779291        0.610647        0.602231 
       0.785407        0.600831        0.591988 
       0.791564        0.590852        0.581923 
       0.797719        0.581504          0.5721 
       0.803834        0.572108        0.562568 
       0.809972        0.562207        0.553222 
       0.816124        0.552817         0.54407 
       0.822261        0.543227        0.535151 
       0.828378        0.535427        0.526461 
       0.834502        0.527329        0.517958 
       0.840667        0.517716        0.509589 
       0.846816        0.509787        0.501431 
       0.852925         0.50311        0.493505 
       0.859047        0.495281        0.485736 
       0.865192        0.486693         0.47811 
       0.871341        0.478962        0.470646 
       0.877463        0.473139        0.463377 
       0.883569        0.465008        0.456283 
       0.889708        0.458177        0.449303 
       0.895864        0.451068        0.442453 
       0.902008        0.444238        0.435762 
       0.908149        0.437438        0.429215 
       0.914301        0.429928        0.422794 
       0.920448        0.424327        0.416512 
       0.926574          0.4179        0.410381 
       0.932687        0.411633        0.404387 
       0.938823        0.407102        0.398493 
       0.944975        0.400967        0.392703 
       0.951105        0.395361        0.387051 
       0.957225        0.390622        0.381521 
       0.963368        0.384609        0.376081 
       0.969511        0.378549        0.370748 
       0.975621        0.373241        0.365548 
       0.981748        0.369241        0.360436 
       0.987916        0.363862         0.35539 
        0.99406        0.358569        0.350461 
        1.00019        0.354283        0.345635 
        1.00632        0.348596        0.340906 
        1.01246        0.343726        0.336259 
        1.01859        0.339821        0.331707 
        1.02471        0.335253        0.327246 
        1.03085        0.331607        0.322852 
        1.03698        0.326542        0.318549 
        1.04314        0.322414        0.314307 
        1.04929        0.317941        0.310153 
        1.05541        0.314433        0.306091 
        1.06154        0.309864        0.302093 
        1.06769         0.30564        0.298161 
        1.07382        0.302069        0.294313 
        1.07993        0.297938        0.290541 
        1.08607        0.295182        0.286821 
        1.09222         0.29086        0.283164 
        1.09836        0.287935        0.279574 
        1.10449        0.284288        0.276052 
        1.11063        0.280095        0.272587 
        1.11677        0.276544        0.269184 
         1.1229        0.273573        0.265845 
        1.12903        0.270001         0.26256 
        1.13518        0.267119        0.259329 
        1.14131        0.263618        0.256154 
        1.14745        0.259723        0.253035 
        1.15359        0.257246        0.249967 
        1.15973        0.253709         0.24695 
        1.16584        0.251458        0.243996 
        1.17197        0.248383        0.241087 
        1.17811        0.245804        0.238217 
        1.18424        0.243322        0.235403 
        1.19038        0.239995        0.232626 
        1.19652        0.236677        0.229895 
        1.20267        0.234773        0.227208 
        1.20881        0.231993        0.224566 
        1.21495        0.229664        0.221969 
        1.22108        0.226716        0.219415 
         1.2272        0.224527        0.216907 
        1.23334        0.221769        0.214433 
        1.23949        0.219311        0.211992 
        1.24562        0.216956        0.209595 
        1.25174         0.21467         0.20724 
        1.25789         0.21271        0.204914 
        1.26402        0.209651        0.202628 
        1.27014        0.207709        0.200383 
        1.27628        0.205628        0.198166 
        1.28244        0.202896        0.195978 
        1.28858        0.201052        0.193826 
        1.29471        0.199362        0.191712 
        1.30084        0.196771        0.189631 
        1.30697        0.194748        0.187579 
        1.31312        0.192235        0.185554 
        1.31925        0.190442        0.183565 
        1.32537        0.188688        0.181608 
        1.33151        0.186841        0.179673 
        1.33765        0.184969        0.177767 
        1.34378        0.182802        0.175893 
        1.34992        0.180949        0.174045 
        1.35606        0.179172         0.17222 
         1.3622         0.17742        0.170424 
        1.36833         0.17555        0.168658 
        1.37445        0.173373        0.166919 
        1.38059        0.171855        0.165199 
        1.38675        0.170753        0.163499 
        1.39288        0.168825         0.16183 
        1.39901        0.167063        0.160185 
        1.40515        0.165739         0.15856 
         1.4113        0.163625        0.156958 
        1.41742        0.162081        0.155384 
        1.42355        0.160825        0.153829 
         1.4297        0.159058        0.152291 
        1.43585        0.157617        0.150774 
        1.44198        0.156254        0.149284 
        1.44809        0.154557        0.147818 
        1.45423        0.153251        0.146365 
        1.46036        0.151704        0.144935 
        1.46649        0.150618        0.143524 
        1.47263        0.148988         0.14213 
        1.47877        0.147273        0.140756 
        1.48491        0.146172        0.139398 
        1.49104        0.144515        0.138061 
        1.49718        0.143177         0.13674 
        1.50333        0.142259        0.135435 
        1.50947        0.140645        0.134149 
         1.5156        0.139429        0.132882 
        1.52172        0.138183        0.131632 
        1.52787         0.13694        0.130395 
          1.534        0.135493        0.129176 
        1.54013        0.134345        0.127974 
        1.54627        0.133432        0.126785 
        1.55241        0.131951        0.125611 
        1.55855         0.13065        0.124454 
        1.56467        0.129989        0.123314 
         1.5708        0.128656        0.122186 
        1.57695        0.127454         0.12107 
        1.58308        0.126278        0.119971 
        1.58922        0.125297        0.118884 
        1.59535        0.124178        0.117812 
         1.6015        0.122981        0.116752 
        1.60764        0.122045        0.115705 
        1.61376        0.120846        0.114674 
        1.61989        0.119964        0.113655 
        1.62604        0.119032        0.112645 
        1.63218        0.117961        0.111649 
        1.63831        0.116946        0.110668 
        1.64444        0.116002        0.109697 
        1.65059        0.115031        0.108737 
        1.65673        0.114092        0.107788 
        1.66285        0.113332        0.106854 
        1.66898        0.112287        0.105931 
        1.67512        0.111182        0.105017 
        1.68127        0.110219        0.104113 
         1.6874        0.109516        0.103221 
        1.69353        0.108348        0.102341 
        1.69967         0.10788        0.101469 
        1.70581        0.106568        0.100607 
        1.71193        0.105847       0.0997591 
        1.71806        0.104857       0.0989189 
        1.72421        0.104385       0.0980868 
        1.73035         0.10329       0.0972653 
        1.73649        0.102661       0.0964534 
        1.74262        0.101751       0.0956515 
        1.74876        0.100901       0.0948582 
        1.75489         0.10027       0.0940756 
        1.76101        0.099272       0.0933021 
        1.76715       0.0985099       0.0925363 
        1.77329       0.0976293       0.0917782 
        1.77943       0.0970045       0.0910283 
        1.78557       0.0963541       0.0902879 
        1.79171       0.0955888       0.0895557 
        1.79785       0.0948319       0.0888315 
        1.80399       0.0940818       0.0881155 
        1.81012       0.0934162       0.0874084 
        1.81625       0.0926395       0.0867095 
        1.82239       0.0918796       0.0860171 
        1.82853       0.0911947       0.0853327 
        1.83466       0.0905767       0.0846565 
        1.84078       0.0898761       0.0839883 
        1.84692       0.0891025       0.0833264 
        1.85306       0.0885758       0.0826707 
         1.8592       0.0877545       0.0820232 
        1.86533       0.0872392       0.0813831 
        1.87147       0.0865308        0.080749 
        1.87761       0.0860922       0.0801215 
        1.88375        0.085378       0.0795014 
        1.88988       0.0846572       0.0788885 
        1.89601       0.0840442       0.0782819 
        1.90215       0.0834275       0.0776811 
        1.90829       0.0827581        0.077087 
        1.91442        0.082363        0.076499 
        1.92056        0.081613       0.0759178 
         1.9267       0.0809812       0.0753421 
        1.93284       0.0804533       0.0747719 
        1.93897       0.0798733       0.0742089 
        1.94509       0.0794017       0.0736528 
        1.95123       0.0787327       0.0731011 
        1.95737        0.078253       0.0725546 
        1.96349       0.0776311       0.0720152 
        1.96964       0.0771059       0.0714797 
        1.97578        0.076553       0.0709495 
        1.98192       0.0761157       0.0704258 
        1.98805       0.0755311       0.0699073 
        1.99419       0.0749148        0.069394 
        2.00033       0.0744113       0.0688857 
        2.00647       0.0740838       0.0683826 
         2.0126       0.0733808       0.0678854 
        2.01874       0.0730565       0.0673924 
        2.02488       0.0725113       0.0669039 
        2.03101       0.0720296       0.0664212 
        2.03714       0.0713773       0.0659437 
        2.04328       0.0711175       0.0654703 
        2.04941       0.0704291       0.0650021 
        2.05554       0.0701295       0.0645388 
        2.06167       0.0697221       0.0640794 
        2.06781       0.0691105       0.0636244 
        2.07396       0.0687059       0.0631732 
        2.08009       0.0682136       0.0627272 
        2.08622       0.0678237        0.062286 
        2.09237       0.0673651       0.0618482 
        2.09851       0.0669003       0.0614146 
        2.10464       0.0665644       0.0609859 
        2.11077       0.0660169       0.0605618 
        2.11691       0.0655829       0.0601408 
        2.12305       0.0651705       0.0597238 
        2.12918       0.0648231       0.0593118 
        2.13531       0.0642836       0.0589037 
        2.14145       0.0638458       0.0584985 
         2.1476       0.0634825       0.0580966 
        2.15372        0.063183       0.0577006 
        2.15985       0.0626721       0.0573078 
        2.16599       0.0622608       0.0569176 
        2.17213        0.061899       0.0565315 
        2.17827       0.0614856       0.0561491 
         2.1844       0.0611923       0.0557705 
        2.19054         0.06077       0.0553954 
        2.19666       0.0603513       0.0550242 
         2.2028       0.0599315       0.0546561 
        2.20893       0.0596719       0.0542912 
        2.21508       0.0592563       0.0539293 
        2.22122       0.0588399       0.0535705 
        2.22736       0.0585585       0.0532158 
        2.23349       0.0581697       0.0528644 
        2.23962        0.057914        0.052516 
        2.24577       0.0574757       0.0521704 
         2.2519       0.0571455       0.0518285 
        2.25802       0.0567874       0.0514901 
        2.26417       0.0564485       0.0511539 
        2.27031       0.0560413       0.0508204 
        2.27644       0.0557174       0.0504908 
        2.28257       0.0554443       0.0501642 
        2.28872       0.0551218       0.0498398 
        2.29486       0.0548452       0.0495185 
        2.30099       0.0544741       0.0492006 
        2.30712       0.0540351       0.0488854 
        2.31326        0.053749       0.0485724 
         2.3194       0.0535538       0.0482623 
        2.32553       0.0531873       0.0479555 
        2.33166       0.0529603       0.0476515 
         2.3378        0.052633       0.0473497 
        2.34394       0.0522748       0.0470505 
        2.35007       0.0519307       0.0467543 
        2.35619       0.0515465        0.046461 
        2.36233       0.0513933       0.0461695 
        2.36848       0.0511549       0.0458799 
        2.37462       0.0507693       0.0455935 
        2.38075       0.0504784       0.0453098 
        2.38689       0.0502025       0.0450282 
        2.39303       0.0499675       0.0447491 
        2.39916       0.0496455       0.0444727 
        2.40529       0.0494103       0.0441987 
        2.41143       0.0490595       0.0439267 
        2.41757       0.0487917        0.043657 
         2.4237       0.0485988         0.04339 
        2.42983       0.0483528       0.0431253 
        2.43598       0.0481081       0.0428621 
        2.44211       0.0477402       0.0426015 
        2.44823       0.0475134       0.0423438 
        2.45437        0.047223       0.0420874 
        2.46052       0.0469951        0.041833 
        2.46665        0.046672       0.0415811 
        2.47279       0.0464319       0.0413314 
        2.47892       0.0461209       0.0410835 
        2.48507        0.045895       0.0408375 
         2.4912       0.0456769        0.040594 
