# k  (h/Mpc)    P(k)  (Mpc/h)^3    P_linear(k)  (Mpc/h)^3
     0.00783031         4229.21         4285.72 
       0.013688         5430.53         5421.58 
       0.019231         5639.43         5639.51 
      0.0249154         5300.18         5363.27 
      0.0312784         4748.91         4773.84 
      0.0375637         4141.56         4138.05 
      0.0433917         3592.57         3621.99 
      0.0492413         3211.57            3218 
      0.0555754         2864.52         2904.33 
      0.0619321          2696.4         2683.23 
       0.067871         2491.07         2520.27 
      0.0738098         2334.75         2365.16 
      0.0800417         2145.13         2188.47 
      0.0862327         1968.12         1993.85 
      0.0921407         1789.69         1799.71 
      0.0982031         1592.86         1608.29 
       0.104506         1448.54         1434.15 
       0.110769         1311.23         1296.18 
       0.116806         1204.62         1197.47 
       0.122832         1141.62         1126.95 
       0.129052         1073.17          1073.5 
       0.135211         1028.17         1028.63 
       0.141259          990.57         983.102 
       0.147318          942.44         930.697 
       0.153489         874.522         869.583 
       0.159709         817.168         803.476 
       0.165845         766.787         739.264 
       0.171974          705.47          681.37 
       0.178125         661.752         632.964 
       0.184229          628.02         595.503 
        0.19034         587.307         567.309 
       0.196428         575.559         545.725 
       0.202534         561.001         527.213 
       0.208729         536.894         508.463 
       0.214876         510.902         487.775 
       0.220989         495.305         464.484 
       0.227147         465.243         438.996 
        0.23329         442.526         413.127 
       0.239377         425.873         388.827 
       0.245482         396.458         367.174 
       0.251667          387.81         348.756 
       0.257832         373.505         333.871 
       0.263955         360.524         321.824 
       0.270079         348.735          311.47 
        0.27624         343.549         301.664 
       0.282372         330.845         291.636 
        0.28843         319.396         281.033 
       0.294538         305.999         269.614 
       0.300721          300.73         257.696 
        0.30691         286.044         245.945 
       0.313033         277.819         235.053 
       0.319153         265.589         225.259 
       0.325316         259.287         216.658 
        0.33145         250.616         209.245 
       0.337538         246.654         202.763 
       0.343633         238.824         196.788 
       0.349808         231.933         190.936 
       0.355968         227.487         185.036 
       0.362074         221.088         179.045 
       0.368217         215.054         172.889 
       0.374374         208.376         166.731 
       0.380519          203.75         160.773 
       0.386598         198.329          155.21 
       0.392688         195.084         150.081 
        0.39888         189.878         145.333 
       0.405048         185.728          141.03 
       0.411186         181.615         137.076 
       0.417313         177.341         133.331 
       0.423458         173.697         129.681 
       0.429607          169.41         126.068 
       0.435692         164.172         122.493 
       0.441815         162.864         118.922 
       0.447964          160.05         115.405 
       0.454126         153.122         111.993 
       0.460267         151.274         108.756 
       0.466387         148.764         105.724 
        0.47254         146.042         102.862 
       0.478662         144.246         100.185 
       0.484765         140.304         97.6583 
       0.490885          137.91         95.2268 
       0.497035         136.132         92.8491 
       0.503198         132.474         90.5153 
       0.509342         129.953         88.2331 
       0.515458           128.1         86.0037 
       0.521598         126.405         83.8184 
       0.527764         124.388         81.6947 
       0.533884         122.254         79.6721 
           0.54         120.138         77.7397 
       0.546137         119.001         75.8846 
       0.552299         117.186         74.1023 
       0.558452         114.442         72.3954 
       0.564573         112.386         70.7559 
       0.570708         111.094         69.1591 
       0.576825          109.33          67.604 
       0.582926         107.341         66.0893 
       0.589034           105.3         64.6111 
       0.595184         104.165         63.1636 
       0.601379         102.995         61.7489 
       0.607522         100.435         60.3903 
       0.613639         100.283         59.0826 
       0.619772         97.9223         57.8179 
       0.625918         97.1243         56.5954 
       0.632068         95.8948          55.412 
       0.638161         94.6889         54.2743 
         0.6443         93.3697         53.1585 
       0.650464         92.1293         52.0662 
       0.656582         91.0831         51.0095 
       0.662703         89.3068         49.9799 
       0.668861         88.4156          48.972 
       0.675024         87.3255         47.9913 
       0.681124         86.1533         47.0479 
       0.687237         84.6816         46.1288 
       0.693381         83.9072          45.231 
       0.699536         82.6636         44.3567 
       0.705665         83.0868         43.5108 
       0.711789            80.8         42.6887 
       0.717957         80.2816         41.8828 
        0.72409         79.1556         41.1024 
       0.730186         77.8558         40.3461 
       0.736317         77.6788         39.6041 
       0.742472          76.571         38.8771 
       0.748622         75.9582         38.1685 
        0.75476         75.0765          37.479 
       0.760888         73.9993         36.8076 
       0.767043         73.2791         36.1504 
       0.773185         72.3892         35.5113 
       0.779291         71.9639         34.8919 
       0.785407         71.3037         34.2869 
       0.791564         70.2656         33.6928 
       0.797719         69.2828         33.1133 
       0.803834         69.0577         32.5512 
       0.809972         67.8974              32 
       0.816124         67.2131         31.4601 
       0.822261         66.7877         30.9341 
       0.828378         66.2261         30.4216 
       0.834502         65.4866         29.9202 
       0.840667         64.9465         29.4269 
       0.846816         64.1146         28.9462 
       0.852925         63.5346         28.4794 
       0.859047         62.7154          28.022 
       0.865192         62.4416         27.5733 
       0.871341         62.0746         27.1343 
       0.877463         60.9019         26.7069 
       0.883569         60.5445         26.2899 
       0.889708         60.2267         25.8797 
       0.895864         59.6418         25.4773 
       0.902008         59.1371         25.0843 
       0.908149         58.6851         24.6999 
       0.914301         58.2358         24.3229 
       0.920448         57.5509         23.9542 
       0.926574         57.1546         23.5944 
       0.932687         56.6885         23.2428 
       0.938823         55.8491         22.8971 
       0.944975          55.746         22.5577 
       0.951105          55.179         22.2264 
       0.957225         54.5125         21.9024 
       0.963368         54.3942         21.5838 
       0.969511         53.9849         21.2715 
       0.975621          53.533         20.9671 
       0.981748         52.9092          20.668 
       0.987916          52.653         20.3728 
        0.99406          52.323         20.0845 
        1.00019         51.6245         19.8024 
        1.00632         51.4297          19.526 
        1.01246         50.9814         19.2545 
        1.01859         50.3871         18.9886 
        1.02471         50.4714         18.7281 
        1.03085         49.9095         18.4716 
        1.03698         49.3676         18.2205 
        1.04314         48.9141          17.973 
        1.04929         48.7262         17.7307 
        1.05541          48.192         17.4939 
        1.06154         48.1041         17.2608 
        1.06769         47.6617         17.0317 
        1.07382         47.3496         16.8074 
        1.07993         47.1858         16.5878 
        1.08607         46.6247         16.3712 
        1.09222         46.4694         16.1582 
        1.09836           46.05         15.9493 
        1.10449         45.7547         15.7443 
        1.11063         45.1849         15.5427 
        1.11677         45.0003         15.3447 
         1.1229         44.8708         15.1506 
        1.12903         44.2391         14.9596 
        1.13518         44.1733         14.7718 
        1.14131         44.0483         14.5873 
        1.14745         43.5085         14.4061 
        1.15359         43.3992         14.2279 
        1.15973         42.8988         14.0527 
        1.16584         42.5908         13.8812 
        1.17197         42.5461         13.7124 
        1.17811         42.1205         13.5458 
        1.18424          41.743         13.3825 
        1.19038         41.7167         13.2215 
        1.19652         41.4462         13.0631 
        1.20267         41.1382         12.9074 
        1.20881         40.8303         12.7542 
        1.21495         40.5501         12.6038 
        1.22108         40.3084         12.4558 
         1.2272         39.8752         12.3106 
        1.23334         39.7741         12.1673 
        1.23949         39.5943          12.026 
        1.24562         39.3743         11.8873 
        1.25174         39.1683         11.7511 
        1.25789         38.9024         11.6166 
        1.26402         38.6646         11.4844 
        1.27014         38.3077         11.3546 
        1.27628         38.1548         11.2264 
        1.28244         37.9034            11.1 
        1.28858         37.7716         10.9757 
        1.29471         37.5641         10.8536 
        1.30084         37.3372         10.7334 
        1.30697         37.0347         10.6149 
        1.31312         36.7393          10.498 
        1.31925         36.6417         10.3833 
        1.32537         36.4741         10.2704 
        1.33151         36.2095         10.1587 
        1.33765         36.1527         10.0488 
        1.34378         35.9493         9.94075 
        1.34992         35.4403         9.83421 
        1.35606         35.3418         9.72899 
         1.3622         35.1461          9.6255 
        1.36833         34.9741         9.52377 
        1.37445         34.9577         9.42356 
        1.38059         34.7337         9.32449 
        1.38675         34.3992         9.22661 
        1.39288         34.3131         9.13052 
        1.39901         34.0087         9.03585 
        1.40515         33.8825         8.94231 
         1.4113         33.7654         8.85013 
        1.41742         33.3934          8.7596 
        1.42355         33.3737         8.67018 
         1.4297         33.1281         8.58173 
        1.43585         33.0876         8.49456 
        1.44198         32.7718         8.40893 
        1.44809         32.6419         8.32465 
        1.45423         32.5289         8.24121 
        1.46036         32.4048         8.15907 
        1.46649         32.1554         8.07802 
        1.47263         31.9967           7.998 
        1.47877         31.8666         7.91911 
        1.48491         31.6747         7.84116 
        1.49104         31.5863         7.76443 
        1.49718         31.2885         7.68867 
        1.50333          31.232          7.6138 
        1.50947         31.0713         7.54008 
         1.5156         30.8615         7.46745 
        1.52172         30.6435         7.39578 
        1.52787         30.6775         7.32491 
          1.534         30.4022         7.25505 
        1.54013         30.1955         7.18617 
        1.54627         30.1592         7.11807 
        1.55241         29.9544         7.05084 
        1.55855         29.7966         6.98457 
        1.56467         29.6615         6.91934 
         1.5708         29.5587         6.85475 
        1.57695          29.265         6.79089 
        1.58308         29.3446           6.728 
        1.58922         29.1229         6.66586 
        1.59535         28.9272         6.60452 
         1.6015         28.8117         6.54388 
        1.60764         28.7493         6.48402 
        1.61376         28.5475         6.42508 
        1.61989         28.3121         6.36682 
        1.62604         28.2936         6.30916 
        1.63218         28.0829         6.25225 
        1.63831          28.029         6.19617 
        1.64444         27.8634         6.14076 
        1.65059           27.68         6.08589 
        1.65673         27.6029         6.03176 
        1.66285         27.4653         5.97843 
        1.66898         27.3423         5.92574 
        1.67512         27.2551         5.87357 
        1.68127         27.0321         5.82199 
         1.6874         26.9466         5.77114 
        1.69353         26.8824         5.72093 
        1.69967         26.6755         5.67119 
        1.70581         26.5716         5.62208 
        1.71193         26.4292         5.57372 
        1.71806         26.3363         5.52584 
        1.72421         26.1977         5.47842 
        1.73035         26.1139         5.43161 
        1.73649         25.9612         5.38536 
        1.74262         25.8659         5.33969 
        1.74876         25.7719         5.29451 
        1.75489         25.6161         5.24996 
        1.76101         25.5336         5.20592 
        1.76715         25.4227         5.16234 
        1.77329          25.341          5.1192 
        1.77943         25.1962         5.07653 
        1.78557         25.0764         5.03441 
        1.79171         24.9826         4.99276 
        1.79785          24.844         4.95158 
        1.80399         24.7348         4.91087 
        1.81012         24.6836         4.87067 
        1.81625         24.5488         4.83094 
        1.82239         24.5046         4.79159 
        1.82853         24.2786          4.7527 
        1.83466         24.1759         4.71428 
        1.84078          24.012         4.67632 
        1.84692         24.0232         4.63872 
        1.85306         23.8566         4.60149 
         1.8592         23.7708         4.56473 
        1.86533         23.6626         4.52838 
        1.87147         23.5607          4.4924 
        1.87761          23.543         4.45678 
        1.88375         23.3701          4.4216 
        1.88988         23.3333         4.38683 
        1.89601         23.1607         4.35242 
        1.90215         23.0798         4.31835 
        1.90829         23.0231         4.28466 
        1.91442         22.8848         4.25133 
        1.92056         22.8112         4.21838 
         1.9267         22.7194         4.18574 
        1.93284          22.593         4.15344 
        1.93897         22.5284         4.12153 
        1.94509         22.4254         4.09003 
        1.95123         22.2956         4.05878 
        1.95737         22.2185         4.02783 
        1.96349         22.1321         3.99728 
        1.96964         22.0163         3.96696 
        1.97578         21.9805         3.93694 
        1.98192         21.8102          3.9073 
        1.98805         21.7845         3.87795 
        1.99419         21.6661         3.84891 
        2.00033         21.5526         3.82015 
        2.00647          21.485         3.79169 
         2.0126         21.3382         3.76357 
        2.01874         21.2946         3.73569 
        2.02488         21.2516         3.70807 
        2.03101         21.1862         3.68078 
        2.03714         21.0524         3.65379 
        2.04328         20.9464         3.62704 
        2.04941          20.858         3.60057 
        2.05554         20.8357          3.5744 
        2.06167         20.7363         3.54844 
        2.06781         20.6525         3.52274 
        2.07396         20.5534         3.49726 
        2.08009         20.4902         3.47207 
        2.08622         20.3972         3.44716 
        2.09237         20.3156         3.42245 
        2.09851         20.2069         3.39797 
        2.10464         20.1556         3.37377 
        2.11077         20.0289         3.34984 
        2.11691         20.0185         3.32609 
        2.12305         19.8809         3.30256 
        2.12918         19.8159         3.27932 
        2.13531         19.7573          3.2563 
        2.14145         19.6542         3.23345 
         2.1476         19.5696         3.21079 
        2.15372         19.5123         3.18846 
        2.15985         19.3939         3.16633 
        2.16599         19.3596         3.14433 
        2.17213         19.2939         3.12258 
        2.17827         19.1992         3.10103 
         2.1844         19.1126          3.0797 
        2.19054         19.0466         3.05857 
        2.19666         18.9856         3.03767 
         2.2028         18.9253         3.01694 
        2.20893         18.7972         2.99639 
        2.21508         18.7615         2.97602 
        2.22122         18.6392         2.95582 
        2.22736         18.5919         2.93586 
        2.23349         18.5162         2.91608 
        2.23962         18.4484         2.89648 
        2.24577         18.3473         2.87704 
         2.2519           18.32          2.8578 
        2.25802         18.2694         2.83877 
        2.26417         18.1847         2.81986 
        2.27031         18.1137         2.80111 
        2.27644         18.0454         2.78258 
        2.28257         17.9619         2.76422 
        2.28872         17.8769         2.74599 
        2.29486          17.842         2.72793 
        2.30099         17.7531         2.71006 
        2.30712         17.7233         2.69235 
        2.31326         17.6379         2.67477 
         2.3194         17.5421         2.65735 
        2.32553         17.4892         2.64012 
        2.33166         17.3879         2.62305 
         2.3378         17.3382         2.60611 
        2.34394         17.2661         2.58931 
        2.35007         17.1939         2.57268 
        2.35619         17.1209         2.55622 
        2.36233          17.067         2.53986 
        2.36848         17.0255         2.52361 
        2.37462         16.9977         2.50754 
        2.38075         16.9004         2.49163 
        2.38689         16.8559         2.47583 
        2.39303         16.7664         2.46018 
        2.39916         16.6992         2.44468 
        2.40529          16.642         2.42932 
        2.41143         16.5843         2.41407 
        2.41757         16.5343         2.39895 
         2.4237         16.4422         2.38398 
        2.42983         16.3975         2.36915 
        2.43598         16.3339          2.3544 
        2.44211         16.2484          2.3398 
        2.44823         16.1923         2.32536 
        2.45437         16.1656           2.311 
        2.46052         16.1066         2.29674 
        2.46665         16.0357         2.28264 
        2.47279          15.968         2.26866 
        2.47892         15.9195         2.25478 
        2.48507         15.8743         2.24101 
         2.4912         15.8093         2.22738 
