# k  (h/Mpc)    Pcb(k)  (Mpc/h)^3    Pcb_linear(k)  (Mpc/h)^3
     0.00783031         2597.92         2625.57 
       0.013688         3143.51         3141.73 
       0.019231         3096.85          3094.1 
      0.0249154         2759.72         2780.13 
      0.0312784         2327.85         2330.63 
      0.0375637         1932.86         1925.76 
      0.0433917         1635.17         1638.75 
      0.0492413         1442.48         1439.64 
      0.0555754         1291.61         1300.73 
      0.0619321         1213.96         1205.92 
       0.067871          1121.6          1127.9 
      0.0738098         1035.48         1041.65 
      0.0800417         927.747         936.707 
      0.0862327         822.136         824.567 
      0.0921407         724.009         722.065 
      0.0982031         632.154         632.301 
       0.104506         569.584           561.6 
       0.110769          520.84         513.877 
       0.116806         487.186         484.211 
       0.122832          468.46         463.548 
       0.129052         444.413         444.176 
       0.135211         421.818         421.468 
       0.141259         397.226         393.703 
       0.147318         367.467          361.68 
       0.153489         332.623         328.096 
       0.159709         303.608         297.088 
       0.165845         281.798         271.952 
       0.171974         260.498         253.162 
       0.178125         247.968         239.938 
       0.184229         238.762         230.614 
        0.19034         227.009         222.884 
       0.196428           221.4         214.855 
       0.202534         213.813         205.301 
       0.208729         201.174         193.872 
       0.214876         187.949          181.47 
       0.220989          178.01         169.181 
       0.227147         165.527         157.913 
        0.23329         156.463         148.468 
       0.239377         150.244         141.057 
       0.245482         141.967         135.282 
       0.251667         139.159         130.541 
       0.257832         134.645         126.256 
       0.263955          129.93         121.879 
       0.270079         124.957          117.08 
        0.27624         121.211          111.82 
       0.282372          115.85         106.361 
        0.28843          110.13         101.076 
       0.294538         105.096         96.1479 
       0.300721         102.073           91.77 
        0.30691         97.2305         88.0404 
       0.313033         94.2483          84.903 
       0.319153         90.0532         82.1388 
       0.325316         88.6582         79.5311 
        0.33145         85.4158          76.946 
       0.337538         83.2873         74.3078 
       0.343633         80.1906         71.5849 
       0.349808         77.6443         68.8095 
       0.355968         75.2451         66.1097 
       0.362074         72.6015         63.5959 
       0.368217         70.3111         61.2798 
       0.374374         68.0912          59.189 
       0.380519         66.3702         57.3053 
       0.386598         64.5824         55.5861 
       0.392688         63.2346         53.9549 
        0.39888         61.3941         52.3348 
       0.405048         59.8635         50.7317 
       0.411186         58.3823         49.1452 
       0.417313         56.4848         47.5797 
       0.423458         54.9894         46.0553 
       0.429607         53.4808         44.6019 
       0.435692         51.7103          43.247 
       0.441815          50.882         41.9726 
       0.447964         49.9784         40.7781 
       0.454126         47.9191         39.6479 
       0.460267         47.1681         38.5706 
       0.466387         45.8462         37.5324 
        0.47254         45.1021         36.5131 
       0.478662         44.3331         35.5177 
       0.484765         42.9514         34.5491 
       0.490885         41.9878         33.6077 
       0.497035         41.4443         32.6965 
       0.503198         40.2935         31.8223 
       0.509342          39.243         30.9921 
       0.515458         38.4679         30.2056 
       0.521598         37.8117         29.4499 
       0.527764         37.0313         28.7193 
       0.533884         36.4096         28.0176 
           0.54         35.5844         27.3375 
       0.546137          35.053         26.6736 
       0.552299         34.4784         26.0245 
       0.558452         33.4219         25.3951 
       0.564573         32.8951         24.7892 
       0.570708         32.3764         24.2038 
       0.576825         31.6207         23.6418 
       0.582926         30.9868         23.1014 
       0.589034          30.226         22.5789 
       0.595184         29.8386         22.0702 
       0.601379         29.2813         21.5742 
       0.607522         28.7113         21.0972 
       0.613639         28.4463         20.6357 
       0.619772          27.707         20.1858 
       0.625918         27.5499         19.7473 
       0.632068         27.0988         19.3211 
       0.638161         26.5393         18.9116 
         0.6443         26.0245         18.5117 
       0.650464         25.5694          18.123 
       0.656582          25.394         17.7489 
       0.662703          24.902         17.3857 
       0.668861         24.4442         17.0306 
       0.675024         24.0235          16.685 
       0.681124         23.6042         16.3523 
       0.687237         23.2133         16.0277 
       0.693381         23.0187         15.7105 
       0.699536         22.4241         15.4013 
       0.705665         22.3705         15.1018 
       0.711789           21.86         14.8108 
       0.717957         21.5643         14.5256 
        0.72409         21.2531         14.2496 
       0.730186         20.9446         13.9826 
       0.736317         20.7259          13.721 
       0.742472         20.3642         13.4651 
       0.748622         20.1602         13.2161 
        0.75476         19.8073         12.9739 
       0.760888          19.511         12.7382 
       0.767043         19.2781         12.5075 
       0.773185         18.9407          12.283 
       0.779291         18.8455         12.0653 
       0.785407         18.6151         11.8527 
       0.791564         18.2852         11.6439 
       0.797719         17.8774         11.4403 
       0.803834         17.8571         11.2429 
       0.809972         17.6823         11.0495 
       0.816124         17.2893         10.8603 
       0.822261         17.1108          10.676 
       0.828378         16.9376         10.4966 
       0.834502         16.7795         10.3211 
       0.840667         16.5402         10.1486 
       0.846816          16.246         9.98048 
       0.852925         16.0907         9.81728 
       0.859047         15.9166         9.65741 
       0.865192         15.7627          9.5006 
       0.871341         15.6405         9.34719 
       0.877463         15.3532         9.19789 
       0.883569         15.1679         9.05225 
       0.889708         14.9442         8.90903 
       0.895864         14.8181         8.76857 
       0.902008         14.7072         8.63146 
       0.908149         14.5464         8.49737 
       0.914301         14.4481         8.36594 
       0.920448         14.1771         8.23742 
       0.926574         14.0476         8.11207 
       0.932687         13.8938          7.9896 
       0.938823         13.7121         7.86924 
       0.944975         13.5666         7.75109 
       0.951105         13.4362         7.63581 
       0.957225          13.319         7.52308 
       0.963368         13.2026         7.41226 
       0.969511         13.0732         7.30369 
       0.975621         12.9466         7.19788 
       0.981748         12.7715         7.09392 
       0.987916         12.6996         6.99136 
        0.99406         12.5162         6.89123 
        1.00019         12.3426         6.79327 
        1.00632         12.3086         6.69732 
        1.01246         12.1887         6.60309 
        1.01859         11.9911         6.51084 
        1.02471         11.9463         6.42047 
        1.03085         11.8226         6.33152 
        1.03698         11.6412         6.24445 
        1.04314         11.5804         6.15866 
        1.04929         11.4345         6.07468 
        1.05541         11.3112         5.99262 
        1.06154         11.2383         5.91188 
        1.06769          11.182         5.83252 
        1.07382         11.0225         5.75487 
        1.07993         10.9428         5.67883 
        1.08607         10.8392         5.60385 
        1.09222         10.7577         5.53015 
        1.09836         10.6287         5.45787 
        1.10449         10.5487         5.38698 
        1.11063         10.4338         5.31727 
        1.11677         10.3919         5.24882 
         1.1229         10.3229          5.1817 
        1.12903         10.1841          5.1157 
        1.13518         10.0646          5.0508 
        1.14131         10.0188         4.98706 
        1.14745          9.9278         4.92447 
        1.15359         9.86118         4.86294 
        1.15973         9.76528         4.80244 
        1.16584         9.62736         4.74324 
        1.17197          9.5817         4.68496 
        1.17811         9.52571         4.62749 
        1.18424         9.43903         4.57115 
        1.19038         9.40038         4.51559 
        1.19652         9.29283         4.46098 
        1.20267         9.20669         4.40727 
        1.20881         9.17637         4.35447 
        1.21495         9.10182         4.30261 
        1.22108         8.99184         4.25162 
         1.2272         8.93004         4.20157 
        1.23334         8.84758         4.15222 
        1.23949         8.76833         4.10354 
        1.24562         8.73318         4.05579 
        1.25174         8.66781         4.00887 
        1.25789         8.60109         3.96255 
        1.26402          8.5596         3.91706 
        1.27014         8.48338         3.87239 
        1.27628         8.37865         3.82828 
        1.28244         8.31645         3.78478 
        1.28858         8.31179         3.74202 
        1.29471         8.21434         3.70001 
        1.30084         8.13498         3.65869 
        1.30697         8.12076         3.61794 
        1.31312          8.0076         3.57776 
        1.31925         7.94992         3.53831 
        1.32537         7.91328          3.4995 
        1.33151         7.87086         3.46113 
        1.33765          7.7998         3.42336 
        1.34378         7.74303         3.38623 
        1.34992         7.68208         3.34963 
        1.35606         7.63893          3.3135 
         1.3622          7.5935         3.27796 
        1.36833         7.52037         3.24303 
        1.37445         7.48427         3.20862 
        1.38059         7.45008         3.17461 
        1.38675         7.37907         3.14102 
        1.39288         7.35166         3.10804 
        1.39901         7.26825         3.07556 
        1.40515         7.23797         3.04347 
         1.4113         7.18853         3.01184 
        1.41742         7.13716         2.98079 
        1.42355         7.07779         2.95012 
         1.4297           7.046         2.91979 
        1.43585         7.01295          2.8899 
        1.44198         6.97571         2.86054 
        1.44809          6.9183         2.83165 
        1.45423         6.86588         2.80305 
        1.46036         6.81604          2.7749 
        1.46649         6.78583         2.74713 
        1.47263         6.72308         2.71971 
        1.47877         6.68375         2.69268 
        1.48491         6.65164         2.66598 
        1.49104         6.60817          2.6397 
        1.49718          6.5725         2.61375 
        1.50333         6.53524         2.58811 
        1.50947         6.48228         2.56287 
         1.5156         6.44968         2.53801 
        1.52172          6.4181         2.51347 
        1.52787         6.37168         2.48921 
          1.534         6.32381          2.4653 
        1.54013         6.29612         2.44173 
        1.54627         6.24404         2.41843 
        1.55241         6.21495         2.39543 
        1.55855         6.18972         2.37276 
        1.56467         6.14008         2.35045 
         1.5708         6.12141         2.32836 
        1.57695         6.06835         2.30652 
        1.58308         6.02264         2.28502 
        1.58922         6.00878         2.26377 
        1.59535         5.98131          2.2428 
         1.6015         5.92638         2.22207 
        1.60764         5.88534         2.20161 
        1.61376          5.8707         2.18147 
        1.61989         5.83398         2.16156 
        1.62604         5.79897         2.14185 
        1.63218          5.7835         2.12241 
        1.63831         5.74157         2.10325 
        1.64444         5.71228         2.08431 
        1.65059         5.65302         2.06557 
        1.65673         5.65819         2.04708 
        1.66285         5.59707         2.02887 
        1.66898         5.57154         2.01087 
        1.67512         5.54812         1.99306 
        1.68127         5.51372         1.97544 
         1.6874         5.49469         1.95808 
        1.69353         5.44632         1.94094 
        1.69967         5.43022         1.92396 
        1.70581         5.40507          1.9072 
        1.71193         5.36494          1.8907 
        1.71806         5.34885         1.87435 
        1.72421         5.31172         1.85817 
        1.73035         5.29511          1.8422 
        1.73649         5.26491         1.82642 
        1.74262         5.23081         1.81084 
        1.74876          5.2145         1.79543 
        1.75489         5.18599         1.78023 
        1.76101          5.1472         1.76521 
        1.76715         5.13222         1.75035 
        1.77329         5.09841         1.73564 
        1.77943         5.06402         1.72109 
        1.78557         5.05557         1.70673 
        1.79171         5.02558         1.69253 
        1.79785         4.99611         1.67849 
        1.80399         4.96863         1.66461 
        1.81012         4.94809         1.65091 
        1.81625         4.92383         1.63737 
        1.82239         4.90331         1.62396 
        1.82853         4.87196         1.61071 
        1.83466         4.85107         1.59762 
        1.84078         4.82898         1.58469 
        1.84692         4.81875         1.57188 
        1.85306         4.77958          1.5592 
         1.8592         4.75078         1.54667 
        1.86533         4.73413          1.5343 
        1.87147          4.7137         1.52204 
        1.87761         4.69026         1.50991 
        1.88375         4.66199         1.49793 
        1.88988         4.64793         1.48609 
        1.89601         4.62423         1.47437 
        1.90215         4.60142         1.46277 
        1.90829         4.57688          1.4513 
        1.91442         4.55681         1.43995 
        1.92056         4.54096         1.42873 
         1.9267         4.51017         1.41762 
        1.93284         4.49303         1.40663 
        1.93897         4.46875         1.39577 
        1.94509         4.45618         1.38505 
        1.95123         4.43198         1.37441 
        1.95737         4.40394         1.36388 
        1.96349         4.39396         1.35348 
        1.96964         4.37198         1.34317 
        1.97578         4.34392         1.33296 
        1.98192         4.33472         1.32287 
        1.98805          4.3147         1.31289 
        1.99419         4.29019         1.30301 
        2.00033         4.28234         1.29323 
        2.00647         4.25389         1.28355 
         2.0126         4.24274         1.27398 
        2.01874          4.2158          1.2645 
        2.02488         4.20529         1.25511 
        2.03101         4.17594         1.24583 
        2.03714         4.15516         1.23665 
        2.04328         4.14121         1.22755 
        2.04941         4.11757         1.21856 
        2.05554          4.1062         1.20966 
        2.06167         4.08691         1.20084 
        2.06781         4.07187          1.1921 
        2.07396         4.06118         1.18344 
        2.08009         4.03903         1.17488 
        2.08622         4.01713         1.16641 
        2.09237         4.00021         1.15801 
        2.09851         3.99123          1.1497 
        2.10464          3.9721         1.14147 
        2.11077         3.94683         1.13334 
        2.11691         3.93047         1.12527 
        2.12305         3.92132         1.11728 
        2.12918         3.90999         1.10939 
        2.13531         3.89124         1.10157 
        2.14145         3.87338          1.0938 
         2.1476         3.85353         1.08611 
        2.15372         3.83701         1.07852 
        2.15985         3.83699         1.07101 
        2.16599         3.80514         1.06354 
        2.17213         3.79285         1.05615 
        2.17827         3.78336         1.04883 
         2.1844         3.76413         1.04159 
        2.19054         3.74418         1.03441 
        2.19666         3.73049         1.02732 
         2.2028         3.71612         1.02028 
        2.20893         3.70341          1.0133 
        2.21508         3.68591         1.00638 
        2.22122          3.6685        0.999529 
        2.22736           3.658        0.992752 
        2.23349          3.6492        0.986039 
        2.23962         3.63162        0.979385 
        2.24577         3.61681        0.972787 
         2.2519           3.609        0.966258 
        2.25802         3.58791          0.9598 
        2.26417         3.57719        0.953383 
        2.27031         3.55949        0.947019 
        2.27644         3.54242        0.940731 
        2.28257         3.52789        0.934501 
        2.28872         3.52451        0.928315 
        2.29486         3.50652        0.922187 
        2.30099         3.48948        0.916127 
        2.30712         3.47737        0.910118 
        2.31326          3.4592        0.904153 
         2.3194           3.451        0.898245 
        2.32553         3.44192          0.8924 
        2.33166         3.42998        0.886609 
         2.3378         3.41242        0.880862 
        2.34394         3.40153        0.875163 
        2.35007         3.38561        0.869523 
        2.35619         3.37813         0.86394 
        2.36233         3.36311        0.858393 
        2.36848          3.3472        0.852883 
        2.37462         3.34405        0.847433 
        2.38075         3.32655        0.842035 
        2.38689         3.31925        0.836681 
        2.39303         3.30065        0.831373 
        2.39916         3.28906        0.826118 
        2.40529         3.27834        0.820908 
        2.41143         3.26663        0.815739 
        2.41757         3.26114        0.810613 
         2.4237         3.24723         0.80554 
        2.42983         3.22555        0.800511 
        2.43598         3.21877        0.795512 
        2.44211         3.20474        0.790563 
        2.44823         3.19644        0.785668 
        2.45437         3.18367        0.780801 
        2.46052           3.176        0.775971 
        2.46665         3.16483         0.77119 
        2.47279         3.14931        0.766452 
        2.47892         3.14003         0.76175 
        2.48507         3.13086        0.757083 
         2.4912          3.1151        0.752464 
