# k  (h/Mpc)    Pcb(k)  (Mpc/h)^3    Pcb_linear(k)  (Mpc/h)^3
     0.00783031         879.955         888.529 
       0.013688         1061.18         1063.48 
       0.019231         1047.36         1047.47 
      0.0249154         936.917         941.238 
      0.0312784         789.084         789.087 
      0.0375637         654.065         652.025 
      0.0433917         554.858         554.858 
      0.0492413         488.617         487.448 
      0.0555754         439.056         440.415 
      0.0619321         410.267         408.316 
       0.067871         380.847         381.902 
      0.0738098         351.637         352.698 
      0.0800417         315.564         317.167 
      0.0862327         278.979         279.197 
      0.0921407         244.897          244.49 
      0.0982031         214.098         214.097 
       0.104506         191.713         190.158 
       0.110769         175.309         173.999 
       0.116806         164.277         163.954 
       0.122832         157.777         156.958 
       0.129052         150.316         150.399 
       0.135211         142.594          142.71 
       0.141259         133.817         133.309 
       0.147318         123.492         122.465 
       0.153489         111.835         111.094 
       0.159709         101.571         100.595 
       0.165845          93.773         92.0836 
       0.171974         86.7071         85.7214 
       0.178125         82.4176         81.2437 
       0.184229         79.3368         78.0864 
        0.19034         75.9869         75.4691 
       0.196428         73.7008         72.7506 
       0.202534         70.9354         69.5154 
       0.208729         66.7516         65.6456 
       0.214876         62.3523         61.4463 
       0.220989          58.673         57.2852 
       0.227147         54.4985         53.4697 
        0.23329         51.3447         50.2719 
       0.239377         49.0166         47.7623 
       0.245482         46.6846          45.807 
       0.251667         45.4805         44.2015 
       0.257832         43.9148         42.7507 
       0.263955         42.4435         41.2687 
       0.270079         40.8014         39.6436 
        0.27624         39.2968         37.8625 
       0.282372         37.4732         36.0142 
        0.28843         35.5253         34.2246 
       0.294538         33.8709          32.556 
       0.300721           32.63         31.0736 
        0.30691         31.1185         29.8108 
       0.313033         30.0839         28.7485 
       0.319153         28.8334         27.8125 
       0.325316         28.3262         26.9295 
        0.33145         27.3485         26.0542 
       0.337538         26.4755         25.1609 
       0.343633         25.4559         24.2389 
       0.349808         24.6202         23.2992 
       0.355968         23.7212          22.385 
       0.362074         22.8333         21.5338 
       0.368217         22.0732         20.7496 
       0.374374         21.2834         20.0416 
       0.380519         20.7169         19.4038 
       0.386598         20.1631         18.8217 
       0.392688         19.6689         18.2693 
        0.39888         19.0619         17.7208 
       0.405048         18.5444         17.1779 
       0.411186          18.026         16.6407 
       0.417313         17.4113         16.1107 
       0.423458         16.9219         15.5945 
       0.429607         16.3924         15.1024 
       0.435692         15.8967         14.6436 
       0.441815            15.5         14.2121 
       0.447964         15.1832         13.8076 
       0.454126         14.6547         13.4249 
       0.460267         14.3355         13.0602 
       0.466387         13.8946         12.7086 
        0.47254         13.6185         12.3635 
       0.478662          13.325         12.0264 
       0.484765         12.9105         11.6984 
       0.490885         12.5899         11.3797 
       0.497035         12.3968         11.0712 
       0.503198         12.0392         10.7751 
       0.509342         11.7392          10.494 
       0.515458         11.4539         10.2277 
       0.521598         11.2133         9.97185 
       0.527764         10.9262         9.72445 
       0.533884         10.7376         9.48688 
           0.54          10.478         9.25658 
       0.546137         10.2673         9.03177 
       0.552299         10.0591         8.81199 
       0.558452         9.76196         8.59889 
       0.564573         9.60277         8.39373 
       0.570708         9.40032         8.19551 
       0.576825         9.15729         8.00521 
       0.582926          8.9919         7.82224 
       0.589034         8.74356         7.64532 
       0.595184         8.59974         7.47307 
       0.601379         8.40737          7.3051 
       0.607522         8.27905         7.14358 
       0.613639         8.15498         6.98734 
       0.619772         7.92784         6.83498 
       0.625918         7.83713          6.6865 
       0.632068         7.70629         6.54221 
       0.638161         7.51658         6.40353 
         0.6443         7.36195         6.26813 
       0.650464         7.20448          6.1365 
       0.656582           7.128         6.00984 
       0.662703         6.99082         5.88685 
       0.668861         6.86838         5.76663 
       0.675024         6.72293         5.64961 
       0.681124         6.59733         5.53694 
       0.687237         6.49898         5.42706 
       0.693381         6.39479         5.31962 
       0.699536         6.22214         5.21493 
       0.705665         6.14264         5.11354 
       0.711789         6.04002           5.015 
       0.717957         5.93049         4.91843 
        0.72409         5.82744         4.82498 
       0.730186         5.73643         4.73456 
       0.736317         5.67629         4.64597 
       0.742472         5.58085         4.55934 
       0.748622         5.47607         4.47501 
        0.75476         5.36643         4.39301 
       0.760888         5.28934          4.3132 
       0.767043         5.22491         4.23507 
       0.773185         5.11562         4.15906 
       0.779291         5.06301         4.08537 
       0.785407         4.97628         4.01337 
       0.791564         4.90335         3.94268 
       0.797719         4.82262         3.87374 
       0.803834         4.77362          3.8069 
       0.809972         4.70814         3.74141 
       0.816124         4.61509         3.67733 
       0.822261         4.53265         3.61493 
       0.828378         4.47641         3.55418 
       0.834502         4.43688         3.49477 
       0.840667         4.34218         3.43635 
       0.846816         4.27363         3.37943 
       0.852925         4.23679         3.32417 
       0.859047         4.17607         3.27004 
       0.865192         4.12489         3.21694 
       0.871341         4.07556           3.165 
       0.877463         4.01508         3.11444 
       0.883569          3.9434         3.06513 
       0.889708         3.88447         3.01663 
       0.895864         3.83831         2.96907 
       0.902008          3.7841         2.92265 
       0.908149         3.74459         2.87724 
       0.914301          3.6766         2.83274 
       0.920448         3.63063         2.78922 
       0.926574         3.57904         2.74678 
       0.932687         3.53867         2.70531 
       0.938823         3.49868         2.66456 
       0.944975         3.45154         2.62455 
       0.951105         3.41251         2.58552 
       0.957225         3.39052         2.54735 
       0.963368         3.33936         2.50982 
       0.969511         3.29037         2.47306 
       0.975621          3.2429         2.43723 
       0.981748         3.21237         2.40203 
       0.987916         3.17167          2.3673 
        0.99406         3.11832          2.3334 
        1.00019         3.08704         2.30023 
        1.00632         3.05532         2.26774 
        1.01246         3.02001         2.23583 
        1.01859         2.98271          2.2046 
        1.02471         2.94553           2.174 
        1.03085         2.91269         2.14388 
        1.03698         2.87344          2.1144 
        1.04314         2.84827         2.08535 
        1.04929         2.81116         2.05691 
        1.05541         2.77952         2.02913 
        1.06154         2.74992         2.00179 
        1.06769         2.72762         1.97491 
        1.07382         2.68604         1.94862 
        1.07993          2.6503         1.92287 
        1.08607           2.637         1.89749 
        1.09222         2.60094         1.87253 
        1.09836         2.57915         1.84806 
        1.10449         2.55018         1.82405 
        1.11063          2.5161         1.80045 
        1.11677         2.49202         1.77727 
         1.1229         2.46587         1.75455 
        1.12903         2.43564          1.7322 
        1.13518          2.4153         1.71022 
        1.14131         2.38108         1.68864 
        1.14745         2.34589         1.66745 
        1.15359         2.33398         1.64661 
        1.15973         2.30038         1.62612 
        1.16584         2.28775         1.60608 
        1.17197         2.26237         1.58635 
        1.17811         2.24308         1.56689 
        1.18424         2.22247         1.54781 
        1.19038          2.1983           1.529 
        1.19652         2.17473         1.51051 
        1.20267         2.15644         1.49232 
        1.20881         2.13075         1.47444 
        1.21495         2.11324         1.45688 
        1.22108         2.09307         1.43962 
         1.2272         2.07864         1.42267 
        1.23334         2.05117         1.40596 
        1.23949         2.02882         1.38948 
        1.24562         2.01605         1.37331 
        1.25174         1.99186         1.35742 
        1.25789          1.9759         1.34174 
        1.26402         1.95199         1.32633 
        1.27014         1.93441         1.31121 
        1.27628         1.92525         1.29627 
        1.28244         1.89813         1.28154 
        1.28858         1.88472         1.26706 
        1.29471         1.86434         1.25284 
        1.30084         1.84542         1.23885 
        1.30697         1.83608         1.22505 
        1.31312         1.80687         1.21144 
        1.31925         1.79844         1.19809 
        1.32537          1.7815         1.18494 
        1.33151         1.76864         1.17195 
        1.33765         1.74693         1.15917 
        1.34378         1.73176         1.14659 
        1.34992         1.72368          1.1342 
        1.35606         1.69874         1.12196 
         1.3622         1.69108         1.10993 
        1.36833         1.67425          1.0981 
        1.37445         1.65695         1.08645 
        1.38059         1.64672         1.07494 
        1.38675         1.63905         1.06356 
        1.39288         1.61803          1.0524 
        1.39901         1.60256          1.0414 
        1.40515         1.59067         1.03053 
         1.4113         1.57821         1.01982 
        1.41742          1.5648         1.00931 
        1.42355          1.5575        0.998924 
         1.4297         1.53727        0.988654 
        1.43585         1.52815        0.978533 
        1.44198         1.51956        0.968593 
        1.44809         1.50019        0.958809 
        1.45423         1.48897        0.949125 
        1.46036         1.47632        0.939593 
        1.46649         1.46504        0.930189 
        1.47263         1.45242        0.920906 
        1.47877         1.43859        0.911754 
        1.48491         1.42775        0.902713 
        1.49104         1.41823        0.893814 
        1.49718         1.40959        0.885028 
        1.50333         1.39518        0.876347 
        1.50947         1.38726          0.8678 
         1.5156         1.37444        0.859381 
        1.52172         1.36359        0.851073 
        1.52787         1.35171        0.842858 
          1.534         1.34342        0.834763 
        1.54013         1.33115        0.826782 
        1.54627         1.31962        0.818892 
        1.55241         1.30894        0.811103 
        1.55855         1.30125        0.803427 
        1.56467         1.29322        0.795872 
         1.5708         1.27842        0.788393 
        1.57695         1.27274        0.780998 
        1.58308         1.26332        0.773716 
        1.58922         1.25344        0.766522 
        1.59535         1.24443        0.759422 
         1.6015         1.23498        0.752403 
        1.60764         1.22775        0.745475 
        1.61376         1.21814        0.738654 
        1.61989          1.2086        0.731913 
        1.62604         1.19793        0.725241 
        1.63218          1.1944        0.718656 
        1.63831          1.1811        0.712168 
        1.64444         1.17264        0.705758 
        1.65059         1.16736        0.699412 
        1.65673         1.15622        0.693151 
        1.66285         1.14837        0.686983 
        1.66898          1.1434         0.68089 
        1.67512         1.13093        0.674858 
        1.68127         1.12319        0.668894 
         1.6874         1.11956        0.663015 
        1.69353         1.10681        0.657211 
        1.69967           1.099        0.651463 
        1.70581         1.09606        0.645786 
        1.71193         1.08566        0.640198 
        1.71806         1.08114        0.634665 
        1.72421         1.07201        0.629186 
        1.73035         1.06355        0.623778 
        1.73649         1.05805        0.618435 
        1.74262          1.0506        0.613159 
        1.74876         1.04353        0.607941 
        1.75489         1.03324        0.602795 
        1.76101         1.02815         0.59771 
        1.76715         1.02212        0.592676 
        1.77329         1.01607        0.587695 
        1.77943         1.00692        0.582769 
        1.78557         1.00007        0.577906 
        1.79171        0.996985        0.573099 
        1.79785        0.988064        0.568345 
        1.80399        0.982362        0.563646 
        1.81012         0.97741        0.559007 
        1.81625        0.969349        0.554422 
        1.82239        0.963469        0.549882 
        1.82853        0.953671        0.545395 
        1.83466        0.950399        0.540962 
        1.84078          0.9431        0.536583 
        1.84692        0.939714        0.532246 
        1.85306         0.93267        0.527951 
         1.8592        0.927577        0.523711 
        1.86533        0.920516         0.51952 
        1.87147        0.915696        0.515369 
        1.87761        0.909477        0.511262 
        1.88375        0.901623        0.507205 
        1.88988        0.899046        0.503196 
        1.89601        0.892024        0.499228 
        1.90215        0.885845          0.4953 
        1.90829        0.879597        0.491416 
        1.91442         0.87543        0.487573 
        1.92056        0.870672        0.483775 
         1.9267        0.864396        0.480014 
        1.93284        0.861877         0.47629 
        1.93897        0.854764        0.472613 
        1.94509        0.849485        0.468983 
        1.95123        0.843319        0.465382 
        1.95737        0.839097        0.461816 
        1.96349         0.83296        0.458296 
        1.96964        0.829333        0.454803 
        1.97578        0.823938        0.451345 
        1.98192        0.820238         0.44793 
        1.98805        0.813334         0.44455 
        1.99419        0.810766        0.441205 
        2.00033        0.807572        0.437892 
        2.00647        0.799738        0.434615 
         2.0126        0.796283        0.431376 
        2.01874        0.791359        0.428166 
        2.02488        0.788093        0.424986 
        2.03101        0.780632        0.421843 
        2.03714        0.775505        0.418736 
        2.04328        0.774376        0.415656 
        2.04941        0.768469         0.41261 
        2.05554        0.763973        0.409596 
        2.06167        0.759145        0.406609 
        2.06781        0.755155        0.403651 
        2.07396        0.749809        0.400718 
        2.08009        0.746642         0.39782 
        2.08622        0.741663        0.394953 
        2.09237         0.73952        0.392109 
        2.09851        0.735312        0.389293 
        2.10464        0.731603        0.386509 
        2.11077        0.726705        0.383756 
        2.11691        0.721842        0.381023 
        2.12305        0.718585        0.378317 
        2.12918        0.714511        0.375644 
        2.13531        0.710494        0.372996 
        2.14145        0.706608        0.370368 
         2.1476        0.701821        0.367762 
        2.15372        0.699524        0.365194 
        2.15985        0.694165        0.362648 
        2.16599        0.690401        0.360119 
        2.17213        0.686991        0.357617 
        2.17827        0.684915        0.355139 
         2.1844        0.681227        0.352687 
        2.19054        0.678112        0.350257 
        2.19666        0.673281        0.347854 
         2.2028        0.669518        0.345471 
        2.20893         0.66629        0.343109 
        2.21508         0.66391        0.340767 
        2.22122        0.657167        0.338446 
        2.22736         0.65481        0.336151 
        2.23349        0.654334        0.333878 
        2.23962        0.648947        0.331625 
        2.24577        0.644854        0.329391 
         2.2519        0.641461         0.32718 
        2.25802        0.638816        0.324993 
        2.26417        0.634389         0.32282 
        2.27031        0.631889        0.320665 
        2.27644        0.628822        0.318536 
        2.28257        0.626247        0.316427 
        2.28872         0.62234        0.314332 
        2.29486        0.619313        0.312257 
        2.30099        0.615439        0.310205 
        2.30712        0.612661        0.308171 
        2.31326         0.61043        0.306151 
         2.3194         0.60832         0.30415 
        2.32553        0.605063        0.302171 
        2.33166        0.601227         0.30021 
         2.3378        0.597775        0.298264 
        2.34394        0.594023        0.296335 
        2.35007        0.591666        0.294425 
        2.35619        0.589584        0.292535 
        2.36233        0.584985        0.290656 
        2.36848        0.583192         0.28879 
        2.37462        0.579477        0.286945 
        2.38075        0.578401        0.285118 
        2.38689        0.574791        0.283304 
        2.39303        0.572446        0.281507 
        2.39916        0.568184        0.279728 
        2.40529        0.567024        0.277964 
        2.41143        0.564137        0.276214 
        2.41757        0.561315        0.274478 
         2.4237        0.558961         0.27276 
        2.42983        0.556232        0.271057 
        2.43598        0.553563        0.269364 
        2.44211        0.551453        0.267689 
        2.44823        0.548425        0.266031 
        2.45437        0.545768        0.264383 
        2.46052        0.544281        0.262748 
        2.46665        0.540865        0.261129 
        2.47279        0.538109        0.259525 
        2.47892         0.53476        0.257932 
        2.48507         0.53301        0.256352 
         2.4912        0.530494        0.254788 
