# k  (h/Mpc)    P(k)  (Mpc/h)^3    P_linear(k)  (Mpc/h)^3
     0.00783031         1510.02         1521.23 
       0.013688         1977.54         2002.24 
       0.019231         2123.19          2135.7 
      0.0249154         2071.12         2072.11 
      0.0312784         1876.87         1882.11 
      0.0375637         1658.07         1666.01 
      0.0433917         1490.05         1489.26 
      0.0492413         1347.12         1351.53 
      0.0555754         1245.66         1244.12 
      0.0619321         1151.05         1164.46 
       0.067871         1093.91         1098.92 
      0.0738098         1026.49         1029.88 
      0.0800417         947.514         948.301 
      0.0862327          857.27         860.379 
      0.0921407         774.304         776.987 
      0.0982031         700.903         699.672 
       0.104506         630.604         633.888 
       0.110769         582.785         584.912 
       0.116806          553.89         551.025 
       0.122832         524.435         525.821 
       0.129052          503.88         503.445 
       0.135211         483.057          480.32 
       0.141259         454.322         454.221 
       0.147318          421.99         424.672 
       0.153489         393.172          392.98 
       0.159709         365.494         362.263 
       0.165845         334.827         335.651 
       0.171974         319.284         314.096 
       0.178125         302.999         297.553 
       0.184229         287.601         285.129 
        0.19034         279.971         275.008 
       0.196428         270.197         265.494 
       0.202534         256.273         255.201 
       0.208729         247.649         243.388 
       0.214876          236.71         230.502 
       0.220989         220.161         217.304 
       0.227147         211.845         204.595 
        0.23329         201.582         193.316 
       0.239377         193.393         183.941 
       0.245482         184.519         176.309 
       0.251667         177.074         169.994 
       0.257832         173.946         164.525 
       0.263955         166.308         159.297 
       0.270079          160.81         153.833 
        0.27624         153.851         147.915 
       0.282372         148.366         141.673 
        0.28843         144.997         135.428 
       0.294538         138.274         129.369 
       0.300721          131.82         123.768 
        0.30691         128.721         118.844 
       0.313033         123.759         114.649 
       0.319153         121.582         110.999 
       0.325316         116.532         107.669 
        0.33145         113.117         104.486 
       0.337538         110.034         101.306 
       0.343633          106.96         98.0222 
       0.349808         103.416         94.6188 
       0.355968         100.109          91.218 
       0.362074         97.9203         87.9592 
       0.368217         94.9551         84.8844 
       0.374374         92.8953          82.067 
       0.380519         88.9948         79.5282 
       0.386598         86.6309         77.2406 
       0.392688         84.2954         75.1146 
        0.39888         82.7627         73.0443 
       0.405048         80.8699         71.0131 
       0.411186         78.8587         68.9976 
       0.417313          76.714         66.9806 
       0.423458         74.5467         64.9803 
       0.429607         73.2576         63.0369 
       0.435692         71.9144         61.1996 
       0.441815         69.2671         59.4589 
       0.447964         67.3015         57.8311 
       0.454126         66.1467         56.3037 
       0.460267         65.5553         54.8648 
       0.466387         63.7606          53.492 
        0.47254         62.8768         52.1499 
       0.478662         60.9438         50.8345 
       0.484765         59.7497         49.5433 
       0.490885         58.1031         48.2741 
       0.497035          57.267         47.0307 
       0.503198         55.9168         45.8275 
       0.509342         54.5143         44.6798 
       0.515458         53.8715         43.5941 
       0.521598         52.6265         42.5553 
       0.527764         51.9687         41.5562 
       0.533884         50.8446         40.6017 
           0.54         49.8439         39.6783 
       0.546137          48.413         38.7756 
       0.552299          47.654         37.8881 
       0.558452         46.7321         37.0211 
       0.564573         46.3299         36.1812 
       0.570708         45.0865         35.3654 
       0.576825         44.5129         34.5803 
       0.582926         43.7903         33.8248 
       0.589034         42.9768         33.0949 
       0.595184         42.4323         32.3858 
       0.601379         41.3138          31.696 
       0.607522         40.7493         31.0333 
       0.613639            40.1         30.3918 
       0.619772         39.4716         29.7644 
       0.625918         38.7013         29.1503 
       0.632068         38.3983         28.5511 
       0.638161         37.6314         27.9735 
         0.6443         37.0827         27.4085 
       0.650464         36.1898         26.8589 
       0.656582         35.9972           26.33 
       0.662703         35.6042         25.8164 
       0.668861         34.6854         25.3144 
       0.675024         34.3121         24.8254 
       0.681124         34.0784         24.3541 
       0.687237         33.4171         23.8938 
       0.693381         32.7499         23.4432 
       0.699536         32.6349         23.0033 
       0.705665         32.0436         22.5767 
       0.711789         31.4866         22.1613 
       0.717957         30.8935         21.7537 
        0.72409         30.6436         21.3587 
       0.730186         30.4943         20.9761 
       0.736317         29.8974         20.6009 
       0.742472         29.5325         20.2337 
       0.748622         29.0855          19.876 
        0.75476         28.4001         19.5279 
       0.760888         28.3083         19.1888 
       0.767043         27.8552         18.8565 
       0.773185         27.5912         18.5329 
       0.779291         27.3419         18.2188 
       0.785407         26.8731         17.9117 
       0.791564         26.7075         17.6097 
       0.797719         26.1687         17.3149 
       0.803834         26.0441         17.0288 
       0.809972         25.5769         16.7482 
       0.816124         25.3163         16.4734 
       0.822261         25.0535         16.2056 
       0.828378         24.7822         15.9446 
       0.834502         24.5571         15.6892 
       0.840667         24.3069         15.4377 
       0.846816         23.7971         15.1926 
       0.852925          23.727         14.9544 
       0.859047         23.4521         14.7209 
       0.865192         23.1435         14.4917 
       0.871341         22.8478         14.2672 
       0.877463         22.6406         14.0486 
       0.883569         22.5153         13.8352 
       0.889708         22.1606         13.6252 
       0.895864          21.897          13.419 
       0.902008         21.6465         13.2176 
       0.908149         21.3981         13.0205 
       0.914301         21.3019         12.8272 
       0.920448         20.9868          12.638 
       0.926574         20.8509         12.4533 
       0.932687         20.5808         12.2728 
       0.938823         20.3403         12.0952 
       0.944975         20.1747         11.9208 
       0.951105         19.9635         11.7504 
       0.957225          19.857         11.5837 
       0.963368         19.5721         11.4198 
       0.969511         19.3824          11.259 
       0.975621         19.2059         11.1022 
       0.981748         18.9682          10.948 
       0.987916         18.8446         10.7958 
        0.99406         18.6721         10.6471 
        1.00019         18.5206         10.5015 
        1.00632         18.3619         10.3588 
        1.01246         18.1961         10.2186 
        1.01859         17.9855         10.0812 
        1.02471         17.7926         9.94651 
        1.03085         17.7378         9.81386 
        1.03698         17.5716         9.68393 
        1.04314         17.3711         9.55583 
        1.04929         17.1602         9.43036 
        1.05541         17.1025         9.30768 
        1.06154         16.9582          9.1869 
        1.06769         16.8441          9.0681 
        1.07382         16.5812         8.95181 
        1.07993          16.449         8.83784 
        1.08607         16.3848          8.7254 
        1.09222         16.1871         8.61483 
        1.09836         16.1342         8.50632 
        1.10449          15.905         8.39983 
        1.11063         15.8517         8.29506 
        1.11677         15.7538         8.19213 
         1.1229         15.6057         8.09114 
        1.12903         15.5036         7.99179 
        1.13518         15.2827         7.89403 
        1.14131         15.2163         7.79798 
        1.14745         15.0165          7.7036 
        1.15359         14.9168         7.61077 
        1.15973         14.7924         7.51945 
        1.16584          14.687         7.43005 
        1.17197         14.5675         7.34199 
        1.17811         14.4503          7.2551 
        1.18424         14.3612         7.16988 
        1.19038         14.2835          7.0858 
        1.19652         14.1647          7.0031 
        1.20267         14.0605         6.92174 
        1.20881         13.9216         6.84169 
        1.21495         13.8121         6.76305 
        1.22108         13.7698         6.68567 
         1.2272         13.6459         6.60968 
        1.23334         13.5896         6.53471 
        1.23949         13.4545         6.46074 
        1.24562         13.3484         6.38812 
        1.25174         13.2773         6.31674 
        1.25789         13.1208         6.24623 
        1.26402         13.0925         6.17694 
        1.27014         13.0189         6.10888 
        1.27628         12.8555         6.04164 
        1.28244         12.8495          5.9753 
        1.28858         12.7415         5.91005 
        1.29471         12.5738         5.84593 
        1.30084         12.5034         5.78283 
        1.30697          12.494         5.72057 
        1.31312         12.3574         5.65914 
        1.31925         12.2928         5.59882 
        1.32537         12.2188         5.53944 
        1.33151         12.1275         5.48072 
        1.33765          12.036         5.42289 
        1.34378         12.0204         5.36602 
        1.34992         11.9007         5.30993 
        1.35606         11.8088         5.25453 
         1.3622         11.7256         5.20002 
        1.36833         11.6714         5.14642 
        1.37445         11.5973         5.09361 
        1.38059         11.5372         5.04138 
        1.38675         11.4488         4.98977 
        1.39288          11.352         4.93909 
        1.39901         11.2927         4.88914 
        1.40515          11.224         4.83978 
         1.4113         11.1389         4.79112 
        1.41742         11.0982         4.74332 
        1.42355         10.9976         4.69608 
         1.4297         10.9597         4.64935 
        1.43585         10.8982         4.60328 
        1.44198           10.83         4.55802 
        1.44809         10.7738         4.51345 
        1.45423         10.6838         4.46932 
        1.46036         10.6365         4.42586 
        1.46649         10.5682         4.38296 
        1.47263         10.5197         4.34061 
        1.47877         10.4497         4.29883 
        1.48491         10.4022         4.25755 
        1.49104         10.3141          4.2169 
        1.49718         10.2877         4.17675 
        1.50333         10.2162         4.13706 
        1.50947         10.1328         4.09798 
         1.5156         10.1165         4.05946 
        1.52172          10.057         4.02143 
        1.52787         9.99749         3.98383 
          1.534          9.9438         3.94675 
        1.54013          9.8933         3.91018 
        1.54627         9.83036         3.87402 
        1.55241         9.75209         3.83831 
        1.55855         9.74516          3.8031 
        1.56467         9.66715         3.76843 
         1.5708         9.62692          3.7341 
        1.57695         9.54983         3.70015 
        1.58308         9.49396         3.66671 
        1.58922         9.46065         3.63365 
        1.59535         9.40488         3.60102 
         1.6015         9.33668         3.56875 
        1.60764         9.31188         3.53688 
        1.61376         9.27732          3.5055 
        1.61989         9.18717         3.47448 
        1.62604         9.16403         3.44376 
        1.63218         9.12024         3.41344 
        1.63831          9.0765         3.38356 
        1.64444         9.00068         3.35402 
        1.65059         8.96417         3.32476 
        1.65673          8.9355         3.29589 
        1.66285         8.89153         3.26745 
        1.66898         8.83601         3.23933 
        1.67512         8.78312         3.21149 
        1.68127         8.73153         3.18396 
         1.6874         8.70998         3.15681 
        1.69353         8.64911            3.13 
        1.69967         8.61744         3.10343 
        1.70581         8.55422         3.07719 
        1.71193          8.5401         3.05135 
        1.71806         8.49964         3.02576 
        1.72421         8.43811         3.00041 
        1.73035         8.40218         2.97538 
        1.73649         8.36652         2.95064 
        1.74262         8.30815         2.92621 
        1.74876         8.30021         2.90204 
        1.75489         8.25062         2.87819 
        1.76101          8.1922         2.85462 
        1.76715         8.17985         2.83128 
        1.77329         8.14204         2.80817 
        1.77943          8.0771         2.78532 
        1.78557         8.06902         2.76275 
        1.79171         8.03264         2.74043 
        1.79785         7.98657         2.71836 
        1.80399         7.91746         2.69653 
        1.81012         7.90659         2.67497 
        1.81625         7.86154         2.65366 
        1.82239         7.82872         2.63256 
        1.82853         7.78512         2.61169 
        1.83466         7.73758         2.59107 
        1.84078         7.71692          2.5707 
        1.84692         7.68693         2.55051 
        1.85306         7.65309         2.53052 
         1.8592         7.62916         2.51077 
        1.86533         7.59562         2.49125 
        1.87147         7.54701         2.47191 
        1.87761         7.53599         2.45277 
        1.88375         7.48566         2.43386 
        1.88988         7.44863         2.41516 
        1.89601         7.42683         2.39666 
        1.90215         7.37025         2.37833 
        1.90829         7.36464         2.36021 
        1.91442         7.31329         2.34227 
        1.92056         7.30624         2.32454 
         1.9267         7.25355         2.30697 
        1.93284         7.25013         2.28958 
        1.93897         7.19736          2.2724 
        1.94509         7.15656         2.25543 
        1.95123          7.1395         2.23859 
        1.95737         7.11397         2.22192 
        1.96349         7.05822         2.20546 
        1.96964         7.03992         2.18911 
        1.97578         7.01513         2.17293 
        1.98192         6.97773         2.15695 
        1.98805         6.95742         2.14112 
        1.99419         6.93773         2.12545 
        2.00033         6.88475         2.10994 
        2.00647          6.8791         2.09458 
         2.0126         6.84412          2.0794 
        2.01874         6.82185         2.06435 
        2.02488         6.78922         2.04944 
        2.03101         6.74455          2.0347 
        2.03714         6.72495         2.02013 
        2.04328         6.70359         2.00567 
        2.04941         6.66954         1.99138 
        2.05554          6.6553         1.97723 
        2.06167          6.6202          1.9632 
        2.06781         6.59498         1.94931 
        2.07396         6.56333         1.93553 
        2.08009         6.54651         1.92191 
        2.08622         6.52124         1.90844 
        2.09237         6.50962         1.89507 
        2.09851         6.45735         1.88182 
        2.10464         6.44162         1.86873 
        2.11077         6.42493         1.85577 
        2.11691         6.40799         1.84292 
        2.12305          6.3685         1.83018 
        2.12918         6.35085         1.81759 
        2.13531         6.31718         1.80513 
        2.14145         6.30311         1.79275 
         2.1476         6.27017         1.78047 
        2.15372          6.2502         1.76837 
        2.15985         6.23199         1.75637 
        2.16599         6.20685         1.74445 
        2.17213         6.19184         1.73266 
        2.17827         6.14825         1.72097 
         2.1844         6.12669          1.7094 
        2.19054         6.11007         1.69794 
        2.19666         6.08984          1.6866 
         2.2028          6.0502         1.67535 
        2.20893         6.04778          1.6642 
        2.21508         6.03095         1.65314 
        2.22122         5.97946         1.64217 
        2.22736         5.97617         1.63133 
        2.23349          5.9498         1.62059 
        2.23962         5.93684         1.60994 
        2.24577         5.89566         1.59938 
         2.2519         5.88964         1.58893 
        2.25802         5.85463         1.57859 
        2.26417         5.83919         1.56831 
        2.27031         5.81545         1.55812 
        2.27644         5.79473         1.54804 
        2.28257         5.77707         1.53806 
        2.28872         5.76102         1.52814 
        2.29486          5.7343         1.51832 
        2.30099         5.70968          1.5086 
        2.30712         5.69518         1.49896 
        2.31326         5.67229         1.48939 
         2.3194         5.65204         1.47991 
        2.32553         5.62814         1.47053 
        2.33166          5.6158         1.46124 
         2.3378         5.59512         1.45201 
        2.34394         5.57321         1.44286 
        2.35007         5.54468          1.4338 
        2.35619         5.53899         1.42483 
        2.36233         5.50956         1.41592 
        2.36848         5.50172         1.40706 
        2.37462         5.47854          1.3983 
        2.38075         5.46676         1.38962 
        2.38689         5.44489         1.38101 
        2.39303         5.42147         1.37248 
        2.39916         5.40394         1.36402 
        2.40529         5.38191         1.35564 
        2.41143         5.37193         1.34732 
        2.41757         5.35776         1.33907 
         2.4237          5.3307          1.3309 
        2.42983         5.32334         1.32281 
        2.43598         5.30659         1.31476 
        2.44211         5.27901         1.30679 
        2.44823         5.25439          1.2989 
        2.45437         5.24026         1.29106 
        2.46052         5.22746         1.28327 
        2.46665         5.21525         1.27557 
        2.47279         5.17616         1.26793 
        2.47892         5.17151         1.26034 
        2.48507         5.16085         1.25282 
         2.4912         5.14136         1.24537 
