# k  (h/Mpc)    Pcb(k)  (Mpc/h)^3    Pcb_linear(k)  (Mpc/h)^3
     0.00783031         2125.31         2137.41 
       0.013688         2779.19         2815.22 
       0.019231         2985.17         3003.76 
      0.0249154          2914.8          2914.8 
      0.0312784         2639.04         2647.83 
      0.0375637          2329.9         2343.95 
      0.0433917         2095.32         2095.37 
      0.0492413         1893.07         1901.65 
      0.0555754         1751.37         1750.55 
      0.0619321         1614.94          1638.5 
       0.067871         1536.34          1546.3 
      0.0738098         1442.23         1449.18 
      0.0800417          1331.5         1334.39 
      0.0862327         1204.26         1210.68 
      0.0921407         1087.96         1093.34 
      0.0982031          985.77         984.552 
       0.104506         886.133         891.987 
       0.110769         819.262         823.071 
       0.116806         779.864          775.39 
       0.122832         737.493         739.925 
       0.129052         708.667         708.439 
       0.135211         680.252         675.899 
       0.141259         639.172         639.175 
       0.147318         593.061         597.595 
       0.153489         553.292         552.999 
       0.159709         515.661         509.775 
       0.165845         471.654         472.326 
       0.171974         451.366         441.995 
       0.178125         428.857         418.716 
       0.184229         406.025         401.233 
        0.19034         395.844         386.991 
       0.196428         382.327         373.603 
       0.202534         361.823         359.119 
       0.208729         350.604         342.496 
       0.214876         335.529         324.364 
       0.220989         311.769         305.791 
       0.227147         301.006         287.907 
        0.23329         286.971         272.036 
       0.239377         276.123         258.843 
       0.245482         263.122         248.103 
       0.251667         252.597         239.218 
       0.257832         248.792          231.52 
       0.263955         237.252         224.165 
       0.270079         229.474         216.475 
        0.27624         219.565         208.147 
       0.282372         212.202         199.364 
        0.28843          208.28         190.576 
       0.294538         198.466          182.05 
       0.300721         189.446         174.168 
        0.30691         185.475         167.238 
       0.313033         178.205         161.336 
       0.319153         175.192         156.199 
       0.325316         168.372         151.512 
        0.33145         163.563         147.033 
       0.337538         158.963         142.558 
       0.343633         154.437         137.938 
       0.349808         149.536         133.149 
       0.355968         145.089         128.363 
       0.362074         142.088         123.777 
       0.368217         138.187         119.451 
       0.374374         135.183         115.486 
       0.380519         129.459         111.913 
       0.386598         126.331         108.694 
       0.392688         123.004         105.702 
        0.39888         120.823         102.789 
       0.405048         118.175         99.9306 
       0.411186         115.557         97.0942 
       0.417313         112.506         94.2562 
       0.423458         109.536         91.4412 
       0.429607         107.661         88.7064 
       0.435692         105.769         86.1208 
       0.441815         102.111         83.6719 
       0.447964         99.2627         81.3806 
       0.454126          97.511         79.2314 
       0.460267         96.7816         77.2065 
       0.466387         94.3131         75.2748 
        0.47254         93.1579         73.3856 
       0.478662         90.1627         71.5353 
       0.484765         88.5902          69.718 
       0.490885         86.2919         67.9319 
       0.497035         85.4323         66.1823 
       0.503198         83.3105         64.4891 
       0.509342         81.2891         62.8741 
       0.515458         80.4098         61.3462 
       0.521598         78.5182         59.8844 
       0.527764         77.6128         58.4786 
       0.533884         76.3802         57.1353 
           0.54          74.699         55.8359 
       0.546137         72.6684         54.5656 
       0.552299         71.5983         53.3166 
       0.558452         70.2583         52.0968 
       0.564573         69.8604         50.9147 
       0.570708         67.8369         49.7668 
       0.576825         67.1268         48.6619 
       0.582926         66.2009         47.5988 
       0.589034         65.0206         46.5716 
       0.595184         64.1806         45.5738 
       0.601379         62.5086         44.6031 
       0.607522         61.7202         43.6705 
       0.613639         60.9514         42.7678 
       0.619772         59.9372         41.8848 
       0.625918         58.9078         41.0207 
       0.632068         58.4166         40.1776 
       0.638161         57.2698         39.3648 
         0.6443         56.6162         38.5697 
       0.650464         55.3416         37.7962 
       0.656582         55.0617          37.052 
       0.662703         54.4663         36.3293 
       0.668861         53.1481         35.6228 
       0.675024         52.7584         34.9347 
       0.681124         52.2207         34.2714 
       0.687237         51.2106         33.6237 
       0.693381         50.4685         32.9896 
       0.699536         50.2085         32.3706 
       0.705665         49.3263         31.7702 
       0.711789         48.5575         31.1857 
       0.717957         47.7535         30.6121 
        0.72409         47.3432         30.0563 
       0.730186         47.1222         29.5179 
       0.736317          46.259         28.9899 
       0.742472         45.7287         28.4732 
       0.748622         45.0485         27.9698 
        0.75476         44.1254         27.4799 
       0.760888         44.0401         27.0027 
       0.767043         43.3254         26.5352 
       0.773185          42.981         26.0798 
       0.779291          42.486         25.6379 
       0.785407         41.8191         25.2056 
       0.791564         41.7161         24.7807 
       0.797719         40.9509         24.3659 
       0.803834         40.6939         23.9633 
       0.809972         40.0534         23.5684 
       0.816124         39.6698         23.1817 
       0.822261         39.2613         22.8048 
       0.828378         38.9357         22.4375 
       0.834502         38.5665          22.078 
       0.840667         38.1954         21.7242 
       0.846816         37.4407         21.3793 
       0.852925          37.395         21.0441 
       0.859047         37.0154         20.7155 
       0.865192         36.5117         20.3929 
       0.871341         36.1006          20.077 
       0.877463         35.8044         19.7694 
       0.883569         35.6425         19.4691 
       0.889708         35.1559         19.1735 
       0.895864         34.7433         18.8835 
       0.902008         34.3534         18.6001 
       0.908149          34.066         18.3227 
       0.914301         33.8912         18.0506 
       0.920448         33.4421         17.7844 
       0.926574         33.0947         17.5246 
       0.932687          32.804         17.2705 
       0.938823         32.4366         17.0206 
       0.944975         32.1826         16.7751 
       0.951105         31.8989         16.5354 
       0.957225         31.7389         16.3008 
       0.963368         31.2943         16.0701 
       0.969511           31.04         15.8438 
       0.975621         30.7708         15.6232 
       0.981748          30.439         15.4062 
       0.987916          30.269          15.192 
        0.99406         29.9371         14.9828 
        1.00019         29.7355         14.7779 
        1.00632         29.4973         14.5771 
        1.01246         29.2842         14.3797 
        1.01859         28.9438         14.1864 
        1.02471         28.7018         13.9969 
        1.03085         28.6092         13.8102 
        1.03698         28.3546         13.6274 
        1.04314         28.0558         13.4471 
        1.04929         27.7715         13.2706 
        1.05541         27.6886         13.0979 
        1.06154         27.4997          12.928 
        1.06769         27.2012         12.7608 
        1.07382         26.9111         12.5971 
        1.07993          26.696         12.4368 
        1.08607         26.5813         12.2785 
        1.09222         26.3219         12.1229 
        1.09836         26.1557         11.9702 
        1.10449         25.9498         11.8204 
        1.11063         25.7919         11.6729 
        1.11677         25.6958         11.5281 
         1.1229         25.4356          11.386 
        1.12903         25.2743         11.2462 
        1.13518         25.0275         11.1086 
        1.14131         24.9073         10.9735 
        1.14745         24.5889         10.8406 
        1.15359          24.415           10.71 
        1.15973         24.2306         10.5815 
        1.16584         24.0696         10.4557 
        1.17197         23.8616         10.3318 
        1.17811         23.7209         10.2095 
        1.18424         23.5658         10.0896 
        1.19038         23.4536         9.97125 
        1.19652         23.2439         9.85488 
        1.20267         23.1142         9.74039 
        1.20881         22.9092         9.62775 
        1.21495         22.7459         9.51708 
        1.22108         22.7223         9.40818 
         1.2272         22.5408         9.30126 
        1.23334         22.3869         9.19576 
        1.23949         22.2194         9.09166 
        1.24562         22.0177         8.98947 
        1.25174         21.9311         8.88902 
        1.25789         21.7694          8.7898 
        1.26402         21.6835          8.6923 
        1.27014         21.5587         8.59652 
        1.27628          21.316          8.5019 
        1.28244          21.327         8.40855 
        1.28858         21.0915         8.31673 
        1.29471         20.8738         8.22649 
        1.30084         20.7743         8.13769 
        1.30697         20.7513         8.05008 
        1.31312         20.5374         7.96364 
        1.31925         20.4462         7.87876 
        1.32537         20.3087          7.7952 
        1.33151         20.1864         7.71257 
        1.33765         20.0892         7.63119 
        1.34378         19.9969         7.55115 
        1.34992          19.852         7.47222 
        1.35606          19.677         7.39426 
         1.3622         19.5406         7.31755 
        1.36833         19.5043         7.24213 
        1.37445         19.4108         7.16781 
        1.38059         19.2939         7.09432 
        1.38675         19.1479         7.02169 
        1.39288          18.998         6.95037 
        1.39901         18.9405         6.88008 
        1.40515         18.8095         6.81062 
         1.4113         18.6993         6.74214 
        1.41742         18.6247         6.67488 
        1.42355         18.4602         6.60841 
         1.4297          18.391         6.54265 
        1.43585          18.306         6.47782 
        1.44198         18.2251         6.41412 
        1.44809         18.1101          6.3514 
        1.45423         17.9818          6.2893 
        1.46036         17.9011         6.22814 
        1.46649          17.787         6.16778 
        1.47263         17.7339         6.10818 
        1.47877         17.6302         6.04939 
        1.48491         17.5245         5.99129 
        1.49104         17.4145         5.93409 
        1.49718         17.3517         5.87759 
        1.50333         17.2576         5.82174 
        1.50947         17.1686         5.76674 
         1.5156         17.0842         5.71254 
        1.52172         16.9895         5.65903 
        1.52787         16.8977         5.60611 
          1.534         16.8405         5.55393 
        1.54013         16.7483         5.50247 
        1.54627         16.6362         5.45158 
        1.55241         16.5218         5.40133 
        1.55855         16.4959         5.35178 
        1.56467         16.4054           5.303 
         1.5708         16.3487         5.25469 
        1.57695         16.2273         5.20692 
        1.58308         16.1268         5.15985 
        1.58922         16.0736         5.11334 
        1.59535         15.9676         5.06742 
         1.6015         15.8535           5.022 
        1.60764         15.8233         4.97716 
        1.61376         15.7753           4.933 
        1.61989         15.6486         4.88935 
        1.62604         15.6181         4.84612 
        1.63218         15.5429         4.80345 
        1.63831         15.4362          4.7614 
        1.64444         15.3473         4.71983 
        1.65059         15.2715         4.67866 
        1.65673         15.2298         4.63804 
        1.66285         15.1434         4.59801 
        1.66898         15.0974         4.55844 
        1.67512         15.0178         4.51927 
        1.68127         14.8971         4.48052 
         1.6874         14.8756         4.44232 
        1.69353         14.7856         4.40458 
        1.69967         14.7172          4.3672 
        1.70581         14.6596         4.33027 
        1.71193         14.6037         4.29391 
        1.71806         14.5504          4.2579 
        1.72421         14.4464         4.22222 
        1.73035         14.3863           4.187 
        1.73649         14.3502         4.15219 
        1.74262         14.2083         4.11781 
        1.74876         14.2186         4.08379 
        1.75489           14.14         4.05023 
        1.76101         14.0577         4.01706 
        1.76715         14.0143         3.98422 
        1.77329         13.9545         3.95171 
        1.77943         13.8559         3.91954 
        1.78557          13.849         3.88779 
        1.79171         13.7641         3.85638 
        1.79785          13.738         3.82532 
        1.80399         13.6177          3.7946 
        1.81012         13.6002         3.76427 
        1.81625         13.4913         3.73428 
        1.82239         13.4474         3.70458 
        1.82853         13.3874         3.67521 
        1.83466         13.3053          3.6462 
        1.84078         13.2963         3.61753 
        1.84692         13.2462         3.58912 
        1.85306         13.1893         3.56099 
         1.8592           13.13          3.5332 
        1.86533          13.069         3.50573 
        1.87147         12.9998         3.47851 
        1.87761         12.9533         3.45158 
        1.88375         12.8975         3.42496 
        1.88988         12.8243         3.39866 
        1.89601         12.8039         3.37262 
        1.90215         12.7161         3.34683 
        1.90829         12.6746         3.32132 
        1.91442         12.6186         3.29608 
        1.92056         12.6153         3.27113 
         1.9267         12.5238         3.24641 
        1.93284         12.5122         3.22193 
        1.93897         12.4259         3.19775 
        1.94509         12.3745         3.17388 
        1.95123         12.3512         3.15019 
        1.95737          12.301         3.12672 
        1.96349         12.1993         3.10355 
        1.96964         12.1753         3.08056 
        1.97578         12.1381         3.05779 
        1.98192         12.0677         3.03529 
        1.98805          12.033         3.01302 
        1.99419         11.9952         2.99098 
        2.00033         11.9488         2.96914 
        2.00647         11.9048         2.94753 
         2.0126         11.8597         2.92617 
        2.01874         11.7812         2.90499 
        2.02488         11.7552         2.88401 
        2.03101         11.6978         2.86327 
        2.03714         11.6504         2.84275 
        2.04328         11.5958         2.82242 
        2.04941          11.543          2.8023 
        2.05554         11.5326         2.78239 
        2.06167         11.4812         2.76265 
        2.06781         11.4209          2.7431 
        2.07396          11.403         2.72371 
        2.08009         11.3276         2.70454 
        2.08622         11.3188         2.68558 
        2.09237         11.2808         2.66677 
        2.09851         11.2002         2.64813 
        2.10464         11.1909         2.62971 
        2.11077         11.1154         2.61148 
        2.11691         11.1163         2.59338 
        2.12305         11.0423         2.57546 
        2.12918         10.9915         2.55775 
        2.13531         10.9688          2.5402 
        2.14145         10.9265         2.52278 
         2.1476         10.8834         2.50551 
        2.15372         10.8392         2.48848 
        2.15985         10.8095          2.4716 
        2.16599         10.7668         2.45482 
        2.17213         10.7532         2.43822 
        2.17827         10.6927         2.42178 
         2.1844         10.6647          2.4055 
        2.19054         10.6242         2.38937 
        2.19666         10.5832         2.37341 
         2.2028         10.5353         2.35758 
        2.20893         10.5077         2.34189 
        2.21508         10.4686         2.32632 
        2.22122         10.4063          2.3109 
        2.22736         10.3896         2.29564 
        2.23349         10.3482         2.28053 
        2.23962         10.3199         2.26554 
        2.24577         10.2799         2.25068 
         2.2519         10.2592         2.23597 
        2.25802         10.1697         2.22142 
        2.26417         10.1737         2.20695 
        2.27031         10.1212         2.19261 
        2.27644         10.0884         2.17843 
        2.28257         10.0347         2.16438 
        2.28872         10.0302         2.15043 
        2.29486         9.99149          2.1366 
        2.30099         9.96111         2.12292 
        2.30712         9.90854         2.10936 
        2.31326         9.86494          2.0959 
         2.3194         9.84195         2.08256 
        2.32553         9.79216         2.06935 
        2.33166         9.76382         2.05627 
         2.3378         9.74274         2.04329 
        2.34394         9.71596         2.03041 
        2.35007         9.65722         2.01767 
        2.35619         9.64745         2.00504 
        2.36233         9.59278          1.9925 
        2.36848         9.57054         1.98004 
        2.37462         9.54262         1.96771 
        2.38075         9.51757          1.9555 
        2.38689         9.48463         1.94338 
        2.39303         9.42581         1.93137 
        2.39916         9.41092         1.91947 
        2.40529         9.37255         1.90768 
        2.41143         9.34362         1.89597 
        2.41757         9.31213         1.88436 
         2.4237         9.27688         1.87287 
        2.42983         9.25737         1.86148 
        2.43598         9.22913         1.85015 
        2.44211         9.20756         1.83893 
        2.44823         9.15125         1.82783 
        2.45437         9.12681          1.8168 
        2.46052         9.10556         1.80584 
        2.46665         9.07957           1.795 
        2.47279         9.04925         1.78425 
        2.47892         8.99625         1.77358 
        2.48507         8.98033         1.76298 
         2.4912         8.94798          1.7525 
