# k  (h/Mpc)    P(k)  (Mpc/h)^3    P_linear(k)  (Mpc/h)^3
     0.00783031         5881.16         5937.41 
       0.013688         6687.66         6812.39 
       0.019231         6386.43         6444.54 
      0.0249154         5590.93         5569.41 
      0.0312784         4514.79         4519.07 
      0.0375637         3670.66         3689.51 
      0.0433917         3173.73         3165.56 
      0.0492413         2824.83         2832.37 
      0.0555754         2606.16          2596.9 
      0.0619321         2357.91         2396.41 
       0.067871         2176.91         2186.47 
      0.0738098         1945.35         1944.05 
      0.0800417         1690.95         1678.61 
      0.0862327         1448.21         1440.25 
      0.0921407          1273.5         1261.01 
      0.0982031         1154.61         1132.67 
       0.104506         1053.68         1048.79 
       0.110769         1001.53         994.865 
       0.116806         965.618          949.56 
       0.122832         902.653         895.965 
       0.129052         838.448         826.613 
       0.135211         771.967          748.69 
       0.141259         692.337         673.134 
       0.147318         622.987         607.641 
       0.153489         576.431         556.497 
       0.159709         546.663         520.672 
       0.165845         509.852         496.545 
       0.171974         501.502         477.516 
       0.178125         480.496         457.932 
       0.184229         449.655         434.776 
        0.19034         429.575         407.631 
       0.196428         404.128         378.734 
       0.202534         369.736         350.917 
       0.208729         354.781         326.458 
       0.214876          337.19         307.098 
       0.220989         315.468         292.351 
       0.227147         308.596         280.619 
        0.23329         297.497         270.233 
       0.239377         289.869         259.755 
       0.245482          274.76         248.279 
       0.251667         261.011         235.715 
       0.257832         254.635         222.944 
       0.263955          238.21         210.877 
       0.270079         227.162         200.101 
        0.27624         216.998         190.863 
       0.282372          210.27         183.105 
        0.28843         207.786         176.444 
       0.294538         198.154         170.209 
       0.300721         190.257         163.976 
        0.30691         186.415         157.581 
       0.313033         177.755         151.134 
       0.319153          173.82         144.746 
       0.325316          167.35         138.616 
        0.33145         161.607         132.993 
       0.337538          155.73          127.97 
       0.343633         150.895         123.441 
       0.349808         146.088         119.251 
       0.355968         142.366         115.305 
       0.362074         138.993         111.506 
       0.368217          135.71         107.733 
       0.374374         132.011         103.992 
       0.380519         126.349         100.353 
       0.386598         123.436          96.901 
       0.392688         119.523         93.6389 
        0.39888         117.292         90.5503 
       0.405048         114.389         87.6807 
       0.411186         112.152         84.9986 
       0.417313         109.256         82.4513 
       0.423458         106.319         79.9842 
       0.429607         103.888         77.5821 
       0.435692         102.254         75.2711 
       0.441815         98.9965         73.0144 
       0.447964         95.8681         70.8325 
       0.454126         94.0765         68.7457 
       0.460267         93.1668           66.77 
       0.466387          90.699         64.8963 
        0.47254          89.544         63.0993 
       0.478662         86.3827         61.3866 
       0.484765         84.9571          59.741 
       0.490885         82.8383          58.142 
       0.497035         82.0794         56.5842 
       0.503198         80.2483         55.0752 
       0.509342         78.0997          53.624 
       0.515458         76.8938         52.2329 
       0.521598         74.9547         50.8894 
       0.527764         74.0773         49.5934 
       0.533884         73.3341         48.3573 
           0.54         71.3232         47.1673 
       0.546137         69.5175         46.0132 
       0.552299         68.2582         44.8908 
       0.558452         66.9714         43.8054 
       0.564573         66.6022         42.7599 
       0.570708         64.6526         41.7462 
       0.576825         63.9707          40.769 
       0.582926         63.1378         39.8265 
       0.589034         61.9043         38.9137 
       0.595184         61.0577         38.0245 
       0.601379         59.5888         37.1581 
       0.607522         58.4309         36.3263 
       0.613639         57.9313         35.5238 
       0.619772         56.7392         34.7436 
       0.625918         56.1228          33.985 
       0.632068         55.2236         33.2484 
       0.638161         54.2295         32.5401 
         0.6443          53.781         31.8474 
       0.650464         52.4758         31.1726 
       0.656582         52.2731         30.5227 
       0.662703          51.483         29.8917 
       0.668861         50.2782         29.2753 
       0.675024          50.033         28.6761 
       0.681124         49.3579         28.0999 
       0.687237         48.4056         27.5385 
       0.693381         47.8275         26.9897 
       0.699536         47.3112          26.455 
       0.705665         46.5905         25.9371 
       0.711789         45.8698         25.4337 
       0.717957         45.1792         24.9402 
        0.72409         44.6885         24.4628 
       0.730186           44.41         24.0008 
       0.736317         43.5928         23.5484 
       0.742472         43.0178         23.1062 
       0.748622         42.3999         22.6758 
        0.75476         41.8103         22.2574 
       0.760888         41.6882         21.8503 
       0.767043         40.8098         21.4518 
       0.773185         40.2902         21.0642 
       0.779291         39.8113         20.6883 
       0.785407         39.3465         20.3212 
       0.791564         39.2678         19.9607 
       0.797719         38.4597         19.6093 
       0.803834         38.2252         19.2685 
       0.809972         37.7038         18.9347 
       0.816124         37.2868         18.6082 
       0.822261          36.764         18.2903 
       0.828378         36.6038         17.9808 
       0.834502          36.128         17.6782 
       0.840667         35.8026         17.3808 
       0.846816         35.2816          17.091 
       0.852925         34.9678         16.8098 
       0.859047         34.8294         16.5343 
       0.865192         34.2445         16.2641 
       0.871341          33.849         15.9999 
       0.877463         33.4876         15.7427 
       0.883569         33.3817         15.4919 
       0.889708         32.9494         15.2454 
       0.895864         32.6133         15.0036 
       0.902008         32.2924         14.7676 
       0.908149         31.8955         14.5368 
       0.914301          31.641         14.3106 
       0.920448         31.4415         14.0895 
       0.926574         30.9804         13.8739 
       0.932687         30.6946         13.6633 
       0.938823         30.3156         13.4563 
       0.944975         30.0516         13.2531 
       0.951105         29.8404         13.0549 
       0.957225         29.5919         12.8612 
       0.963368         29.2877         12.6707 
       0.969511         29.0218         12.4841 
       0.975621         28.8109         12.3022 
       0.981748         28.4856         12.1236 
       0.987916         28.2642         11.9474 
        0.99406         27.9586         11.7753 
        1.00019         27.7517          11.607 
        1.00632         27.5482         11.4422 
        1.01246         27.2761         11.2803 
        1.01859         27.0504         11.1219 
        1.02471         26.7938         10.9667 
        1.03085         26.6418         10.8139 
        1.03698          26.469         10.6644 
        1.04314         26.2037         10.5171 
        1.04929         25.8754         10.3729 
        1.05541         25.8239         10.2321 
        1.06154          25.597         10.0935 
        1.06769         25.2449         9.95728 
        1.07382         25.1241         9.82403 
        1.07993         24.9341         9.69354 
        1.08607         24.7107         9.56489 
        1.09222         24.5456         9.43847 
        1.09836         24.3044         9.31448 
        1.10449         24.2141         9.19288 
        1.11063         23.9695         9.07333 
        1.11677         23.9174         8.95596 
         1.1229          23.646         8.84089 
        1.12903         23.4461         8.72774 
        1.13518         23.3842         8.61649 
        1.14131         23.1603         8.50726 
        1.14745         22.9215         8.39999 
        1.15359         22.6902         8.29455 
        1.15973         22.6264          8.1909 
        1.16584         22.4265         8.08948 
        1.17197         22.1745         7.98965 
        1.17811         22.0821         7.89121 
        1.18424         21.8152         7.79471 
        1.19038         21.7648         7.69956 
        1.19652         21.5556         7.60604 
        1.20267         21.4766         7.51408 
        1.20881         21.2857         7.42367 
        1.21495         21.1974         7.33489 
        1.22108         21.0948         7.24758 
         1.2272          20.889         7.16189 
        1.23334          20.783          7.0774 
        1.23949         20.6103         6.99408 
        1.24562          20.428         6.91233 
        1.25174         20.3451         6.83202 
        1.25789         20.2376         6.75274 
        1.26402         20.1006         6.67486 
        1.27014         19.9788         6.59841 
        1.27628          19.785         6.52293 
        1.28244         19.7907         6.44849 
        1.28858         19.5663         6.37532 
        1.29471         19.4139         6.30344 
        1.30084          19.291         6.23275 
        1.30697         19.1914         6.16304 
        1.31312         19.0604          6.0943 
        1.31925         18.9199         6.02683 
        1.32537         18.7764         5.96045 
        1.33151         18.6423         5.89483 
        1.33765          18.632         5.83025 
        1.34378         18.5113         5.76676 
        1.34992         18.3604         5.70418 
        1.35606         18.2008          5.6424 
         1.3622         18.1296         5.58165 
        1.36833         18.0591         5.52194 
        1.37445         17.9067         5.46313 
        1.38059         17.8037         5.40501 
        1.38675         17.7158         5.34759 
        1.39288         17.5717         5.29124 
        1.39901         17.4646         5.23573 
        1.40515         17.3994          5.1809 
         1.4113         17.3093         5.12687 
        1.41742         17.2141         5.07382 
        1.42355         17.0702         5.02143 
         1.4297         16.9787         4.96961 
        1.43585         16.8819         4.91856 
        1.44198         16.8417         4.86841 
        1.44809         16.7153         4.81906 
        1.45423         16.6194         4.77022 
        1.46036         16.5392         4.72214 
        1.46649         16.4278         4.67471 
        1.47263         16.3373         4.62789 
        1.47877         16.2289         4.58174 
        1.48491         16.1706         4.53615 
        1.49104         16.0666         4.49127 
        1.49718         16.0293         4.44697 
        1.50333         15.9316          4.4032 
        1.50947         15.8173         4.36011 
         1.5156         15.7584         4.31766 
        1.52172         15.6544         4.27577 
        1.52787         15.6203         4.23436 
          1.534         15.5101         4.19355 
        1.54013         15.4597         4.15332 
        1.54627         15.3232         4.11354 
        1.55241         15.2347         4.07429 
        1.55855         15.1684          4.0356 
        1.56467         15.1104         3.99752 
         1.5708         15.0353         3.95982 
        1.57695         14.9732         3.92256 
        1.58308         14.8484         3.88586 
        1.58922         14.7859         3.84961 
        1.59535         14.7168         3.81383 
         1.6015         14.6332         3.77846 
        1.60764         14.5692         3.74356 
        1.61376         14.5121          3.7092 
        1.61989         14.3763         3.67524 
        1.62604         14.3438         3.64163 
        1.63218         14.2784         3.60846 
        1.63831          14.185         3.57578 
        1.64444         14.1265          3.5435 
        1.65059         14.0626         3.51153 
        1.65673         13.9936            3.48 
        1.66285         13.9128         3.44895 
        1.66898         13.8612         3.41826 
        1.67512         13.8339         3.38789 
        1.68127         13.7459         3.35786 
         1.6874         13.6942         3.32826 
        1.69353         13.5759         3.29904 
        1.69967         13.5142          3.2701 
        1.70581         13.4754         3.24152 
        1.71193         13.3946         3.21339 
        1.71806         13.3375         3.18553 
        1.72421         13.2772         3.15796 
        1.73035         13.2175         3.13074 
        1.73649         13.1543         3.10384 
        1.74262            13.1         3.07729 
        1.74876         13.0347         3.05102 
        1.75489         12.9757         3.02512 
        1.76101         12.8841         2.99953 
        1.76715         12.8718          2.9742 
        1.77329         12.7819         2.94913 
        1.77943         12.7337         2.92434 
        1.78557         12.7088         2.89987 
        1.79171         12.6111         2.87568 
        1.79785         12.5459         2.85176 
        1.80399         12.4839         2.82811 
        1.81012         12.4493         2.80477 
        1.81625         12.3954          2.7817 
        1.82239         12.3227         2.75886 
        1.82853         12.2808         2.73628 
        1.83466         12.2045         2.71398 
        1.84078         12.1568         2.69195 
        1.84692         12.1501         2.67013 
        1.85306         12.0822         2.64853 
         1.8592         12.0372          2.6272 
        1.86533         11.9546         2.60612 
        1.87147         11.9051         2.58524 
        1.87761         11.8666         2.56458 
        1.88375         11.8225         2.54418 
        1.88988         11.7429         2.52402 
        1.89601         11.7189         2.50406 
        1.90215         11.6369         2.48431 
        1.90829         11.5881         2.46478 
        1.91442         11.5332         2.44545 
        1.92056         11.4986         2.42636 
         1.9267         11.4678         2.40744 
        1.93284         11.4552         2.38872 
        1.93897         11.3605         2.37023 
        1.94509         11.3211         2.35198 
        1.95123         11.2595         2.33387 
        1.95737         11.1996         2.31595 
        1.96349         11.1646         2.29825 
        1.96964         11.1546         2.28069 
        1.97578         11.0936         2.26331 
        1.98192         11.0559         2.24615 
        1.98805         10.9665         2.22916 
        1.99419         10.9625         2.21234 
        2.00033         10.8959         2.19569 
        2.00647         10.8459         2.17922 
         2.0126         10.8043         2.16294 
        2.01874         10.7678         2.14681 
        2.02488         10.6996         2.13082 
        2.03101         10.6871         2.11503 
        2.03714         10.6233         2.09941 
        2.04328         10.5963         2.08394 
        2.04941         10.5335         2.06863 
        2.05554         10.5133         2.05348 
        2.06167          10.482         2.03847 
        2.06781         10.4448         2.02361 
        2.07396         10.4047         2.00887 
        2.08009         10.3324         1.99431 
        2.08622         10.3031         1.97991 
        2.09237         10.2866         1.96562 
        2.09851          10.213         1.95147 
        2.10464         10.1872         1.93748 
        2.11077         10.1328         1.92365 
        2.11691         10.0957         1.90992 
        2.12305         10.0609         1.89632 
        2.12918          10.009         1.88289 
        2.13531         9.98821         1.86959 
        2.14145         9.93333         1.85639 
         2.1476         9.88801          1.8433 
        2.15372         9.88702          1.8304 
        2.15985         9.82249         1.81761 
        2.16599         9.79752         1.80491 
        2.17213         9.77151         1.79234 
        2.17827         9.72537          1.7799 
         2.1844         9.68715         1.76758 
        2.19054         9.65469         1.75538 
        2.19666         9.61923         1.74331 
         2.2028         9.59072         1.73134 
        2.20893         9.53743         1.71948 
        2.21508         9.50092         1.70772 
        2.22122         9.45952         1.69606 
        2.22736         9.43417         1.68454 
        2.23349         9.38957         1.67312 
        2.23962          9.3647         1.66181 
        2.24577         9.35235         1.65059 
         2.2519         9.30062         1.63949 
        2.25802         9.25047         1.62851 
        2.26417         9.24056          1.6176 
        2.27031         9.20623         1.60678 
        2.27644         9.18945         1.59609 
        2.28257         9.11607          1.5855 
        2.28872         9.11076         1.57498 
        2.29486         9.07936         1.56456 
        2.30099         9.03043         1.55426 
        2.30712           8.986         1.54405 
        2.31326         8.95944         1.53391 
         2.3194          8.9191         1.52387 
        2.32553         8.89764         1.51393 
        2.33166          8.8482         1.50409 
         2.3378         8.84202         1.49432 
        2.34394          8.7942         1.48464 
        2.35007         8.77783         1.47505 
        2.35619         8.74325         1.46556 
        2.36233         8.69748         1.45613 
        2.36848         8.65752         1.44677 
        2.37462         8.63431         1.43751 
        2.38075         8.59492         1.42833 
        2.38689         8.59064         1.41923 
        2.39303         8.54343         1.41021 
        2.39916         8.52948         1.40128 
        2.40529         8.50582         1.39243 
        2.41143         8.45606         1.38365 
        2.41757         8.42509         1.37494 
         2.4237         8.39428         1.36632 
        2.42983         8.37903         1.35777 
        2.43598         8.34439         1.34928 
        2.44211         8.30617         1.34087 
        2.44823          8.2772         1.33255 
        2.45437         8.26485         1.32428 
        2.46052         8.23671         1.31607 
        2.46665         8.20938         1.30795 
        2.47279         8.17706          1.2999 
        2.47892         8.14001         1.29191 
        2.48507         8.11456         1.28398 
         2.4912         8.08642         1.27614 
