# k  (h/Mpc)    Pcb(k)  (Mpc/h)^3    Pcb_linear(k)  (Mpc/h)^3
     0.00783031         6535.18         6571.01 
       0.013688         8039.25         8190.82 
       0.019231         8286.68         8369.51 
      0.0249154         7818.28          7805.3 
      0.0312784         6780.85         6817.46 
      0.0375637         5787.58         5848.27 
      0.0433917         5111.73         5119.88 
      0.0492413         4550.54         4585.96 
      0.0555754         4182.74         4187.04 
      0.0619321         3800.87          3892.7 
       0.067871         3598.38         3641.88 
      0.0738098         3345.29         3370.29 
      0.0800417          3040.5         3051.38 
      0.0862327         2701.03         2719.16 
      0.0921407         2412.34         2418.79 
      0.0982031         2175.18         2155.27 
       0.104506         1941.44          1944.3 
       0.110769         1801.41         1796.18 
       0.116806         1726.39         1696.97 
       0.122832         1628.87         1620.65 
       0.129052         1556.47         1545.52 
       0.135211         1491.33         1460.94 
       0.141259         1380.99         1364.03 
       0.147318         1265.17         1257.98 
       0.153489         1174.33         1150.65 
       0.159709         1101.46         1053.55 
       0.165845         1003.01         975.264 
       0.171974         972.857         915.877 
       0.178125          932.11         872.095 
       0.184229         874.893          838.47 
        0.19034         856.415         808.087 
       0.196428         827.011         775.858 
       0.202534         772.208         738.942 
       0.208729          750.82         697.113 
       0.214876         714.899         653.852 
       0.220989         663.854         612.534 
       0.227147         644.432         575.585 
        0.23329         617.535         544.935 
       0.239377         603.371         520.613 
       0.245482         573.715         500.934 
       0.251667         551.728         483.738 
       0.257832         545.613         467.235 
       0.263955         516.034         450.029 
       0.270079         497.252          431.44 
        0.27624         475.233         411.692 
       0.282372         462.148         391.953 
        0.28843         456.911         373.407 
       0.294538         433.401         356.537 
       0.300721         417.897         341.697 
        0.30691         411.023         328.994 
       0.313033         393.322         318.022 
       0.319153         386.698         307.977 
       0.325316         377.029         298.126 
        0.33145         367.393         288.182 
       0.337538         354.462         278.022 
       0.343633         343.347         267.721 
       0.349808         333.672          257.43 
       0.355968         326.249          247.67 
       0.362074         317.272         238.729 
       0.368217         312.843         230.579 
       0.374374         305.633         223.208 
       0.380519         293.191         216.458 
       0.386598         288.647         210.177 
       0.392688         281.396         204.067 
        0.39888         274.908         197.909 
       0.405048         269.486         191.803 
       0.411186          266.72         185.774 
       0.417313         261.235         179.909 
       0.423458         254.187         174.281 
       0.429607         248.262         168.964 
       0.435692         243.885         164.052 
       0.441815         238.858         159.439 
       0.447964          232.33         155.071 
       0.454126         228.688         150.894 
       0.460267         225.985         146.872 
       0.466387         221.319         142.949 
        0.47254         218.612         139.074 
       0.478662         211.951         135.305 
       0.484765          209.33         131.656 
       0.490885         206.032         128.127 
       0.497035         203.616         124.733 
       0.503198         200.728         121.498 
       0.509342         195.399         118.432 
       0.515458         193.085          115.51 
       0.521598         188.596         112.686 
       0.527764         186.608         109.942 
       0.533884         185.867         107.298 
           0.54         181.296         104.722 
       0.546137         177.267         102.199 
       0.552299         175.567         99.7393 
       0.558452         172.474         97.3649 
       0.564573         171.527         95.0889 
       0.570708         167.317         92.8924 
       0.576825         165.199         90.7811 
       0.582926         163.425         88.7486 
       0.589034         161.013         86.7811 
       0.595184         159.583         84.8625 
       0.601379           156.1         82.9869 
       0.607522         153.435         81.1775 
       0.613639         152.256         79.4228 
       0.619772         150.318         77.7112 
       0.625918         149.162         76.0458 
       0.632068         145.876         74.4307 
       0.638161          144.22         72.8814 
         0.6443         143.487         71.3696 
       0.650464         140.698         69.8978 
       0.656582         140.034         68.4793 
       0.662703         138.451         67.0994 
       0.668861         135.617         65.7485 
       0.675024         135.665         64.4327 
       0.681124          133.43         63.1657 
       0.687237          131.39         61.9301 
       0.693381         130.499         60.7222 
       0.699536         128.879          59.545 
       0.705665          127.24         58.4047 
       0.711789         125.684         57.2958 
       0.717957         124.289         56.2085 
        0.72409         123.325         55.1557 
       0.730186         122.844         54.1365 
       0.736317         120.718         53.1376 
       0.742472         119.157         52.1604 
       0.748622         117.377         51.2089 
        0.75476         117.447         50.2833 
       0.760888         116.429         49.3822 
       0.767043         114.306         48.4998 
       0.773185         113.041          47.641 
       0.779291         111.785         46.8081 
       0.785407         110.721         45.9941 
       0.791564         110.275         45.1944 
       0.797719         108.839         44.4143 
       0.803834         108.298         43.6577 
       0.809972         107.529         42.9161 
       0.816124         106.088         42.1902 
       0.822261         104.914         41.4831 
       0.828378         104.711         40.7944 
       0.834502         103.108         40.1209 
       0.840667         102.589         39.4583 
       0.846816         101.664         38.8127 
       0.852925         100.502         38.1857 
       0.859047         100.022         37.5714 
       0.865192         98.8571         36.9686 
       0.871341         97.8071         36.3788 
       0.877463         97.1484         35.8046 
       0.883569         96.9712         35.2444 
       0.889708         96.0758         34.6934 
       0.895864         95.2239         34.1528 
       0.902008         94.3154          33.625 
       0.908149         93.1282         33.1087 
       0.914301         93.0297         32.6025 
       0.920448         92.6332         32.1074 
       0.926574         90.8214         31.6244 
       0.932687         90.6776         31.1524 
       0.938823          89.966         30.6885 
       0.944975         88.9201         30.2329 
       0.951105         88.2244         29.7883 
       0.957225         88.1167         29.3534 
       0.963368         87.1354         28.9258 
       0.969511         86.4789         28.5067 
       0.975621         85.7625         28.0983 
       0.981748         85.0185         27.6968 
       0.987916         84.4613         27.3007 
        0.99406         84.1252         26.9138 
        1.00019         83.0908         26.5353 
        1.00632         82.5734         26.1644 
        1.01246         82.0698         25.8001 
        1.01859         81.7367         25.4434 
        1.02471         80.9188         25.0938 
        1.03085         80.2616         24.7497 
        1.03698         79.7982         24.4128 
        1.04314         79.1972         24.0807 
        1.04929          78.781         23.7556 
        1.05541         78.2487         23.4379 
        1.06154         77.7874         23.1252 
        1.06769         77.0258         22.8178 
        1.07382         76.3916          22.517 
        1.07993         76.1909         22.2223 
        1.08607          75.565         21.9317 
        1.09222         75.3201         21.6461 
        1.09836         74.5693         21.3658 
        1.10449         74.1845         21.0909 
        1.11063          73.625         20.8206 
        1.11677         73.2791         20.5551 
         1.1229         72.6179         20.2948 
        1.12903           72.41         20.0387 
        1.13518         72.1422         19.7868 
        1.14131         71.4401         19.5395 
        1.14745         70.9466         19.2965 
        1.15359         70.1664         19.0577 
        1.15973         70.1544         18.8228 
        1.16584         69.6464         18.5929 
        1.17197         69.0386         18.3666 
        1.17811         68.6975         18.1433 
        1.18424         67.9529         17.9244 
        1.19038         67.9267         17.7085 
        1.19652         67.5425         17.4963 
        1.20267         67.0281         17.2876 
        1.20881         66.6239         17.0823 
        1.21495         66.2965         16.8807 
        1.22108         66.0668         16.6823 
         1.2272         65.3927         16.4877 
        1.23334         65.1524         16.2957 
        1.23949         64.7406         16.1063 
        1.24562         64.2779         15.9205 
        1.25174         63.9037         15.7378 
        1.25789         63.8839         15.5576 
        1.26402         63.3174         15.3804 
        1.27014         63.0653         15.2065 
        1.27628         62.4593         15.0347 
        1.28244         62.3475         14.8653 
        1.28858         61.9297         14.6987 
        1.29471         61.5723          14.535 
        1.30084         61.0073          14.374 
        1.30697          61.083         14.2152 
        1.31312         60.5229         14.0586 
        1.31925         60.0919         13.9048 
        1.32537         59.8255         13.7535 
        1.33151          59.536         13.6039 
        1.33765         59.2066         13.4566 
        1.34378         58.9538         13.3118 
        1.34992         58.6002          13.169 
        1.35606         58.1877         13.0281 
         1.3622          57.954         12.8894 
        1.36833         57.6034         12.7531 
        1.37445         57.0943         12.6189 
        1.38059         57.0487         12.4862 
        1.38675          56.437         12.3551 
        1.39288         56.4595         12.2263 
        1.39901         55.9562         12.0995 
        1.40515         55.7707         11.9742 
         1.4113         55.6477         11.8508 
        1.41742         55.2518         11.7295 
        1.42355         54.9123         11.6097 
         1.4297         54.6346         11.4913 
        1.43585          54.281         11.3745 
        1.44198         53.9602         11.2599 
        1.44809         53.6648          11.147 
        1.45423         53.4699         11.0352 
        1.46036         53.1853         10.9252 
        1.46649         53.0059         10.8167 
        1.47263         52.6701         10.7095 
        1.47877         52.4814         10.6038 
        1.48491         52.2181         10.4995 
        1.49104         51.7772         10.3967 
        1.49718         51.6175         10.2952 
        1.50333         51.3968         10.1949 
        1.50947         51.1037         10.0962 
         1.5156         50.8987         9.99893 
        1.52172         50.5264         9.90294 
        1.52787         50.2868         9.80801 
          1.534         50.0617         9.71445 
        1.54013          49.977          9.6222 
        1.54627         49.4842         9.53099 
        1.55241         49.2575         9.44095 
        1.55855           49.18         9.35221 
        1.56467         48.7783         9.26485 
         1.5708         48.7033         9.17836 
        1.57695         48.4042         9.09284 
        1.58308         48.0703         9.00862 
        1.58922         47.8857         8.92541 
        1.59535         47.7385         8.84328 
         1.6015         47.6625         8.76207 
        1.60764         47.2943         8.68192 
        1.61376         47.0208           8.603 
        1.61989         46.7282           8.525 
        1.62604         46.5613         8.44779 
        1.63218         46.2894         8.37158 
        1.63831         46.1907          8.2965 
        1.64444         45.9287         8.22231 
        1.65059          45.707         8.14885 
        1.65673         45.4311         8.07637 
        1.66285         45.3566         8.00498 
        1.66898         44.9281         7.93442 
        1.67512         44.8504         7.86459 
        1.68127         44.6198         7.79553 
         1.6874         44.3867         7.72745 
        1.69353         44.2901         7.66023 
        1.69967            44.1         7.59365 
        1.70581         43.7498         7.52789 
        1.71193         43.5707         7.46316 
        1.71806         43.4078         7.39905 
        1.72421         43.2165         7.33557 
        1.73035         42.9964          7.2729 
        1.73649         42.7038         7.21099 
        1.74262         42.4369         7.14984 
        1.74876          42.428         7.08936 
        1.75489           42.13          7.0297 
        1.76101         41.9749         6.97075 
        1.76715         41.8978          6.9124 
        1.77329         41.4886         6.85464 
        1.77943         41.4933         6.79752 
        1.78557         41.2978         6.74113 
        1.79171         41.0863         6.68537 
        1.79785         40.8785         6.63024 
        1.80399         40.6872         6.57574 
        1.81012         40.5561         6.52192 
        1.81625         40.2192         6.46873 
        1.82239         40.0824         6.41606 
        1.82853         39.9641           6.364 
        1.83466         39.7305         6.31257 
        1.84078         39.5783         6.26176 
        1.84692         39.3685         6.21142 
        1.85306         39.1509         6.16158 
         1.8592         39.0698         6.11237 
        1.86533         38.8789         6.06372 
        1.87147         38.6893         6.01555 
        1.87761         38.4474         5.96787 
        1.88375         38.3724         5.92077 
        1.88988         38.2137         5.87423 
        1.89601         37.9525         5.82817 
        1.90215          37.834         5.78256 
        1.90829          37.656         5.73747 
        1.91442         37.4652         5.69285 
        1.92056         37.3154         5.64875 
         1.9267         37.2458         5.60506 
        1.93284          36.984         5.56182 
        1.93897         36.9119         5.51911 
        1.94509          36.657         5.47695 
        1.95123          36.552         5.43512 
        1.95737         36.3115         5.39369 
        1.96349          36.245         5.35281 
        1.96964         36.0876         5.31223 
        1.97578         35.8635         5.27205 
        1.98192          35.712         5.23237 
        1.98805         35.5276         5.19309 
        1.99419         35.4253         5.15422 
        2.00033         35.2459         5.11572 
        2.00647         35.1742         5.07763 
         2.0126         34.9513         5.03998 
        2.01874         34.7863         5.00267 
        2.02488         34.6186         4.96569 
        2.03101           34.46         4.92916 
        2.03714          34.346         4.89304 
        2.04328         34.2252         4.85723 
        2.04941         34.0341         4.82181 
        2.05554         33.9141         4.78677 
        2.06167         33.7406         4.75203 
        2.06781         33.6273         4.71763 
        2.07396         33.4849         4.68353 
        2.08009         33.3319         4.64981 
        2.08622         33.1701         4.61647 
        2.09237         33.0661         4.58339 
        2.09851          32.879         4.55063 
        2.10464          32.709         4.51825 
        2.11077         32.6618         4.48621 
        2.11691         32.4366         4.45442 
        2.12305         32.2957         4.42294 
        2.12918         32.1893         4.39183 
        2.13531         32.0624         4.36102 
        2.14145         31.9357         4.33044 
         2.1476         31.7465         4.30011 
        2.15372         31.6874         4.27022 
        2.15985         31.4893         4.24059 
        2.16599         31.3085         4.21116 
        2.17213         31.2356         4.18204 
        2.17827         31.0937         4.15319 
         2.1844         30.9839         4.12465 
        2.19054         30.8611         4.09637 
        2.19666         30.6766         4.06839 
         2.2028         30.6065         4.04064 
        2.20893         30.4829         4.01315 
        2.21508         30.3582         3.98587 
        2.22122         30.1977         3.95885 
        2.22736         30.0461         3.93213 
        2.23349         29.9183         3.90566 
        2.23962         29.8323         3.87942 
        2.24577         29.7059          3.8534 
         2.2519         29.5595         3.82765 
        2.25802         29.4254         3.80219 
        2.26417         29.2742         3.77688 
        2.27031         29.2252         3.75178 
        2.27644         29.1406         3.72698 
        2.28257          28.968          3.7024 
        2.28872         28.8902           3.678 
        2.29486         28.7142         3.65383 
        2.30099         28.5569         3.62992 
        2.30712         28.4934         3.60622 
        2.31326         28.3511         3.58268 
         2.3194         28.2529         3.55937 
        2.32553         28.1372         3.53631 
        2.33166         28.0197         3.51346 
         2.3378         27.9284         3.49078 
        2.34394         27.7861          3.4683 
        2.35007         27.7275         3.44604 
        2.35619         27.6067         3.42401 
        2.36233         27.4294         3.40211 
        2.36848         27.3211         3.38037 
        2.37462         27.2688         3.35886 
        2.38075          27.104         3.33755 
        2.38689           26.96         3.31642 
        2.39303         26.9581         3.29547 
        2.39916         26.7538         3.27472 
        2.40529         26.6486         3.25416 
        2.41143         26.5613         3.23375 
        2.41757         26.4229         3.21351 
         2.4237          26.347         3.19348 
        2.42983         26.2249         3.17363 
        2.43598         26.1051         3.15389 
        2.44211         26.0278         3.13435 
        2.44823         25.8764         3.11502 
        2.45437         25.8754          3.0958 
        2.46052         25.7046         3.07673 
        2.46665         25.6028         3.05785 
        2.47279          25.448         3.03913 
        2.47892         25.3844         3.02056 
        2.48507         25.2892         3.00213 
         2.4912         25.2205         2.98388 
