#  k  (h/Mpc)          P(k)  (Mpc/h)^3     P_linear(k) (Mpc/h)^3
     0.00783031         2647.81         2675.35 
       0.013688         3380.55         3376.51 
       0.019231         3490.36          3488.1 
      0.0249154         3264.23          3292.4 
      0.0312784         2905.91          2914.2 
      0.0375637          2531.4         2526.33 
      0.0433917         2213.14         2224.09 
      0.0492413         1994.12         1994.95 
      0.0555754         1801.72         1818.97 
      0.0619321         1697.45         1689.26 
       0.067871         1570.73         1583.07 
      0.0738098         1459.72         1472.61 
      0.0800417         1326.25         1344.52 
      0.0862327         1200.04         1209.27 
      0.0921407         1081.12          1083.4 
      0.0982031         963.307         968.651 
       0.104506         880.283         872.433 
       0.110769         808.379         801.552 
       0.116806         753.592         752.667 
       0.122832         720.917          716.05 
       0.129052         680.806         683.155 
       0.135211         646.832         649.086 
       0.141259         613.893         611.036 
       0.147318         574.991         568.631 
       0.153489         527.712          523.89 
       0.159709          488.61         481.149 
       0.165845         458.365         444.524 
       0.171974         425.208         415.035 
       0.178125         403.687         392.361 
       0.184229         387.535         375.135 
        0.19034          366.38         360.862 
       0.196428         357.571         347.339 
       0.202534         346.337         332.839 
       0.208729         328.019         316.509 
       0.214876         308.621         299.042 
       0.220989         295.928         281.429 
       0.227147          276.34          264.65 
        0.23329         262.664         249.814 
       0.239377          252.91         237.421 
       0.245482         238.361         227.197 
       0.251667          233.61         218.574 
       0.257832         225.806         210.972 
       0.263955         217.987         203.705 
       0.270079         210.401         196.229 
        0.27624         205.307         188.308 
       0.282372         196.831         180.147 
        0.28843          188.31         172.099 
       0.294538         180.306         164.357 
       0.300721         176.017         157.188 
        0.30691         167.821         150.829 
       0.313033         162.851         145.318 
       0.319153         155.619         140.428 
       0.325316         152.984         135.909 
        0.33145         147.669         131.595 
       0.337538         144.618         127.338 
       0.343633         139.706         123.038 
       0.349808         135.497          118.66 
       0.355968         131.892         114.357 
       0.362074         127.658         110.253 
       0.368217         123.979          106.38 
       0.374374          120.25         102.797 
       0.380519         117.294         99.5183 
       0.386598         114.181         96.5275 
       0.392688         112.028         93.7134 
        0.39888         108.978         90.9753 
       0.405048          106.52         88.3155 
       0.411186         104.126         85.7055 
       0.417313         100.988         83.1415 
       0.423458         98.6163         80.6253 
       0.429607         96.0303         78.1916 
       0.435692         92.9351         75.8945 
       0.441815         91.8541         73.7063 
       0.447964         90.3263         71.6333 
       0.454126          86.555         69.6743 
       0.460267         85.3017         67.8175 
       0.466387         83.2795         66.0392 
        0.47254         82.0063         64.3077 
       0.478662         80.7043         62.6311 
       0.484765         78.4645         60.9985 
       0.490885         76.8511          59.404 
       0.497035         75.8542         57.8522 
       0.503198         73.8515          56.355 
       0.509342         72.0453         54.9217 
       0.515458          70.834          53.555 
       0.521598         69.8097         52.2417 
       0.527764         68.5287          50.976 
       0.533884         67.3568         49.7643 
           0.54         66.0495         48.5913 
       0.546137         65.1916         47.4485 
       0.552299          64.227         46.3339 
       0.558452         62.3761         45.2526 
       0.564573         61.3714         44.2077 
       0.570708         60.6123         43.1926 
       0.576825          59.327         42.2142 
       0.582926         58.2212         41.2724 
       0.589034         56.8565         40.3619 
       0.595184         56.2012         39.4752 
       0.601379         55.3968         38.6104 
       0.607522         54.1686         37.7785 
       0.613639         53.9036         36.9743 
       0.619772         52.5435          36.191 
       0.625918         52.2802          35.428 
       0.632068         51.4772         34.6857 
       0.638161         50.5899         33.9707 
         0.6443         49.7101         33.2707 
       0.650464         48.9379         32.5886 
       0.656582         48.5896         31.9314 
       0.662703         47.6281         31.2934 
       0.668861         46.9433         30.6701 
       0.675024         46.2331         30.0637 
       0.681124         45.4543         29.4799 
       0.687237         44.7143         28.9102 
       0.693381         44.3926         28.3525 
       0.699536         43.4116         27.8084 
       0.705665          43.489         27.2809 
       0.711789         42.4301         26.7677 
       0.717957         41.9816         26.2645 
        0.72409         41.3986         25.7773 
       0.730186         40.7964         25.3058 
       0.736317         40.4975         24.8438 
       0.742472         39.7932         24.3917 
       0.748622         39.4797         23.9515 
        0.75476         38.8915         23.5231 
       0.760888          38.334         23.1058 
       0.767043         37.9389         22.6971 
       0.773185         37.3423         22.2991 
       0.779291         37.1859         21.9131 
       0.785407         36.7778         21.5357 
       0.791564         36.1318         21.1649 
       0.797719         35.4559         20.8032 
       0.803834         35.4173         20.4524 
       0.809972         35.0229         20.1084 
       0.816124         34.2875         19.7718 
       0.822261         34.1093         19.4438 
       0.828378         33.8005         19.1244 
       0.834502         33.4236         18.8119 
       0.840667         33.0735         18.5044 
       0.846816         32.5544         18.2047 
       0.852925         32.2812         17.9136 
       0.859047         31.9037         17.6283 
       0.865192         31.6432         17.3483 
       0.871341         31.4639         17.0743 
       0.877463         30.8543         16.8074 
       0.883569         30.5703          16.547 
       0.889708         30.2562         16.2908 
       0.895864         30.0215         16.0395 
       0.902008         29.7878          15.794 
       0.908149         29.4875         15.5538 
       0.914301         29.3639         15.3183 
       0.920448         28.7811          15.088 
       0.926574         28.6223         14.8632 
       0.932687         28.3245         14.6435 
       0.938823         27.9612         14.4275 
       0.944975         27.7521         14.2154 
       0.951105         27.5306         14.0083 
       0.957225         27.2185         13.8058 
       0.963368          27.056         13.6066 
       0.969511         26.8351         13.4114 
       0.975621         26.6276         13.2211 
       0.981748         26.2638          13.034 
       0.987916         26.1351         12.8494 
        0.99406         25.8435         12.6691 
        1.00019         25.5287         12.4927 
        1.00632         25.4427         12.3198 
        1.01246          25.226         12.1499 
        1.01859           24.88         11.9835 
        1.02471         24.8316         11.8205 
        1.03085         24.5953           11.66 
        1.03698         24.2223         11.5028 
        1.04314         24.0856         11.3479 
        1.04929         23.8474         11.1962 
        1.05541         23.6171         11.0479 
        1.06154          23.497         10.9019 
        1.06769         23.3546         10.7584 
        1.07382         23.1015          10.618 
        1.07993         23.0049         10.4803 
        1.08607         22.7178         10.3446 
        1.09222         22.5994         10.2112 
        1.09836         22.3304         10.0803 
        1.10449         22.2326         9.95182 
        1.11063          21.981         9.82548 
        1.11677         21.9108         9.70139 
         1.1229         21.8016         9.57967 
        1.12903         21.5163         9.45994 
        1.13518         21.3087         9.34218 
        1.14131         21.2537          9.2265 
        1.14745         21.0943         9.11286 
        1.15359         20.9685         9.00112 
        1.15973         20.7646         8.89122 
        1.16584         20.5133         8.78365 
        1.17197         20.5106         8.67773 
        1.17811         20.2833         8.57324 
        1.18424         20.1163         8.47078 
        1.19038         20.0573         8.36971 
        1.19652         19.8876         8.27034 
        1.20267         19.7263          8.1726 
        1.20881         19.6464         8.07646 
        1.21495         19.5065         7.98204 
        1.22108         19.3259         7.88914 
         1.2272         19.1563         7.79796 
        1.23334         19.0447         7.70801 
        1.23949         18.8799         7.61928 
        1.24562         18.8403          7.5322 
        1.25174         18.7176         7.44662 
        1.25789         18.5891         7.36212 
        1.26402         18.5026         7.27908 
        1.27014         18.3284         7.19754 
        1.27628         18.1333         7.11701 
        1.28244         18.0892         7.03756 
        1.28858         18.0318         6.95944 
        1.29471         17.8488         6.88269 
        1.30084         17.7079         6.80717 
        1.30697         17.6264         6.73268 
        1.31312         17.4556          6.6592 
        1.31925         17.3489         6.58706 
        1.32537         17.3067         6.51605 
        1.33151         17.1547         6.44585 
        1.33765         17.0698         6.37672 
        1.34378         16.9775         6.30875 
        1.34992         16.7934         6.24173 
        1.35606         16.7655         6.17554 
         1.3622         16.6654         6.11043 
        1.36833         16.5312         6.04642 
        1.37445          16.473         5.98336 
        1.38059         16.3786         5.92101 
        1.38675         16.2108         5.85941 
        1.39288         16.1645         5.79893 
        1.39901         16.0253         5.73934 
        1.40515         15.9662         5.68046 
         1.4113         15.8641         5.62243 
        1.41742         15.7587         5.56543 
        1.42355         15.6813         5.50912 
         1.4297         15.5952         5.45343 
        1.43585         15.5501         5.39853 
        1.44198         15.4119          5.3446 
        1.44809         15.3432         5.29151 
        1.45423         15.2471         5.23895 
        1.46036           15.18         5.18721 
        1.46649         15.1058         5.13614 
        1.47263         14.9757         5.08573 
        1.47877         14.9095         5.03602 
        1.48491         14.8369          4.9869 
        1.49104         14.7728         4.93854 
        1.49718         14.6709         4.89079 
        1.50333         14.6094          4.8436 
        1.50947          14.533         4.79713 
         1.5156         14.4237         4.75134 
        1.52172         14.3549         4.70615 
        1.52787         14.2744         4.66146 
          1.534         14.1942         4.61741 
        1.54013         14.1092         4.57397 
        1.54627         14.0274         4.53102 
        1.55241         13.9715         4.48861 
        1.55855         13.9111          4.4468 
        1.56467         13.8209         4.40565 
         1.5708         13.8011          4.3649 
        1.57695         13.6731         4.32461 
        1.58308          13.623         4.28492 
        1.58922         13.5627          4.2457 
        1.59535         13.4967         4.20699 
         1.6015          13.401         4.16871 
        1.60764         13.3362         4.13093 
        1.61376         13.3134         4.09372 
        1.61989         13.1925         4.05695 
        1.62604         13.1747         4.02054 
        1.63218          13.094          3.9846 
        1.63831         13.0475         3.94919 
        1.64444         12.9497          3.9142 
        1.65059         12.8826         3.87955 
        1.65673         12.8561         3.84536 
        1.66285         12.7319         3.81167 
        1.66898         12.7141         3.77838 
        1.67512         12.6526         3.74543 
        1.68127         12.5766         3.71284 
         1.6874         12.5277         3.68071 
        1.69353         12.4633         3.64898 
        1.69967         12.3947         3.61756 
        1.70581         12.3346         3.58651 
        1.71193          12.274         3.55595 
        1.71806         12.2528         3.52569 
        1.72421         12.1529         3.49572 
        1.73035         12.1316         3.46613 
        1.73649          12.074         3.43689 
        1.74262         12.0183         3.40801 
        1.74876         11.9675         3.37945 
        1.75489         11.9139         3.35127 
        1.76101         11.8234         3.32342 
        1.76715          11.822         3.29586 
        1.77329         11.7355         3.26857 
        1.77943         11.6744         3.24158 
        1.78557         11.6461         3.21494 
        1.79171         11.6044         3.18859 
        1.79785         11.5228         3.16253 
        1.80399         11.4778         3.13677 
        1.81012         11.4343         3.11133 
        1.81625         11.3681         3.08619 
        1.82239         11.3298         3.06129 
        1.82853         11.2505         3.03667 
        1.83466         11.2218         3.01235 
        1.84078         11.1427         2.98833 
        1.84692         11.1409         2.96452 
        1.85306         11.0747         2.94095 
         1.8592         11.0215         2.91767 
        1.86533         10.9856         2.89466 
        1.87147         10.9368         2.87187 
        1.87761         10.8968         2.84932 
        1.88375         10.8304         2.82704 
        1.88988         10.8157         2.80502 
        1.89601         10.7576         2.78322 
        1.90215         10.6997         2.76164 
        1.90829         10.6586         2.74029 
        1.91442         10.6145         2.71917 
        1.92056         10.5825          2.6983 
         1.9267         10.5297         2.67762 
        1.93284         10.4787         2.65715 
        1.93897         10.4221         2.63693 
        1.94509         10.3947         2.61696 
        1.95123         10.3513         2.59715 
        1.95737         10.3059         2.57754 
        1.96349         10.2639         2.55817 
        1.96964         10.2174         2.53895 
        1.97578         10.1773         2.51992 
        1.98192         10.1288         2.50113 
        1.98805         10.1013         2.48252 
        1.99419         10.0561         2.46411 
        2.00033         10.0323         2.44587 
        2.00647         9.98433         2.42782 
         2.0126         9.92613         2.40998 
        2.01874         9.89619          2.3923 
        2.02488         9.84524         2.37478 
        2.03101         9.81817         2.35747 
        2.03714         9.77295         2.34035 
        2.04328         9.74128         2.32337 
        2.04941         9.69625         2.30658 
        2.05554         9.66409         2.28997 
        2.06167         9.61387          2.2735 
        2.06781         9.59934         2.25719 
        2.07396         9.56171         2.24102 
        2.08009          9.5098         2.22503 
        2.08622         9.46237         2.20922 
        2.09237         9.45544         2.19353 
        2.09851         9.42924           2.178 
        2.10464         9.37478         2.16263 
        2.11077         9.32037         2.14744 
        2.11691         9.28458         2.13236 
        2.12305         9.26474         2.11742 
        2.12918         9.24055         2.10266 
        2.13531         9.19212         2.08804 
        2.14145         9.16557         2.07353 
         2.1476         9.11573         2.05914 
        2.15372          9.0901         2.04495 
        2.15985          9.0775         2.03089 
        2.16599         9.02475         2.01692 
        2.17213         9.00527          2.0031 
        2.17827          8.9696         1.98941 
         2.1844         8.92887         1.97586 
        2.19054         8.87509         1.96243 
        2.19666          8.8625         1.94915 
         2.2028         8.82464         1.93597 
        2.20893         8.80866         1.92292 
        2.21508         8.75885         1.90997 
        2.22122         8.71903         1.89713 
        2.22736         8.70009         1.88444 
        2.23349         8.66267         1.87187 
        2.23962         8.64506          1.8594 
        2.24577         8.59961         1.84704 
         2.2519         8.57852         1.83481 
        2.25802         8.54003         1.82271 
        2.26417         8.50827         1.81069 
        2.27031         8.47913         1.79876 
        2.27644         8.45035         1.78698 
        2.28257          8.4266          1.7753 
        2.28872         8.38456          1.7637 
        2.29486         8.36083         1.75222 
        2.30099         8.34822         1.74085 
        2.30712         8.31782         1.72959 
        2.31326         8.26083          1.7184 
         2.3194         8.23503         1.70732 
        2.32553         8.22642         1.69636 
        2.33166         8.19051         1.68549 
         2.3378          8.1627         1.67471 
        2.34394         8.13118         1.66402 
        2.35007         8.08935         1.65344 
        2.35619         8.06597         1.64296 
        2.36233         8.03808         1.63255 
        2.36848         8.02079         1.62221 
        2.37462         7.98968         1.61197 
        2.38075         7.95962         1.60184 
        2.38689         7.93325         1.59179 
        2.39303         7.89983         1.58182 
        2.39916         7.87973         1.57195 
        2.40529         7.85599         1.56217 
        2.41143         7.82111         1.55246 
        2.41757         7.81746         1.54283 
         2.4237         7.77865          1.5333 
        2.42983         7.75354         1.52385 
        2.43598         7.73568         1.51445 
        2.44211         7.70211         1.50516 
        2.44823         7.68486         1.49595 
        2.45437         7.65384         1.48681 
        2.46052          7.6119         1.47773 
        2.46665         7.59555         1.46874 
        2.47279         7.56695         1.45983 
        2.47892         7.53424         1.45099 
        2.48507         7.51717         1.44221 
         2.4912         7.48859         1.43353 
