# k  (h/Mpc)    P(k)  (Mpc/h)^3    P_linear(k)  (Mpc/h)^3
     0.00783031         3062.49         3100.39 
       0.013688         4077.82         4074.48 
       0.019231         4351.87         4353.69 
      0.0249154         4199.99          4245.5 
      0.0312784         3864.32          3883.9 
      0.0375637         3456.35         3456.24 
      0.0433917         3067.06         3092.97 
      0.0492413          2790.2         2798.65 
      0.0555754         2526.54         2561.19 
      0.0619321         2391.31         2385.06 
       0.067871         2221.38         2248.24 
      0.0738098          2085.9         2114.35 
      0.0800417         1922.79         1962.25 
      0.0862327         1771.78         1797.53 
      0.0921407         1621.69         1635.94 
      0.0982031         1459.69         1478.37 
       0.104506         1340.27         1335.64 
       0.110769         1226.61          1221.9 
       0.116806         1135.28         1138.82 
       0.122832         1080.76         1076.85 
       0.129052         1018.45         1026.62 
       0.135211          973.55         981.845 
       0.141259         935.299         936.013 
       0.147318         888.968         884.953 
       0.153489         826.291         827.959 
       0.159709         774.076         768.636 
       0.165845         730.484         712.589 
       0.171974         676.192         662.837 
       0.178125         637.857         621.291 
       0.184229         608.835         588.538 
        0.19034         571.804         562.748 
       0.196428         559.717         541.571 
       0.202534         544.968         522.182 
       0.208729         520.934         502.147 
       0.214876         494.827          480.65 
       0.220989          480.34         457.572 
       0.227147         450.724         433.461 
        0.23329         430.023         409.862 
       0.239377         414.854         388.192 
       0.245482         388.556         369.026 
       0.251667         380.614         352.536 
       0.257832         367.258          338.73 
       0.263955         354.775         326.933 
       0.270079          343.75         316.199 
        0.27624         338.018         305.685 
       0.282372         325.284         294.993 
        0.28843         313.705         284.024 
       0.294538         301.266         272.687 
       0.300721         295.947         261.284 
        0.30691         282.151         250.346 
       0.313033         274.184         240.342 
       0.319153         262.309         231.323 
       0.325316         256.798         223.242 
        0.33145         248.493         216.027 
       0.337538           244.5         209.453 
       0.343633         236.942         203.195 
       0.349808          230.33         196.978 
       0.355968         225.519         190.779 
       0.362074         219.153         184.619 
       0.368217         213.451         178.478 
       0.374374         207.185         172.481 
       0.380519         202.408         166.775 
       0.386598         197.241         161.479 
       0.392688         194.042         156.552 
        0.39888         189.005         151.914 
       0.405048         185.155         147.598 
       0.411186         181.244         143.532 
       0.417313         176.681         139.621 
       0.423458          173.12         135.787 
       0.429607         168.826         132.019 
       0.435692          163.66         128.354 
       0.441815         162.395         124.749 
       0.447964         159.833         121.248 
       0.454126          153.14         117.886 
       0.460267         151.215         114.696 
       0.466387         148.484         111.683 
        0.47254         146.138         108.809 
       0.478662         144.129         106.079 
       0.484765         140.512         103.463 
       0.490885         138.021         100.926 
       0.497035         136.295         98.4457 
       0.503198         132.783         96.0191 
       0.509342         130.112         93.6622 
       0.515458         128.285         91.3834 
       0.521598         126.751         89.1682 
       0.527764         124.677         87.0216 
       0.533884         122.502         84.9725 
           0.54          120.55         83.0071 
       0.546137         119.345         81.1094 
       0.552299         117.669         79.2709 
       0.558452         114.725          77.495 
       0.564573         112.735         75.7817 
       0.570708          111.66          74.113 
       0.576825         109.652         72.4936 
       0.582926         107.838          70.921 
       0.589034         105.555         69.3903 
       0.595184         104.539         67.8951 
       0.601379         103.461          66.437 
       0.607522         100.931         65.0371 
       0.613639         100.844         63.6866 
       0.619772         98.3891         62.3742 
       0.625918         97.8205         61.0985 
       0.632068         96.5063         59.8595 
       0.638161         95.1998         58.6662 
         0.6443         93.8516         57.4963 
       0.650464         92.5628         56.3525 
       0.656582         91.7359         55.2466 
       0.662703         89.9317         54.1694 
       0.668861         89.0909          53.115 
       0.675024         87.9359         52.0889 
       0.681124         86.6872         51.1018 
       0.687237         85.3114         50.1397 
       0.693381         84.6087         49.1988 
       0.699536         83.2331          48.281 
       0.705665         83.6369         47.3909 
       0.711789         81.4746          46.524 
       0.717957         80.9314          45.673 
        0.72409         79.7792         44.8481 
       0.730186         78.5705         44.0488 
       0.736317         78.3462         43.2648 
       0.742472         77.1208         42.4973 
       0.748622         76.6177         41.7494 
        0.75476         75.6794         41.0214 
       0.760888         74.6787         40.3122 
       0.767043         73.9509         39.6172 
       0.773185         73.0323         38.9404 
       0.779291         72.6558         38.2835 
       0.785407         71.9848          37.641 
       0.791564         70.8627         37.0096 
       0.797719         69.8946         36.3931 
       0.803834         69.7376         35.7949 
       0.809972          68.661         35.2081 
       0.816124         67.7355         34.6334 
       0.822261         67.4685         34.0733 
       0.828378         66.8415         33.5274 
       0.834502         66.0789         32.9932 
       0.840667         65.5993         32.4673 
       0.846816         64.7712         31.9545 
       0.852925         64.2043         31.4561 
       0.859047         63.3759         30.9675 
       0.865192         63.1593         30.4878 
       0.871341         62.7751         30.0181 
       0.877463         61.5731         29.5605 
       0.883569         61.2304         29.1137 
       0.889708         60.8976          28.674 
       0.895864         60.3183         28.2423 
       0.902008         59.8459         27.8206 
       0.908149         59.3669         27.4078 
       0.914301         59.0018         27.0028 
       0.920448         58.1114         26.6065 
       0.926574         57.8817         26.2197 
       0.932687         57.3248         25.8414 
       0.938823         56.5643         25.4694 
       0.944975          56.418         25.1039 
       0.951105         55.9038         24.7469 
       0.957225          55.254         24.3977 
       0.963368         55.0238          24.054 
       0.969511         54.6621         23.7171 
       0.975621         54.2324         23.3885 
       0.981748         53.5808         23.0653 
       0.987916         53.3619         22.7463 
        0.99406              53         22.4346 
        1.00019         52.2876         22.1295 
        1.00632         52.1417         21.8303 
        1.01246         51.6734         21.5364 
        1.01859         51.1384         21.2484 
        1.02471         51.1666          20.966 
        1.03085         50.6235         20.6879 
        1.03698         50.0073         20.4155 
        1.04314         49.5892         20.1469 
        1.04929          49.416         19.8838 
        1.05541         48.8862         19.6266 
        1.06154         48.7445         19.3733 
        1.06769         48.3446         19.1242 
        1.07382         48.0027         18.8803 
        1.07993         47.8506         18.6412 
        1.08607         47.2922         18.4054 
        1.09222         47.1263         18.1735 
        1.09836         46.6248         17.9458 
        1.10449         46.4524         17.7224 
        1.11063         45.8335         17.5025 
        1.11677         45.7034         17.2866 
         1.1229         45.5667         17.0746 
        1.12903         44.9705         16.8661 
        1.13518         44.7611         16.6609 
        1.14131         44.6935         16.4593 
        1.14745         44.2552         16.2611 
        1.15359          44.052         16.0663 
        1.15973         43.5679         15.8745 
        1.16584         43.2433         15.6868 
        1.17197         43.2848         15.5019 
        1.17811         42.7581         15.3194 
        1.18424          42.414         15.1404 
        1.19038         42.3802         14.9638 
        1.19652         42.0844         14.7901 
        1.20267         41.7955         14.6192 
        1.20881         41.5343         14.4511 
        1.21495         41.2274         14.2859 
        1.22108         40.9618         14.1233 
         1.2272         40.5508         13.9637 
        1.23334          40.426         13.8061 
        1.23949          40.174         13.6507 
        1.24562         40.0564         13.4981 
        1.25174         39.8167         13.3482 
        1.25789          39.597            13.2 
        1.26402         39.3796         13.0544 
        1.27014         39.0112         12.9114 
        1.27628         38.7799         12.7701 
        1.28244          38.622         12.6306 
        1.28858         38.4492         12.4935 
        1.29471         38.1744         12.3587 
        1.30084         37.9572         12.2261 
        1.30697          37.691         12.0952 
        1.31312         37.3897         11.9661 
        1.31925         37.2733         11.8393 
        1.32537         37.1338         11.7145 
        1.33151         36.8403          11.591 
        1.33765         36.7571         11.4694 
        1.34378         36.6081         11.3498 
        1.34992         36.0619         11.2318 
        1.35606         36.0224         11.1153 
         1.3622         35.8268         11.0007 
        1.36833          35.628         10.8879 
        1.37445         35.5723         10.7768 
        1.38059         35.3907          10.667 
        1.38675         35.0489         10.5584 
        1.39288         34.9532         10.4518 
        1.39901         34.6594         10.3467 
        1.40515         34.5172         10.2428 
         1.4113         34.3846         10.1404 
        1.41742          34.043         10.0398 
        1.42355         34.0219         9.94038 
         1.4297         33.7801         9.84203 
        1.43585         33.7194         9.74506 
        1.44198         33.3747         9.64978 
        1.44809         33.3062         9.55596 
        1.45423         33.1558         9.46306 
        1.46036         33.0345         9.37157 
        1.46649         32.8125         9.28127 
        1.47263          32.616         9.19209 
        1.47877         32.4723         9.10414 
        1.48491         32.2918         9.01721 
        1.49104         32.2377         8.93161 
        1.49718         31.9366         8.84706 
        1.50333         31.8368         8.76349 
        1.50947         31.7119         8.68118 
         1.5156         31.4885         8.60005 
        1.52172          31.244         8.51997 
        1.52787         31.2495         8.44076 
          1.534          31.037         8.36266 
        1.54013         30.8146         8.28564 
        1.54627         30.7565         8.20946 
        1.55241         30.5383         8.13423 
        1.55855         30.4322         8.06006 
        1.56467         30.3233         7.98702 
         1.5708         30.1697         7.91469 
        1.57695         29.8842         7.84316 
        1.58308         29.9299         7.77268 
        1.58922         29.7335         7.70302 
        1.59535         29.5302         7.63425 
         1.6015         29.4161         7.56623 
        1.60764          29.357         7.49908 
        1.61376         29.1982         7.43294 
        1.61989         28.9227         7.36755 
        1.62604         28.9117          7.3028 
        1.63218         28.7028         7.23888 
        1.63831         28.6362         7.17587 
        1.64444          28.449          7.1136 
        1.65059          28.321         7.05193 
        1.65673         28.2282         6.99106 
        1.66285         28.0789         6.93108 
        1.66898          27.958          6.8718 
        1.67512         27.8476         6.81309 
        1.68127         27.6345         6.75503 
         1.6874         27.5536         6.69777 
        1.69353         27.5304         6.64122 
        1.69967          27.272         6.58519 
        1.70581         27.1364         6.52984 
        1.71193         26.9952         6.47533 
        1.71806         26.9576         6.42134 
        1.72421         26.8284         6.36786 
        1.73035         26.7453         6.31505 
        1.73649         26.5365         6.26286 
        1.74262         26.4952         6.21131 
        1.74876          26.341          6.1603 
        1.75489         26.2179         6.10998 
        1.76101          26.122         6.06024 
        1.76715          26.061         6.01099 
        1.77329         25.9413         5.96223 
        1.77943         25.7899           5.914 
        1.78557         25.6566         5.86637 
        1.79171         25.5906         5.81926 
        1.79785         25.4549         5.77267 
        1.80399         25.3612          5.7266 
        1.81012         25.2456          5.6811 
        1.81625         25.1305         5.63611 
        1.82239         25.0585         5.59155 
        1.82853         24.8635          5.5475 
        1.83466         24.7926         5.50396 
        1.84078         24.6187         5.46094 
        1.84692         24.5985         5.41832 
        1.85306         24.4404          5.3761 
         1.8592         24.3929          5.3344 
        1.86533         24.2676         5.29318 
        1.87147         24.1624         5.25234 
        1.87761         24.1129         5.21192 
        1.88375         23.9297         5.17197 
        1.88988          23.901         5.13249 
        1.89601         23.7791          5.0934 
        1.90215         23.6546         5.05469 
        1.90829         23.6019         5.01641 
        1.91442         23.4632         4.97852 
        1.92056         23.3866         4.94106 
         1.9267         23.3066         4.90395 
        1.93284         23.1853          4.8672 
        1.93897         23.0877          4.8309 
        1.94509          23.002         4.79505 
        1.95123          22.899         4.75948 
        1.95737         22.7762         4.72424 
        1.96349         22.7087         4.68946 
        1.96964         22.5923         4.65492 
        1.97578          22.532         4.62072 
        1.98192         22.3981         4.58694 
        1.98805         22.3401         4.55349 
        1.99419          22.232         4.52037 
        2.00033         22.1417         4.48757 
        2.00647         22.1009         4.45511 
         2.0126         21.8964         4.42303 
        2.01874         21.8647         4.39121 
        2.02488         21.7656         4.35968 
        2.03101         21.7635         4.32853 
        2.03714         21.6108          4.2977 
        2.04328         21.5088         4.26715 
        2.04941         21.4293         4.23692 
        2.05554         21.4056           4.207 
        2.06167          21.305         4.17734 
        2.06781         21.2008         4.14796 
        2.07396         21.1009         4.11882 
        2.08009         21.0375         4.09002 
        2.08622         20.9511         4.06152 
        2.09237         20.8665         4.03324 
        2.09851         20.7609         4.00523 
        2.10464         20.6998         3.97753 
        2.11077         20.6051         3.95013 
        2.11691         20.5301         3.92293 
        2.12305         20.4282         3.89598 
        2.12918         20.3681         3.86936 
        2.13531         20.2856         3.84298 
        2.14145         20.1959         3.81679 
         2.1476         20.1186         3.79081 
        2.15372         20.0647         3.76521 
        2.15985          19.935         3.73982 
        2.16599         19.9038         3.71459 
        2.17213          19.847         3.68962 
        2.17827         19.7611          3.6649 
         2.1844          19.681         3.64042 
        2.19054         19.5807         3.61616 
        2.19666         19.5199         3.59215 
         2.2028         19.4418         3.56834 
        2.20893         19.3511         3.54474 
        2.21508         19.3105         3.52133 
        2.22122         19.1816         3.49812 
        2.22736         19.1278         3.47517 
        2.23349         19.0488         3.45244 
        2.23962         19.0061         3.42989 
        2.24577         18.9015         3.40753 
         2.2519         18.8553          3.3854 
        2.25802         18.7795         3.36351 
        2.26417         18.7082         3.34174 
        2.27031         18.6483         3.32015 
        2.27644         18.5828         3.29882 
        2.28257         18.5041         3.27768 
        2.28872         18.4166         3.25668 
        2.29486         18.3882         3.23587 
        2.30099         18.2982         3.21529 
        2.30712         18.2423         3.19488 
        2.31326         18.1687         3.17461 
         2.3194         18.0421         3.15453 
        2.32553         18.0292         3.13466 
        2.33166         17.9216         3.11497 
         2.3378         17.8757         3.09542 
        2.34394         17.7869         3.07604 
        2.35007         17.7033         3.05685 
        2.35619         17.6734         3.03784 
        2.36233         17.5954         3.01896 
        2.36848         17.5734          3.0002 
        2.37462         17.4996         2.98164 
        2.38075         17.4169         2.96325 
        2.38689         17.3591         2.94501 
        2.39303         17.3017         2.92692 
        2.39916         17.2171           2.909 
        2.40529         17.1788         2.89124 
        2.41143         17.0972         2.87361 
        2.41757         17.0546         2.85613 
         2.4237         16.9495         2.83882 
        2.42983         16.9202         2.82165 
        2.43598         16.8461         2.80459 
        2.44211         16.7569         2.78769 
        2.44823         16.7131         2.77098 
        2.45437          16.678         2.75435 
        2.46052         16.6362         2.73785 
        2.46665         16.5378         2.72151 
        2.47279         16.4973         2.70531 
        2.47892         16.4178         2.68924 
        2.48507         16.3658         2.67328 
         2.4912         16.3262         2.65748 
