# k  (h/Mpc)    P(k)  (Mpc/h)^3    P_linear(k)  (Mpc/h)^3
     0.00783031         21584.7         21907.5 
       0.013688         26070.5         25765.3 
       0.019231         25202.4         25138.4 
      0.0249154         21973.9         22517.7 
      0.0312784           18738         18986.5 
      0.0375637         15932.6         15929.2 
      0.0433917         13539.3           13813 
      0.0492413         12235.3         12338.7 
      0.0555754           10834         11235.7 
      0.0619321         10356.5         10350.7 
       0.067871         9224.55         9523.11 
      0.0738098         8374.51         8616.52 
      0.0800417          7339.4         7612.38 
      0.0862327         6553.58         6659.23 
      0.0921407         5949.76         5880.54 
      0.0982031         5307.26          5261.8 
       0.104506         5019.88         4806.98 
       0.110769         4669.94         4496.32 
       0.116806         4419.66         4265.31 
       0.122832         4188.16         4043.29 
       0.129052         3844.58         3785.44 
       0.135211         3595.97         3494.63 
       0.141259         3408.83         3193.72 
       0.147318         3186.58         2906.49 
       0.153489         2909.85         2654.46 
       0.159709         2756.06         2454.65 
       0.165845         2666.13         2308.04 
       0.171974         2535.69         2197.75 
       0.178125         2415.07         2104.63 
       0.184229         2299.05         2012.96 
        0.19034         2180.46         1912.12 
       0.196428         2119.21         1801.39 
       0.202534         2024.13         1685.71 
       0.208729         1927.73         1572.58 
       0.214876         1855.21         1472.42 
       0.220989         1787.86         1388.81 
       0.227147         1721.05         1320.44 
        0.23329         1654.21         1264.33 
       0.239377         1629.17         1215.39 
       0.245482         1530.39         1167.99 
       0.251667         1520.37          1118.5 
       0.257832          1456.8         1066.91 
       0.263955         1405.87          1014.7 
       0.270079         1357.19         963.926 
        0.27624         1338.73         916.593 
       0.282372         1284.66         874.639 
        0.28843            1280          838.43 
       0.294538         1216.51         806.304 
       0.300721          1206.9         776.838 
        0.30691         1163.72         748.825 
       0.313033         1138.78         721.528 
       0.319153         1121.69         694.173 
       0.325316         1085.01         666.791 
        0.33145         1061.33         640.227 
       0.337538         1038.76         615.205 
       0.343633         1019.35         591.938 
       0.349808         984.825         570.341 
       0.355968         976.914         550.602 
       0.362074         968.769         532.425 
       0.368217         936.357          515.11 
       0.374374         903.862         498.332 
       0.380519         905.899         481.977 
       0.386598         877.653         466.149 
       0.392688          873.83         450.733 
        0.39888         848.852         435.686 
       0.405048         840.199         421.459 
       0.411186         828.076         408.107 
       0.417313         810.595          395.58 
       0.423458          794.84         383.705 
       0.429607         787.252         372.382 
       0.435692         770.123         361.623 
       0.441815         762.061          351.15 
       0.447964          747.99         340.939 
       0.454126         742.756         331.034 
       0.460267         723.157         321.515 
       0.466387         713.614         312.401 
        0.47254         712.985         303.629 
       0.478662         702.378           295.3 
       0.484765           682.2         287.362 
       0.490885         677.867         279.724 
       0.497035         663.968         272.334 
       0.503198         659.752         265.192 
       0.509342         653.208         258.307 
       0.515458          649.46         251.669 
       0.521598         632.713         245.221 
       0.527764         623.414         238.971 
       0.533884         619.462         232.992 
           0.54         614.125         227.238 
       0.546137         607.155         221.671 
       0.552299         600.395         216.279 
       0.558452         594.517         211.083 
       0.564573         588.403         206.086 
       0.570708         580.968         201.239 
       0.576825         567.371         196.555 
       0.582926         568.984         192.027 
       0.589034         562.489         187.633 
       0.595184         557.708         183.349 
       0.601379         549.483         179.174 
       0.607522         541.822         175.167 
       0.613639         540.347         171.303 
       0.619772         531.805         167.549 
       0.625918         527.732         163.901 
       0.632068          520.64         160.359 
       0.638161         517.772         156.953 
         0.6443         510.521         153.623 
       0.650464         508.435         150.377 
       0.656582         502.142         147.248 
       0.662703         501.312         144.208 
       0.668861         493.816         141.238 
       0.675024         489.415         138.349 
       0.681124         485.597         135.572 
       0.687237         482.421         132.865 
       0.693381         475.332         130.221 
       0.699536         467.959         127.644 
       0.705665          467.37         125.149 
       0.711789         465.136         122.724 
       0.717957         460.974         120.346 
        0.72409         458.768         118.045 
       0.730186         452.249         115.819 
       0.736317         449.462         113.638 
       0.742472         445.935         111.506 
       0.748622         441.693          109.43 
        0.75476         435.309         107.412 
       0.760888          431.79         105.449 
       0.767043         431.413         103.527 
       0.773185         427.697         101.657 
       0.779291         422.964         99.8439 
       0.785407         420.084         98.0729 
       0.791564         416.033         96.3339 
       0.797719         414.481         94.6382 
       0.803834         408.485         92.9943 
       0.809972         408.161         91.3838 
       0.816124         406.594         89.8081 
       0.822261         401.515          88.274 
       0.828378         399.052         86.7805 
       0.834502         394.393         85.3205 
       0.840667         391.791         83.8848 
       0.846816         390.216         82.4864 
       0.852925         387.726         81.1288 
       0.859047         385.205         79.7991 
       0.865192          380.47         78.4949 
       0.871341         377.435         77.2191 
       0.877463          377.48         75.9776 
       0.883569         373.452         74.7666 
       0.889708         371.287          73.576 
       0.895864         370.919         72.4084 
       0.902008         367.174         71.2687 
       0.908149         361.876         70.1543 
       0.914301         360.537          69.062 
       0.920448         358.826         67.9941 
       0.926574         353.847         66.9526 
       0.932687         352.828         65.9353 
       0.938823         349.621         64.9355 
       0.944975         349.609         63.9543 
       0.951105         346.146          62.997 
       0.957225         343.838         62.0609 
       0.963368         339.587         61.1408 
       0.969511         338.824         60.2394 
       0.975621         337.259         59.3611 
       0.981748         334.521         58.4981 
       0.987916         332.951         57.6469 
        0.99406         328.819         56.8158 
        1.00019         326.748         56.0029 
        1.00632         325.695         55.2066 
        1.01246         322.932         54.4247 
        1.01859         322.519         53.6593 
        1.02471         318.361         52.9096 
        1.03085         317.279         52.1716 
        1.03698         315.196         51.4493 
        1.04314         313.337         50.7377 
        1.04929         310.416         50.0412 
        1.05541         310.667         49.3606 
        1.06154         305.845          48.691 
        1.06769         305.226         48.0328 
        1.07382          302.55          47.389 
        1.07993         301.363         46.7585 
        1.08607         300.481         46.1369 
        1.09222         296.793          45.526 
        1.09836         294.731         44.9269 
        1.10449         293.148         44.3393 
        1.11063         289.818         43.7616 
        1.11677         290.365         43.1944 
         1.1229         287.472         42.6383 
        1.12903         286.148         42.0916 
        1.13518         283.487          41.554 
        1.14131         282.125         41.0261 
        1.14745         280.867         40.5076 
        1.15359         278.968         39.9981 
        1.15973         277.298         39.4972 
        1.16584         274.965         39.0071 
        1.17197          274.91         38.5246 
        1.17811         271.828         38.0489 
        1.18424         269.878         37.5826 
        1.19038         269.049         37.1227 
        1.19652         266.807         36.6708 
        1.20267         266.604         36.2264 
        1.20881         263.906         35.7895 
        1.21495         262.381         35.3604 
        1.22108         260.614         34.9385 
         1.2272         259.182         34.5245 
        1.23334         258.553         34.1162 
        1.23949         255.255         33.7136 
        1.24562         254.434         33.3186 
        1.25174          253.59         32.9306 
        1.25789         251.427         32.5475 
        1.26402         249.583         32.1713 
        1.27014         248.236         31.8019 
        1.27628         246.095         31.4372 
        1.28244         246.333         31.0775 
        1.28858         244.084         30.7239 
        1.29471         243.323         30.3767 
        1.30084         240.688         30.0351 
        1.30697         240.146         29.6982 
        1.31312         237.686         29.3661 
        1.31925         236.219           29.04 
        1.32537         235.992         28.7193 
        1.33151         233.725         28.4022 
        1.33765         231.789         28.0901 
        1.34378         231.444         27.7834 
        1.34992         230.236          27.481 
        1.35606         229.153         27.1824 
         1.3622          226.58         26.8889 
        1.36833         225.895         26.6003 
        1.37445         224.234         26.3162 
        1.38059         222.887         26.0353 
        1.38675         221.944         25.7579 
        1.39288         220.788         25.4857 
        1.39901         219.025         25.2175 
        1.40515         218.345         24.9525 
         1.4113         216.774         24.6915 
        1.41742          215.25         24.4352 
        1.42355         214.109         24.1821 
         1.4297          212.71         23.9318 
        1.43585         211.442         23.6851 
        1.44198         211.333         23.4429 
        1.44809         209.334         23.2045 
        1.45423         208.172         22.9686 
        1.46036         206.909         22.7363 
        1.46649         205.936         22.5072 
        1.47263          204.89         22.2811 
        1.47877         203.368         22.0582 
        1.48491         201.423         21.8379 
        1.49104         201.048         21.6212 
        1.49718         199.245         21.4072 
        1.50333         198.788         21.1957 
        1.50947         197.232         20.9876 
         1.5156         195.989         20.7825 
        1.52172          195.33         20.5802 
        1.52787         193.555         20.3802 
          1.534         193.213         20.1831 
        1.54013         191.497         19.9888 
        1.54627         190.696         19.7967 
        1.55241           189.5         19.6071 
        1.55855         187.767         19.4202 
        1.56467         187.449         19.2363 
         1.5708         186.149         19.0542 
        1.57695          185.46         18.8743 
        1.58308         183.993         18.6971 
        1.58922         182.893          18.522 
        1.59535         181.704         18.3492 
         1.6015         180.537         18.1784 
        1.60764         180.086         18.0099 
        1.61376         178.999         17.8439 
        1.61989         177.994           17.68 
        1.62604         176.739         17.5177 
        1.63218         176.071         17.3575 
        1.63831         174.453         17.1997 
        1.64444         173.808         17.0438 
        1.65059         172.928         16.8895 
        1.65673         172.064         16.7373 
        1.66285         170.608         16.5874 
        1.66898          170.11         16.4392 
        1.67512         168.925         16.2926 
        1.68127         167.729         16.1476 
         1.6874         167.268         16.0047 
        1.69353         165.971         15.8637 
        1.69967         164.881         15.7239 
        1.70581         164.067          15.586 
        1.71193         162.781         15.4502 
        1.71806         162.413         15.3157 
        1.72421         161.307         15.1826 
        1.73035         160.767         15.0512 
        1.73649         159.601         14.9214 
        1.74262         158.819         14.7932 
        1.74876         157.407         14.6664 
        1.75489          156.93         14.5414 
        1.76101         155.635         14.4179 
        1.76715          155.27         14.2956 
        1.77329         154.068         14.1746 
        1.77943         153.538         14.0549 
        1.78557         152.604         13.9369 
        1.79171         151.722         13.8201 
        1.79785         150.696         13.7046 
        1.80399         150.037         13.5905 
        1.81012         149.326         13.4779 
        1.81625         148.542         13.3666 
        1.82239         147.466         13.2563 
        1.82853         146.695         13.1474 
        1.83466         146.124         13.0398 
        1.84078          145.13         12.9335 
        1.84692         144.039         12.8282 
        1.85306          143.91          12.724 
         1.8592         142.809         12.6211 
        1.86533         142.428         12.5193 
        1.87147         141.187         12.4186 
        1.87761         140.318          12.319 
        1.88375         139.683         12.2205 
        1.88988         138.348         12.1232 
        1.89601         138.161          12.027 
        1.90215         137.556         11.9317 
        1.90829         136.316         11.8375 
        1.91442         135.965         11.7443 
        1.92056         134.974         11.6521 
         1.9267         134.202         11.5609 
        1.93284         133.371         11.4706 
        1.93897         132.831         11.3814 
        1.94509         132.339         11.2934 
        1.95123         131.548         11.2061 
        1.95737         130.695         11.1196 
        1.96349         130.206         11.0343 
        1.96964         129.188         10.9496 
        1.97578         128.313         10.8658 
        1.98192         127.721          10.783 
        1.98805         127.261          10.701 
        1.99419         126.355           10.62 
        2.00033         125.793         10.5397 
        2.00647         125.152         10.4602 
         2.0126         124.295         10.3817 
        2.01874         123.827         10.3039 
        2.02488         123.478         10.2268 
        2.03101         122.238         10.1507 
        2.03714         121.826         10.0754 
        2.04328         121.023         10.0008 
        2.04941         120.558         9.92696 
        2.05554         119.642         9.85395 
        2.06167         119.147         9.78157 
        2.06781         118.259         9.70991 
        2.07396         118.071         9.63886 
        2.08009         117.083         9.56864 
        2.08622         116.282         9.49921 
        2.09237         115.882         9.43033 
        2.09851         115.228         9.36211 
        2.10464         114.782         9.29469 
        2.11077         114.103         9.22801 
        2.11691         113.459         9.16183 
        2.12305          113.07          9.0963 
        2.12918         112.436         9.03157 
        2.13531         111.596         8.96746 
        2.14145         111.036         8.90382 
         2.1476          110.37         8.84072 
        2.15372         110.011         8.77856 
        2.15985         109.196         8.71692 
        2.16599         108.699          8.6557 
        2.17213         108.297         8.59514 
        2.17827         107.442         8.53517 
         2.1844         106.856         8.47582 
        2.19054          106.59         8.41702 
        2.19666         105.874         8.35885 
         2.2028          105.24         8.30119 
        2.20893         104.795         8.24403 
        2.21508         104.116         8.18736 
        2.22122         103.632         8.13119 
        2.22736         103.115         8.07567 
        2.23349         102.711         8.02068 
        2.23962         102.158         7.96617 
        2.24577         101.436         7.91212 
         2.2519         100.984         7.85865 
        2.25802         100.269         7.80575 
        2.26417         100.015          7.7532 
        2.27031         99.3016         7.70107 
        2.27644          98.854         7.64958 
        2.28257         98.5025         7.59856 
        2.28872         97.7378         7.54791 
        2.29486         97.3019         7.49773 
        2.30099         96.7648         7.44811 
        2.30712          96.262         7.39892 
        2.31326         95.7787         7.35008 
         2.3194          95.161         7.30171 
        2.32553         94.7061         7.25386 
        2.33166          94.097         7.20646 
         2.3378         93.8172         7.15941 
        2.34394         93.2766         7.11277 
        2.35007         92.8413         7.06661 
        2.35619         92.3263         7.02091 
        2.36233          91.893         6.97551 
        2.36848         91.3074         6.93042 
        2.37462         90.9857         6.88582 
        2.38075         90.3948         6.84166 
        2.38689         89.9446         6.79784 
        2.39303         89.3987         6.75442 
        2.39916         88.9961         6.71141 
        2.40529         88.7534         6.66879 
        2.41143         88.1679         6.62651 
        2.41757         87.6757         6.58457 
         2.4237          87.292         6.54307 
        2.42983         86.8233         6.50193 
        2.43598         86.2433         6.46104 
        2.44211         85.8681         6.42057 
        2.44823         85.3821         6.38053 
        2.45437          85.051         6.34072 
        2.46052         84.5596         6.30122 
        2.46665          84.197         6.26212 
        2.47279         83.6958         6.22337 
        2.47892         83.3039         6.18492 
        2.48507         82.9418         6.14676 
         2.4912         82.5483         6.10899 
