# k  (h/Mpc)    P(k)  (Mpc/h)^3    P_linear(k)  (Mpc/h)^3
     0.00783031         3260.83         3308.46 
       0.013688         3771.81         3774.54 
       0.019231          3543.1         3541.61 
      0.0249154         2994.75         3017.93 
      0.0312784         2384.98         2385.47 
      0.0375637         1888.62         1878.46 
      0.0433917         1554.86         1555.84 
      0.0492413         1360.93         1356.56 
      0.0555754         1225.84         1234.36 
      0.0619321         1163.64         1155.22 
       0.067871         1074.61         1080.76 
      0.0738098         980.417         985.777 
      0.0800417         857.326         864.354 
      0.0862327         737.476         737.544 
      0.0921407          633.42         628.836 
      0.0982031         544.347         542.061 
       0.104506         491.347         481.896 
       0.110769         455.392         447.696 
       0.116806         433.579         429.861 
       0.122832         421.821         416.872 
       0.129052         400.223         399.778 
       0.135211         375.552         374.604 
       0.141259         346.963         342.465 
       0.147318         313.988         307.097 
       0.153489         279.206         273.173 
       0.159709         253.035         245.302 
       0.165845         235.699         225.675 
       0.171974         220.609         213.193 
       0.178125          213.19         205.563 
       0.184229         207.211         199.968 
        0.19034         197.394         193.737 
       0.196428         191.209         185.319 
       0.202534         182.427         174.428 
       0.208729         169.075         161.822 
       0.214876         156.168         149.285 
       0.220989         146.752         138.177 
       0.227147         136.899         129.188 
        0.23329         130.193         122.545 
       0.239377         126.138         117.796 
       0.245482           119.9         114.094 
       0.251667         117.933         110.592 
       0.257832         113.907           106.7 
       0.263955         109.249         102.177 
       0.270079         104.146         97.0993 
        0.27624         100.256         91.7849 
       0.282372         95.5159         86.7282 
        0.28843         90.5966         82.2842 
       0.294538         86.5437         78.5244 
       0.300721         84.3707         75.4189 
        0.30691         80.6998         72.8347 
       0.313033         78.3843         70.5508 
       0.319153         74.9419         68.3138 
       0.325316         73.6684         65.9589 
        0.33145         70.6681          63.475 
       0.337538         68.6363         60.9239 
       0.343633         65.8166         58.3939 
       0.349808         63.6187          55.966 
       0.355968         61.6625         53.7689 
       0.362074         59.5495         51.8323 
       0.368217         57.6853         50.1112 
       0.374374         55.9388         48.5496 
       0.380519           54.59          47.083 
       0.386598         53.1034         45.6673 
       0.392688         51.9361         44.2431 
        0.39888         50.3126         42.7883 
       0.405048         48.9301         41.3499 
       0.411186         47.6419         39.9567 
       0.417313         46.0932         38.6365 
       0.423458         44.8323         37.4018 
       0.429607         43.6338         36.2556 
       0.435692         42.1743         35.2048 
       0.441815         41.4816         34.2107 
       0.447964           40.73         33.2543 
       0.454126         39.0312         32.3229 
       0.460267           38.42         31.4143 
       0.466387         37.3117         30.5237 
        0.47254         36.6392          29.649 
       0.478662         36.0195         28.8084 
       0.484765         34.8368         28.0066 
       0.490885         34.0538         27.2404 
       0.497035         33.6246         26.5094 
       0.503198         32.6594         25.8144 
       0.509342          31.816          25.152 
       0.515458         31.1622         24.5161 
       0.521598         30.6097         23.8963 
       0.527764         29.9503         23.2914 
       0.533884         29.4654         22.7078 
           0.54         28.7403         22.1412 
       0.546137         28.3173         21.5904 
       0.552299         27.8308         21.0568 
       0.558452         26.9728         20.5452 
       0.564573         26.5291         20.0564 
       0.570708         26.0917         19.5848 
       0.576825         25.4953         19.1308 
       0.582926         24.9468         18.6923 
       0.589034         24.3442         18.2666 
       0.595184         24.0244         17.8507 
       0.601379         23.5394         17.4442 
       0.607522          23.081         17.0529 
       0.613639         22.8507         16.6746 
       0.619772         22.2565         16.3069 
       0.625918         22.1079         15.9501 
       0.632068          21.755         15.6046 
       0.638161          21.288         15.2734 
         0.6443         20.8725           14.95 
       0.650464         20.4886          14.635 
       0.656582          20.346         14.3313 
       0.662703         19.9494         14.0357 
       0.668861         19.5667         13.7465 
       0.675024         19.2247         13.4651 
       0.681124         18.8883         13.1944 
       0.687237          18.568         12.9307 
       0.693381         18.3998         12.6733 
       0.699536         17.9167         12.4227 
       0.705665         17.8633         12.1802 
       0.711789         17.4455         11.9444 
       0.717957         17.1945         11.7134 
        0.72409         16.9469         11.4898 
       0.730186         16.7006         11.2734 
       0.736317          16.516         11.0613 
       0.742472         16.2266          10.854 
       0.748622         16.0561         10.6522 
        0.75476         15.7722          10.456 
       0.760888         15.5209         10.2651 
       0.767043         15.3193         10.0783 
       0.773185         15.0597         9.89667 
       0.779291          14.973          9.7206 
       0.785407         14.8001         9.54862 
       0.791564         14.5358         9.37978 
       0.797719         14.1895         9.21515 
       0.803834         14.1766         9.05554 
       0.809972         14.0286         8.89917 
       0.816124         13.7275         8.74618 
       0.822261         13.5588         8.59721 
       0.828378         13.4268         8.45219 
       0.834502         13.3025         8.31042 
       0.840667         13.0987         8.17101 
       0.846816         12.8567         8.03522 
       0.852925         12.7332          7.9034 
       0.859047          12.592         7.77429 
       0.865192         12.4696         7.64767 
       0.871341         12.3608         7.52382 
       0.877463          12.145         7.40329 
       0.883569         11.9891         7.28573 
       0.889708         11.7998         7.17015 
       0.895864         11.6822          7.0568 
       0.902008         11.5996         6.94616 
       0.908149         11.4716         6.83797 
       0.914301         11.3937         6.73193 
       0.920448         11.1883         6.62826 
       0.926574         11.0716         6.52714 
       0.932687         10.9395         6.42837 
       0.938823         10.8023          6.3313 
       0.944975         10.6838         6.23603 
       0.951105          10.569         6.14308 
       0.957225         10.4792          6.0522 
       0.963368         10.3921         5.96287 
       0.969511         10.2779         5.87535 
       0.975621         10.1781         5.79008 
       0.981748         10.0312         5.70629 
       0.987916         9.97627         5.62365 
        0.99406         9.82678         5.54297 
        1.00019         9.69021         5.46405 
        1.00632         9.65466         5.38675 
        1.01246         9.56514         5.31084 
        1.01859         9.39995         5.23653 
        1.02471         9.36419         5.16375 
        1.03085         9.26183         5.09211 
        1.03698         9.11726           5.022 
        1.04314         9.06541         4.95292 
        1.04929         8.95519         4.88531 
        1.05541         8.85323         4.81924 
        1.06154         8.79536         4.75424 
        1.06769         8.75279         4.69035 
        1.07382         8.62373         4.62786 
        1.07993         8.54888         4.56665 
        1.08607         8.47313         4.50631 
        1.09222         8.40661           4.447 
        1.09836         8.30256         4.38884 
        1.10449         8.24071         4.33179 
        1.11063         8.14056          4.2757 
        1.11677         8.10651         4.22063 
         1.1229           8.052         4.16663 
        1.12903         7.94173         4.11353 
        1.13518         7.84481         4.06131 
        1.14131         7.81226         4.01004 
        1.14745         7.73388         3.95969 
        1.15359         7.68132          3.9102 
        1.15973          7.5973         3.86153 
        1.16584         7.49647         3.81392 
        1.17197         7.45442         3.76706 
        1.17811         7.41222         3.72083 
        1.18424         7.34069         3.67553 
        1.19038         7.30819         3.63085 
        1.19652         7.22359         3.58694 
        1.20267         7.15841         3.54376 
        1.20881         7.12905          3.5013 
        1.21495         7.06864         3.45961 
        1.22108         6.98081         3.41861 
         1.2272         6.93064         3.37837 
        1.23334         6.86859          3.3387 
        1.23949         6.80336         3.29957 
        1.24562         6.77294         3.26119 
        1.25174         6.71975         3.22347 
        1.25789         6.66375         3.18624 
        1.26402         6.63214         3.14967 
        1.27014         6.57087         3.11377 
        1.27628         6.49503         3.07832 
        1.28244         6.43867         3.04336 
        1.28858         6.43513           3.009 
        1.29471         6.35752         2.97524 
        1.30084         6.29354         2.94204 
        1.30697         6.28017         2.90929 
        1.31312         6.19183           2.877 
        1.31925         6.14205         2.84531 
        1.32537         6.11302         2.81413 
        1.33151         6.08385          2.7833 
        1.33765         6.02327         2.75296 
        1.34378         5.98198         2.72313 
        1.34992         5.93208         2.69373 
        1.35606          5.8951          2.6647 
         1.3622         5.86296         2.63615 
        1.36833         5.79608         2.60809 
        1.37445         5.76886         2.58045 
        1.38059          5.7426         2.55313 
        1.38675         5.68791         2.52614 
        1.39288         5.66777         2.49966 
        1.39901          5.6001         2.47356 
        1.40515         5.57626         2.44778 
         1.4113         5.53481         2.42238 
        1.41742         5.49157         2.39744 
        1.42355         5.44543          2.3728 
         1.4297         5.42708         2.34844 
        1.43585         5.39368         2.32443 
        1.44198         5.36545         2.30085 
        1.44809         5.31981         2.27765 
        1.45423         5.27926         2.25468 
        1.46036         5.23682         2.23207 
        1.46649         5.21599         2.20976 
        1.47263          5.1661         2.18774 
        1.47877         5.13256         2.16604 
        1.48491         5.10783         2.14459 
        1.49104         5.07419         2.12349 
        1.49718         5.04323         2.10265 
        1.50333         5.01348         2.08206 
        1.50947         4.96848         2.06179 
         1.5156         4.94682         2.04183 
        1.52172         4.92318         2.02212 
        1.52787         4.88513         2.00265 
          1.534         4.84673         1.98345 
        1.54013         4.82205         1.96452 
        1.54627         4.78541         1.94581 
        1.55241         4.75662         1.92734 
        1.55855         4.73745         1.90914 
        1.56467         4.70052         1.89122 
         1.5708         4.68319         1.87349 
        1.57695         4.64621         1.85595 
        1.58308         4.60433         1.83869 
        1.58922         4.59616         1.82163 
        1.59535         4.57335         1.80479 
         1.6015         4.52851         1.78814 
        1.60764         4.49772         1.77171 
        1.61376         4.48461         1.75554 
        1.61989         4.45411         1.73955 
        1.62604         4.43046         1.72373 
        1.63218         4.41808         1.70812 
        1.63831         4.37669         1.69273 
        1.64444         4.35814         1.67753 
        1.65059         4.31246         1.66248 
        1.65673         4.31748         1.64764 
        1.66285         4.27152         1.63301 
        1.66898          4.2489         1.61856 
        1.67512         4.23143         1.60426 
        1.68127         4.20394         1.59012 
         1.6874         4.18426         1.57618 
        1.69353         4.14617         1.56242 
        1.69967         4.14035         1.54879 
        1.70581         4.11946         1.53533 
        1.71193         4.08481         1.52208 
        1.71806          4.0694         1.50896 
        1.72421         4.04581         1.49597 
        1.73035         4.02761         1.48314 
        1.73649         4.00485         1.47048 
        1.74262         3.97803         1.45796 
        1.74876         3.96719         1.44559 
        1.75489         3.94039         1.43339 
        1.76101         3.91504         1.42133 
        1.76715          3.9002          1.4094 
        1.77329         3.87382         1.39759 
        1.77943           3.848         1.38591 
        1.78557         3.83708         1.37438 
        1.79171         3.81672         1.36298 
        1.79785         3.79321          1.3517 
        1.80399         3.77609         1.34056 
        1.81012           3.754         1.32956 
        1.81625         3.73728         1.31869 
        1.82239          3.7211         1.30792 
        1.82853         3.69417         1.29728 
        1.83466         3.67744         1.28677 
        1.84078         3.66446         1.27639 
        1.84692         3.65148          1.2661 
        1.85306         3.62478         1.25592 
         1.8592          3.6017         1.24586 
        1.86533         3.58647         1.23592 
        1.87147         3.56915         1.22608 
        1.87761         3.55303         1.21634 
        1.88375          3.5283         1.20672 
        1.88988         3.52028         1.19721 
        1.89601         3.49917          1.1878 
        1.90215         3.47929         1.17849 
        1.90829         3.46165         1.16928 
        1.91442         3.44622         1.16016 
        1.92056         3.43494         1.15116 
         1.9267         3.41112         1.14224 
        1.93284          3.3956         1.13341 
        1.93897         3.37687         1.12469 
        1.94509          3.3703         1.11608 
        1.95123         3.35165         1.10754 
        1.95737         3.32713         1.09908 
        1.96349         3.31996         1.09073 
        1.96964         3.30393         1.08245 
        1.97578         3.28122         1.07425 
        1.98192         3.27384         1.06615 
        1.98805         3.25639         1.05813 
        1.99419         3.23692          1.0502 
        2.00033         3.23089         1.04234 
        2.00647         3.20973         1.03457 
         2.0126         3.20128         1.02689 
        2.01874          3.1809         1.01927 
        2.02488         3.16893         1.01173 
        2.03101         3.15155         1.00428 
        2.03714         3.13131        0.996909 
        2.04328         3.12121        0.989604 
        2.04941         3.10273        0.982379 
        2.05554         3.09471        0.975232 
        2.06167         3.07609        0.968146 
        2.06781         3.06903         0.96113 
        2.07396         3.05887        0.954174 
        2.08009          3.0426        0.947299 
        2.08622         3.02595          0.9405 
        2.09237          3.0078        0.933754 
        2.09851         3.00526        0.927073 
        2.10464         2.99136         0.92047 
        2.11077            2.97        0.913938 
        2.11691          2.9568        0.907456 
        2.12305         2.94973        0.901036 
        2.12918         2.94057        0.894694 
        2.13531         2.92708        0.888413 
        2.14145         2.91165        0.882178 
         2.1476          2.8977        0.875995 
        2.15372          2.8827        0.869903 
        2.15985         2.88385        0.863863 
        2.16599         2.85852        0.857863 
        2.17213          2.8474        0.851926 
        2.17827         2.84191        0.846048 
         2.1844         2.82902         0.84023 
        2.19054         2.81023        0.834465 
        2.19666         2.80047        0.828763 
         2.2028         2.78943        0.823109 
        2.20893         2.77835        0.817505 
        2.21508          2.7673        0.811948 
        2.22122          2.7525         0.80644 
        2.22736         2.74292        0.800995 
        2.23349         2.73607        0.795602 
        2.23962         2.72165        0.790255 
        2.24577         2.71404        0.784954 
         2.2519         2.70712        0.779708 
        2.25802         2.69073        0.774519 
        2.26417         2.68295        0.769363 
        2.27031         2.66944        0.764249 
        2.27644         2.65438        0.759197 
        2.28257         2.63908        0.754191 
        2.28872         2.64128         0.74922 
        2.29486         2.62657        0.744296 
        2.30099         2.61331        0.739426 
        2.30712          2.6032        0.734597 
        2.31326         2.59058        0.729804 
         2.3194         2.58212        0.725056 
        2.32553         2.57775        0.720359 
        2.33166         2.56688        0.715705 
         2.3378         2.55419        0.711086 
        2.34394         2.54451        0.706507 
        2.35007         2.53337        0.701975 
        2.35619         2.52618        0.697488 
        2.36233         2.51463         0.69303 
        2.36848         2.50391        0.688601 
        2.37462         2.50022        0.684221 
        2.38075         2.48623        0.679884 
        2.38689         2.48201         0.67558 
        2.39303         2.46594        0.671315 
        2.39916         2.45852         0.66709 
        2.40529         2.44996        0.662903 
        2.41143         2.44048        0.658749 
        2.41757         2.43651        0.654629 
         2.4237         2.42463        0.650551 
        2.42983         2.41183        0.646509 
        2.43598         2.40233         0.64249 
        2.44211         2.39335        0.638513 
        2.44823         2.38623        0.634578 
        2.45437          2.3771        0.630665 
        2.46052         2.37146        0.626782 
        2.46665         2.36242        0.622939 
        2.47279         2.34915        0.619129 
        2.47892         2.34247        0.615349 
        2.48507         2.33624        0.611597 
         2.4912         2.32321        0.607884 
