# k  (h/Mpc)    P(k)  (Mpc/h)^3    P_linear(k)  (Mpc/h)^3
     0.00783031         20634.1         21059.3 
       0.013688         24604.7         24401.5 
       0.019231         23146.3         23094.1 
      0.0249154         19322.7         19757.3 
      0.0312784         15461.2         15599.1 
      0.0375637         12298.9         12210.3 
      0.0433917          9947.6         10037.2 
      0.0492413         8723.85         8698.53 
      0.0555754         7719.55         7902.09 
      0.0619321         7503.36         7427.01 
       0.067871         6847.56         7000.97 
      0.0738098         6305.58         6438.53 
      0.0800417         5529.05         5681.45 
      0.0862327          4822.9         4854.94 
      0.0921407         4229.04         4121.61 
      0.0982031         3622.61          3520.2 
       0.104506         3317.15         3094.87 
       0.110769         3051.39          2853.5 
       0.116806          2909.2         2737.51 
       0.122832         2808.59         2669.72 
       0.129052         2636.78         2586.01 
       0.135211         2500.63         2448.72 
       0.141259         2369.91          2255.4 
       0.147318         2187.92          2026.8 
       0.153489         1960.02         1795.32 
       0.159709         1813.34         1597.05 
       0.165845         1714.13         1453.46 
       0.171974         1619.62         1362.16 
       0.178125         1544.83         1310.63 
       0.184229         1482.37         1280.22 
        0.19034         1410.46         1250.76 
       0.196428         1380.02         1207.78 
       0.202534         1325.79         1145.27 
       0.208729         1252.13         1065.76 
       0.214876         1188.95         980.952 
       0.220989          1134.7         901.967 
       0.227147         1082.84         836.042 
        0.23329         1033.56         787.187 
       0.239377         1012.18         754.016 
       0.245482         947.434         731.206 
       0.251667         943.014         712.385 
       0.257832         904.598         692.157 
       0.263955         874.057         667.051 
       0.270079         839.103         636.236 
        0.27624         826.976         601.514 
       0.282372         792.702         566.467 
        0.28843          778.84         534.587 
       0.294538         737.303         507.308 
       0.300721          731.19         485.317 
        0.30691         701.847         468.215 
       0.313033          687.09         454.366 
       0.319153         669.757         441.649 
       0.325316         650.106         428.285 
        0.33145         632.333         413.574 
       0.337538         619.568         397.536 
       0.343633         603.777         380.747 
       0.349808         580.738         364.014 
       0.355968          575.77         348.511 
       0.362074         568.649          334.98 
       0.368217         550.688         323.241 
       0.374374         527.862         313.136 
       0.380519         526.706         304.104 
       0.386598         510.982         295.589 
       0.392688          507.88         287.055 
        0.39888         492.732         278.058 
       0.405048         484.605         268.838 
       0.411186         477.161         259.626 
       0.417313         467.302         250.662 
       0.423458         456.393         242.204 
       0.429607         451.099         234.455 
       0.435692         439.577         227.462 
       0.441815         434.601          221.04 
       0.447964         425.437         215.035 
       0.454126         419.245          209.25 
       0.460267         409.369         203.567 
       0.466387         403.756         197.945 
        0.47254         399.505         192.311 
       0.478662         395.809         186.774 
       0.484765         381.564         181.425 
       0.490885         378.216          176.32 
       0.497035         370.799         171.477 
       0.503198         367.126         166.905 
       0.509342         364.575         162.616 
       0.515458         360.255         158.561 
       0.521598         349.982         154.638 
       0.527764         346.041         150.787 
       0.533884         342.544         147.036 
           0.54         337.882         143.369 
       0.546137         335.961         139.782 
       0.552299         329.955         136.285 
       0.558452         327.649         132.916 
       0.564573         323.213           129.7 
       0.570708         317.403         126.622 
       0.576825         311.152         123.688 
       0.582926          309.33         120.872 
       0.589034         305.885          118.14 
       0.595184          303.91         115.462 
       0.601379         297.636         112.833 
       0.607522         294.386         110.297 
       0.613639         292.525         107.843 
       0.619772         287.585         105.454 
       0.625918         285.851         103.132 
       0.632068         280.862         100.882 
       0.638161         279.481         98.7244 
         0.6443         275.378         96.6219 
       0.650464         272.907         94.5811 
       0.656582         269.067         92.6189 
       0.662703         269.132         90.7134 
       0.668861         265.061         88.8494 
       0.675024         261.854          87.032 
       0.681124         259.403         85.2788 
       0.687237         257.036         83.5673 
       0.693381         252.998         81.8936 
       0.699536         250.252         80.2633 
       0.705665         248.251         78.6869 
       0.711789         247.246         77.1577 
       0.717957         245.326         75.6616 
        0.72409         243.132         74.2155 
       0.730186         239.746          72.817 
       0.736317         237.614         71.4472 
       0.742472         235.437          70.107 
       0.748622         233.804         68.8014 
        0.75476         230.965          67.531 
       0.760888         228.581         66.2941 
       0.767043         228.065          65.083 
       0.773185         225.956         63.9049 
       0.779291         222.321         62.7629 
       0.785407         221.829          61.648 
       0.791564         219.526         60.5538 
       0.797719         216.928         59.4874 
       0.803834         214.819          58.454 
       0.809972         214.248         57.4419 
       0.816124         212.991         56.4518 
       0.822261         211.483          55.488 
       0.828378         209.156         54.5497 
       0.834502         207.193         53.6324 
       0.840667         205.675         52.7303 
       0.846816         204.436         51.8515 
       0.852925         203.101         50.9984 
       0.859047         201.436         50.1628 
       0.865192         198.746         49.3432 
       0.871341         197.163         48.5415 
       0.877463         196.917         47.7614 
       0.883569          195.35         47.0006 
       0.889708         192.864         46.2525 
       0.895864         192.207         45.5189 
       0.902008         190.326         44.8029 
       0.908149         189.141         44.1029 
       0.914301         187.042         43.4167 
       0.920448         186.064          42.746 
       0.926574         184.241         42.0919 
       0.932687         184.321         41.4529 
       0.938823         181.829          40.825 
       0.944975         181.166         40.2088 
       0.951105         179.842         39.6076 
       0.957225         179.002         39.0198 
       0.963368         176.216         38.4421 
       0.969511         175.585         37.8761 
       0.975621          174.05         37.3246 
       0.981748         173.509         36.7828 
       0.987916         172.167         36.2484 
        0.99406         170.899         35.7268 
        1.00019         169.995         35.2165 
        1.00632         168.804         34.7167 
        1.01246          167.42         34.2259 
        1.01859         167.408         33.7454 
        1.02471         164.871         33.2749 
        1.03085         163.911         32.8117 
        1.03698         162.929         32.3584 
        1.04314         161.489         31.9118 
        1.04929         160.997         31.4748 
        1.05541         160.265         31.0477 
        1.06154         158.587         30.6275 
        1.06769         158.259         30.2145 
        1.07382         156.802         29.8106 
        1.07993         155.832         29.4149 
        1.08607         155.455         29.0249 
        1.09222         154.008         28.6416 
        1.09836         152.838         28.2656 
        1.10449         151.499         27.8969 
        1.11063         150.626         27.5344 
        1.11677         149.846         27.1785 
         1.1229         148.512         26.8296 
        1.12903         148.105         26.4865 
        1.13518         147.262         26.1491 
        1.14131         145.922         25.8179 
        1.14745         145.833         25.4926 
        1.15359         144.298         25.1729 
        1.15973         143.269         24.8585 
        1.16584         142.583          24.551 
        1.17197         142.219         24.2482 
        1.17811         140.513         23.9497 
        1.18424         140.214         23.6571 
        1.19038         139.782         23.3685 
        1.19652         138.534          23.085 
        1.20267         137.821         22.8061 
        1.20881         136.927         22.5319 
        1.21495         135.788         22.2627 
        1.22108         135.178          21.998 
         1.2272         134.133         21.7382 
        1.23334          133.91          21.482 
        1.23949         132.575         21.2294 
        1.24562         131.887         20.9816 
        1.25174         131.476         20.7381 
        1.25789         130.606         20.4977 
        1.26402         129.081         20.2616 
        1.27014         128.453         20.0298 
        1.27628         128.018          19.801 
        1.28244          127.76         19.5753 
        1.28858          126.57         19.3535 
        1.29471          125.69         19.1356 
        1.30084         125.368         18.9213 
        1.30697         123.954         18.7099 
        1.31312         123.436         18.5015 
        1.31925          122.71          18.297 
        1.32537         122.425         18.0957 
        1.33151         121.508         17.8968 
        1.33765         120.547         17.7009 
        1.34378          120.12         17.5084 
        1.34992         119.589         17.3187 
        1.35606         119.223         17.1313 
         1.3622         117.936         16.9471 
        1.36833         117.283          16.766 
        1.37445         116.935         16.5877 
        1.38059         115.887         16.4114 
        1.38675         115.411         16.2373 
        1.39288         114.828         16.0664 
        1.39901         114.487          15.898 
        1.40515         113.331         15.7317 
         1.4113         113.158         15.5679 
        1.41742         112.063          15.407 
        1.42355         111.708         15.2481 
         1.4297         110.974          15.091 
        1.43585         110.243         14.9362 
        1.44198         109.971         14.7841 
        1.44809         109.427         14.6345 
        1.45423         108.952         14.4863 
        1.46036         107.945         14.3406 
        1.46649         107.413         14.1967 
        1.47263         106.673         14.0548 
        1.47877         105.969         13.9148 
        1.48491         105.304         13.7765 
        1.49104         105.117         13.6405 
        1.49718         104.324         13.5061 
        1.50333         103.625         13.3734 
        1.50947         103.163         13.2427 
         1.5156         102.751          13.114 
        1.52172         102.271          12.987 
        1.52787         101.467         12.8614 
          1.534         101.067         12.7376 
        1.54013          100.66         12.6156 
        1.54627         100.115          12.495 
        1.55241         99.4826          12.376 
        1.55855          98.855         12.2586 
        1.56467         98.2557         12.1431 
         1.5708         97.5955         12.0288 
        1.57695         97.4012         11.9158 
        1.58308         96.9707         11.8045 
        1.58922         96.3709         11.6945 
        1.59535         95.7603          11.586 
         1.6015         95.6387         11.4787 
        1.60764         94.9052         11.3729 
        1.61376         94.3739         11.2686 
        1.61989         93.8636         11.1656 
        1.62604         93.2345         11.0637 
        1.63218          93.114         10.9631 
        1.63831           92.41          10.864 
        1.64444         91.8844         10.7661 
        1.65059         91.1801         10.6691 
        1.65673         90.9152         10.5735 
        1.66285          90.611         10.4793 
        1.66898         90.0193         10.3862 
        1.67512         89.2284         10.2941 
        1.68127         89.0429          10.203 
         1.6874         88.5515         10.1132 
        1.69353          88.229         10.0246 
        1.69967           87.79         9.93677 
        1.70581         87.0793         9.85007 
        1.71193         86.5856         9.76474 
        1.71806         86.4781         9.68025 
        1.72421         85.8803         9.59659 
        1.73035         85.5099         9.51402 
        1.73649         85.0592         9.43243 
        1.74262         84.5021         9.35188 
        1.74876         84.1642         9.27221 
        1.75489         83.6187         9.19364 
        1.76101         83.1113           9.116 
        1.76715         82.7546         9.03915 
        1.77329         82.3417          8.9631 
        1.77943         81.8561         8.88789 
        1.78557         81.6815         8.81366 
        1.79171         80.8531         8.74026 
        1.79785         80.4855         8.66769 
        1.80399         80.1184         8.59596 
        1.81012         79.7304         8.52513 
        1.81625         79.4183         8.45514 
        1.82239         78.8991         8.38583 
        1.82853         78.5361         8.31734 
        1.83466         78.1914         8.24968 
        1.84078         77.7754         8.18284 
        1.84692         77.2714         8.11664 
        1.85306         76.9668         8.05109 
         1.8592          76.632         7.98637 
        1.86533          76.163          7.9224 
        1.87147         75.6493         7.85906 
        1.87761         75.3237         7.79639 
        1.88375         75.0539         7.73447 
        1.88988         74.5819          7.6733 
        1.89601          74.157         7.61275 
        1.90215         73.6925         7.55281 
        1.90829         73.5184         7.49355 
        1.91442         73.1486         7.43492 
        1.92056         72.6475         7.37697 
         1.9267         72.3609         7.31958 
        1.93284         72.0555         7.26277 
        1.93897         71.5176         7.20667 
        1.94509         71.3497         7.15128 
        1.95123         70.8487         7.09634 
        1.95737         70.5636         7.04194 
        1.96349         70.1898         6.98825 
        1.96964         69.6861         6.93496 
        1.97578         69.4021         6.88221 
        1.98192         69.2786         6.83012 
        1.98805          68.778         6.77856 
        1.99419         68.4107         6.72753 
        2.00033         68.1686           6.677 
        2.00647         67.7419         6.62701 
         2.0126          67.466         6.57762 
        2.01874         67.0085         6.52865 
        2.02488         66.8799         6.48014 
        2.03101         66.3981         6.43221 
        2.03714         65.9587         6.38481 
        2.04328         65.6739         6.33784 
        2.04941         65.3674         6.29138 
        2.05554         65.0818         6.24542 
        2.06167         64.7513         6.19986 
        2.06781         64.3036         6.15474 
        2.07396         64.0708         6.11001 
        2.08009         63.8442         6.06581 
        2.08622         63.4401         6.02209 
        2.09237         63.2123         5.97872 
        2.09851         62.8991         5.93576 
        2.10464         62.5474         5.89331 
        2.11077         62.2118         5.85131 
        2.11691         61.9338         5.80964 
        2.12305          61.626         5.76837 
        2.12918         61.3063          5.7276 
        2.13531         60.8451         5.68723 
        2.14145         60.6975         5.64715 
         2.1476         60.3669         5.60741 
        2.15372          60.071         5.56825 
        2.15985         59.7322         5.52943 
        2.16599         59.4905         5.49087 
        2.17213         59.0916         5.45272 
        2.17827         58.8313         5.41494 
         2.1844         58.6057         5.37755 
        2.19054         58.3245         5.34051 
        2.19666         58.1141         5.30386 
         2.2028         57.8411         5.26753 
        2.20893         57.4152         5.23152 
        2.21508         57.2457         5.19581 
        2.22122         56.8542         5.16042 
        2.22736         56.6907         5.12543 
        2.23349         56.3626         5.09078 
        2.23962         56.0759         5.05643 
        2.24577         55.8434         5.02237 
         2.2519         55.5682         4.98867 
        2.25802         55.2309         4.95533 
        2.26417         55.0247          4.9222 
        2.27031         54.7787         4.88935 
        2.27644         54.3834          4.8569 
        2.28257         54.2065         4.82474 
        2.28872         53.9489         4.79281 
        2.29486         53.6188         4.76118 
        2.30099         53.2278          4.7299 
        2.30712         53.0987         4.69888 
        2.31326         52.7823          4.6681 
         2.3194         52.6099          4.6376 
        2.32553          52.355         4.60744 
        2.33166         52.0519         4.57755 
         2.3378         51.8152         4.54789 
        2.34394         51.4968         4.51848 
        2.35007         51.2918         4.48937 
        2.35619         51.0628         4.46056 
        2.36233         50.8199         4.43193 
        2.36848         50.5389         4.40349 
        2.37462         50.3457         4.37536 
        2.38075         50.0491         4.34751 
        2.38689         49.8619         4.31987 
        2.39303         49.5966         4.29248 
        2.39916         49.2962         4.26536 
        2.40529         49.1854         4.23847 
        2.41143         48.7764          4.2118 
        2.41757          48.702         4.18534 
         2.4237         48.4268         4.15916 
        2.42983          48.189         4.13321 
        2.43598         47.8832         4.10741 
        2.44211         47.6587         4.08187 
        2.44823         47.4984         4.05661 
        2.45437         47.2867         4.03149 
        2.46052         47.1239         4.00657 
        2.46665         46.8624          3.9819 
        2.47279         46.5439         3.95745 
        2.47892         46.4096         3.93318 
        2.48507         46.0711          3.9091 
         2.4912         45.8831         3.88527 
