# k  (h/Mpc)    P(k)  (Mpc/h)^3    P_linear(k)  (Mpc/h)^3
     0.00783031         11193.4         11278.3 
       0.013688         13904.5         14261.6 
       0.019231         14607.5         14831.5 
      0.0249154         14092.8           14103 
      0.0312784         12405.5         12551.7 
      0.0375637         10676.5         10879.2 
      0.0433917         9446.08         9521.98 
      0.0492413         8328.56         8459.62 
      0.0555754          7573.9         7634.78 
      0.0619321         6794.55         7053.39 
       0.067871         6470.52         6624.89 
      0.0738098         6110.26         6217.09 
      0.0800417         5661.22         5752.57 
      0.0862327         5130.11         5240.93 
      0.0921407         4655.77         4730.59 
      0.0982031         4225.94          4227.4 
       0.104506         3735.33         3769.64 
       0.110769         3411.13         3406.97 
       0.116806         3221.49         3147.51 
       0.122832         3007.84         2962.12 
       0.129052         2860.79         2821.64 
       0.135211          2786.6         2703.69 
       0.141259         2616.21         2584.01 
       0.147318         2445.42         2446.26 
       0.153489         2312.44         2285.62 
       0.159709         2205.02         2111.86 
       0.165845         2001.77         1943.08 
       0.171974         1931.31         1790.91 
       0.178125         1841.19         1663.68 
       0.184229         1693.91         1565.21 
        0.19034         1661.17         1491.11 
       0.196428         1612.38         1434.37 
       0.202534         1518.52         1385.72 
       0.208729         1496.46         1336.43 
       0.214876         1437.96         1282.05 
       0.220989         1359.08         1220.84 
       0.227147         1323.51         1153.84 
        0.23329         1269.09         1085.85 
       0.239377         1250.35         1021.98 
       0.245482         1184.65         965.066 
       0.251667          1138.3         916.656 
       0.257832         1121.31         877.532 
       0.263955         1067.41         845.869 
       0.270079         1037.06         818.655 
        0.27624         995.406         792.879 
       0.282372         980.731         766.523 
        0.28843         969.762         738.654 
       0.294538         921.965          708.64 
       0.300721         899.563         677.317 
        0.30691         881.293          646.43 
       0.313033         843.708           617.8 
       0.319153         831.643         592.058 
       0.325316         820.021         569.453 
        0.33145          802.44         549.969 
       0.337538         774.492         532.931 
       0.343633         754.853         517.226 
       0.349808         738.618         501.846 
       0.355968         725.033         486.339 
       0.362074          701.36         470.592 
       0.368217         698.862         454.411 
       0.374374         687.217         438.225 
       0.380519          661.05         422.566 
       0.386598         655.606         407.944 
       0.392688         640.678         394.465 
        0.39888         624.477         381.985 
       0.405048         613.508         370.674 
       0.411186         611.502         360.282 
       0.417313         606.586          350.44 
       0.423458         588.106         340.845 
       0.429607         572.008         331.349 
       0.435692         565.166         321.953 
       0.441815         555.214         312.568 
       0.447964         545.777         303.322 
       0.454126         539.207         294.356 
       0.460267         530.722         285.847 
       0.466387         522.348         277.878 
        0.47254         514.083         270.357 
       0.478662         504.777          263.32 
       0.484765         499.516         256.679 
       0.490885         494.083         250.288 
       0.497035         484.321         244.039 
       0.503198         484.093         237.905 
       0.509342         473.464         231.906 
       0.515458         465.078         226.046 
       0.521598         459.848         220.303 
       0.527764         451.585         214.721 
       0.533884         448.914         209.405 
           0.54         443.487         204.326 
       0.546137         435.235          199.45 
       0.552299         434.177         194.766 
       0.558452         427.472         190.279 
       0.564573         423.292          185.97 
       0.570708         418.543         181.773 
       0.576825         410.704         177.686 
       0.582926         408.585         173.705 
       0.589034         402.366          169.82 
       0.595184         399.323         166.015 
       0.601379          393.08         162.297 
       0.607522         386.136         158.726 
       0.613639         384.927         155.289 
       0.619772         383.275         151.965 
       0.625918         376.442         148.751 
       0.632068         372.999         145.641 
       0.638161         369.816         142.651 
         0.6443         365.828         139.718 
       0.650464         361.318         136.847 
       0.656582         358.193          134.07 
       0.662703         355.543         131.364 
       0.668861         349.829         128.715 
       0.675024         348.002         126.137 
       0.681124         343.603         123.657 
       0.687237         341.349         121.242 
       0.693381         337.075         118.882 
       0.699536         334.839         116.584 
       0.705665          331.32         114.361 
       0.711789         329.509           112.2 
       0.717957         325.135         110.082 
        0.72409         321.565         108.031 
       0.730186          323.48         106.043 
       0.736317         317.405         104.092 
       0.742472         314.422         102.182 
       0.748622         311.346          100.32 
        0.75476         310.473         98.5071 
       0.760888         307.103         96.7425 
       0.767043         304.105         95.0152 
       0.773185         302.444         93.3353 
       0.779291         297.977         91.7074 
       0.785407         297.006         90.1173 
       0.791564         294.182         88.5558 
       0.797719         289.644         87.0326 
       0.803834          291.91         85.5551 
       0.809972         287.508         84.1064 
       0.816124         284.027         82.6876 
       0.822261         281.618          81.305 
       0.828378          281.14          79.958 
       0.834502         276.897         78.6402 
       0.840667         277.117         77.3437 
       0.846816         272.155         76.0802 
       0.852925         272.245         74.8532 
       0.859047         269.611         73.6511 
       0.865192         269.021         72.4717 
       0.871341         265.291         71.3178 
       0.877463         263.127         70.1945 
       0.883569         262.152         69.0984 
       0.889708         259.649         68.0203 
       0.895864         257.505         66.9627 
       0.902008         255.562         65.9298 
       0.908149         253.506         64.9194 
       0.914301         251.971         63.9285 
       0.920448         250.877         62.9594 
       0.926574          248.86         62.0137 
       0.932687         247.498         61.0896 
       0.938823         245.151         60.1811 
       0.944975          244.28          59.289 
       0.951105         241.704         58.4183 
       0.957225         239.716         57.5667 
       0.963368         239.533         56.7292 
       0.969511         235.331         55.9085 
       0.975621         234.355         55.1085 
       0.981748         233.346         54.3222 
       0.987916         232.173         53.5463 
        0.99406         230.092         52.7886 
        1.00019         228.531         52.0472 
        1.00632         227.823         51.3207 
        1.01246         225.976         50.6071 
        1.01859         223.595         49.9083 
        1.02471         221.961         49.2237 
        1.03085         221.097         48.5495 
        1.03698         219.775         47.8895 
        1.04314         219.241          47.239 
        1.04929         217.701         46.6022 
        1.05541         215.827         45.9797 
        1.06154         214.122         45.3671 
        1.06769         212.599         44.7648 
        1.07382         212.147         44.1755 
        1.07993         209.688         43.5981 
        1.08607          208.57         43.0287 
        1.09222         207.216          42.469 
        1.09836         206.578         41.9199 
        1.10449         204.649         41.3811 
        1.11063         203.305         40.8513 
        1.11677         202.205          40.331 
         1.1229         200.936         39.8206 
        1.12903         199.747         39.3187 
        1.13518         198.307          38.825 
        1.14131         197.538         38.3402 
        1.14745           195.6         37.8639 
        1.15359         194.017         37.3956 
        1.15973         193.598          36.935 
        1.16584         192.561         36.4844 
        1.17197         191.236         36.0406 
        1.17811         189.594         35.6028 
        1.18424         188.761         35.1736 
        1.19038         187.605         34.7503 
        1.19652         185.827         34.3341 
        1.20267         185.076         33.9248 
        1.20881         183.676         33.5222 
        1.21495         183.503         33.1268 
        1.22108         181.984         32.7379 
         1.2272         180.362         32.3561 
        1.23334         179.725         31.9796 
        1.23949         179.022         31.6082 
        1.24562         177.691         31.2438 
        1.25174         176.581         30.8857 
        1.25789         175.116         30.5321 
        1.26402         174.956         30.1847 
        1.27014         174.067         29.8435 
        1.27628          172.09         29.5067 
        1.28244         171.396         29.1744 
        1.28858         170.284         28.8476 
        1.29471         169.367         28.5267 
        1.30084         168.269         28.2109 
        1.30697         167.054         27.8994 
        1.31312         166.139         27.5922 
        1.31925         165.012         27.2906 
        1.32537         164.579         26.9939 
        1.33151         163.556         26.7004 
        1.33765         162.144         26.4116 
        1.34378         161.795         26.1275 
        1.34992         160.758         25.8475 
        1.35606         159.764          25.571 
         1.3622         159.044          25.299 
        1.36833         157.437         25.0316 
        1.37445         157.465         24.7682 
        1.38059         155.952         24.5078 
        1.38675          155.17         24.2505 
        1.39288          154.09          23.998 
        1.39901         153.246         23.7491 
        1.40515         152.664         23.5033 
         1.4113         151.553          23.261 
        1.41742         150.405         23.0231 
        1.42355         150.473          22.788 
         1.4297         148.951         22.5556 
        1.43585         148.281         22.3265 
        1.44198         146.827         22.1014 
        1.44809         146.267         21.8799 
        1.45423         145.821         21.6606 
        1.46036         144.613         21.4447 
        1.46649         143.739         21.2316 
        1.47263         143.232         21.0214 
        1.47877          142.06          20.814 
        1.48491         141.349         20.6091 
        1.49104         139.862         20.4074 
        1.49718         139.787         20.2083 
        1.50333         139.074         20.0115 
        1.50947         138.156         19.8178 
         1.5156          137.24         19.6269 
        1.52172         136.636         19.4385 
        1.52787         135.861         19.2522 
          1.534         135.117         19.0686 
        1.54013         134.378         18.8876 
        1.54627          133.46         18.7086 
        1.55241         133.002         18.5319 
        1.55855         132.337         18.3577 
        1.56467         131.303         18.1863 
         1.5708          130.27         18.0165 
        1.57695         130.002         17.8487 
        1.58308             129         17.6834 
        1.58922         128.755           17.52 
        1.59535         127.953         17.3588 
         1.6015          126.82         17.1994 
        1.60764         126.066         17.0421 
        1.61376         125.491         16.8872 
        1.61989         124.944         16.7341 
        1.62604         123.972         16.5825 
        1.63218          123.54         16.4329 
        1.63831         122.684         16.2855 
        1.64444         121.837         16.1399 
        1.65059         121.229         15.9957 
        1.65673         120.941         15.8534 
        1.66285         120.315         15.7133 
        1.66898         119.285         15.5748 
        1.67512         118.778         15.4376 
        1.68127         118.173         15.3021 
         1.6874         117.158         15.1684 
        1.69353         116.724         15.0364 
        1.69967         116.056         14.9057 
        1.70581         115.708         14.7766 
        1.71193          114.78         14.6495 
        1.71806         114.019         14.5237 
        1.72421         113.555         14.3991 
        1.73035         112.989          14.276 
        1.73649         112.093         14.1545 
        1.74262         111.853         14.0344 
        1.74876         110.969         13.9157 
        1.75489         110.581         13.7986 
        1.76101          109.85         13.6829 
        1.76715         108.994         13.5683 
        1.77329         108.626         13.4549 
        1.77943         107.822         13.3428 
        1.78557         107.536         13.2321 
        1.79171         106.978         13.1226 
        1.79785         105.986         13.0144 
        1.80399         105.792         12.9073 
        1.81012         104.857         12.8017 
        1.81625         104.504         12.6973 
        1.82239         103.975         12.5938 
        1.82853         103.411         12.4916 
        1.83466         102.609         12.3906 
        1.84078         102.311         12.2909 
        1.84692         101.984         12.1921 
        1.85306           101.2         12.0942 
         1.8592         100.801         11.9976 
        1.86533          99.986         11.9021 
        1.87147          99.722         11.8075 
        1.87761         98.8488         11.7139 
        1.88375         98.3242         11.6214 
        1.88988         97.6633           11.53 
        1.89601         97.5394         11.4396 
        1.90215          96.956           11.35 
        1.90829          96.184         11.2615 
        1.91442         95.6566         11.1739 
        1.92056           95.29         11.0873 
         1.9267         94.6671         11.0015 
        1.93284         94.1905         10.9166 
        1.93897         93.7987         10.8327 
        1.94509         93.1787         10.7499 
        1.95123         92.7028         10.6678 
        1.95737         92.4434         10.5864 
        1.96349         91.8859         10.5061 
        1.96964         91.3225         10.4265 
        1.97578         90.7052         10.3476 
        1.98192         90.3033         10.2696 
        1.98805         89.7299         10.1925 
        1.99419         89.3739         10.1162 
        2.00033         88.6825         10.0406 
        2.00647         88.4065         9.96578 
         2.0126         87.8831         9.89187 
        2.01874         87.7603         9.81859 
        2.02488         86.9364           9.746 
        2.03101         86.5669         9.67427 
        2.03714         86.0844         9.60333 
        2.04328         85.7408         9.53302 
        2.04941         85.3562         9.46347 
        2.05554         84.7858         9.39466 
        2.06167         84.0974         9.32645 
        2.06781         83.6821          9.2589 
        2.07396         83.3952         9.19193 
        2.08009         82.7214         9.12573 
        2.08622         82.6006         9.06025 
        2.09237         82.1799          8.9953 
        2.09851         81.4243         8.93096 
        2.10464         81.3055         8.86736 
        2.11077         80.8464         8.80446 
        2.11691         80.5256         8.74203 
        2.12305         79.9535          8.6802 
        2.12918         79.5444         8.61911 
        2.13531         79.1008         8.55861 
        2.14145         78.6085         8.49855 
         2.1476          78.376           8.439 
        2.15372          77.842         8.38031 
        2.15985         77.3969         8.32213 
        2.16599         77.0555         8.26432 
        2.17213         76.6788         8.20714 
        2.17827         76.1189          8.1505 
         2.1844         75.7845         8.09445 
        2.19054          75.482         8.03891 
        2.19666         75.1453         7.98397 
         2.2028         74.6503         7.92949 
        2.20893         74.2757         7.87549 
        2.21508         73.8669         7.82193 
        2.22122         73.4024         7.76886 
        2.22736         73.1723         7.71638 
        2.23349         72.6824         7.66441 
        2.23962         72.4252         7.61288 
        2.24577         71.9832         7.56178 
         2.2519          71.615         7.51122 
        2.25802         71.1603         7.46121 
        2.26417         70.7903         7.41151 
        2.27031          70.457         7.36221 
        2.27644         70.1536         7.31351 
        2.28257          69.779         7.26525 
        2.28872         69.3933         7.21734 
        2.29486         69.1441         7.16987 
        2.30099         68.6127         7.12292 
        2.30712         68.4064         7.07637 
        2.31326         68.1232         7.03015 
         2.3194         67.6169         6.98438 
        2.32553         67.2743         6.93909 
        2.33166          66.919         6.89422 
         2.3378         66.7147         6.84969 
        2.34394         66.3027         6.80553 
        2.35007         65.9267         6.76183 
        2.35619         65.6348         6.71856 
        2.36233         65.3042         6.67557 
        2.36848         64.9197         6.63286 
        2.37462         64.6192         6.59062 
        2.38075         64.3042         6.54879 
        2.38689          63.899         6.50729 
        2.39303         63.6235         6.46615 
        2.39916         63.3139         6.42541 
        2.40529         63.0499         6.38502 
        2.41143         62.7278         6.34495 
        2.41757         62.2491          6.3052 
         2.4237         62.0985         6.26587 
        2.42983         61.7238         6.22688 
        2.43598         61.4616         6.18811 
        2.44211         61.0231         6.14974 
        2.44823         60.8866         6.11178 
        2.45437         60.4838         6.07404 
        2.46052         60.1147         6.03658 
        2.46665         59.7857         5.99951 
        2.47279         59.5224         5.96275 
        2.47892         59.3183         5.92628 
        2.48507          58.903         5.89009 
         2.4912         58.6604         5.85426 
