# k  (h/Mpc)    P(k)  (Mpc/h)^3    P_linear(k)  (Mpc/h)^3
     0.00783031         17094.9         17285.7 
       0.013688         17967.1         18459.3 
       0.019231         16265.8         16506.3 
      0.0249154         13566.7         13467.8 
      0.0312784         10189.8         10204.1 
      0.0375637         7737.09         7782.95 
      0.0433917            6372         6332.81 
      0.0492413         5485.83         5481.07 
      0.0555754         5024.63         4974.47 
      0.0619321         4540.81         4631.91 
       0.067871         4266.95         4284.32 
      0.0738098         3855.38         3837.92 
      0.0800417         3335.02         3288.23 
      0.0862327         2788.42         2744.61 
      0.0921407         2384.31          2305.9 
      0.0982031         2089.65         1978.13 
       0.104506          1838.2         1767.99 
       0.110769         1733.53         1658.46 
       0.116806          1685.5         1601.75 
       0.122832         1607.18         1549.63 
       0.129052         1517.81         1468.52 
       0.135211         1434.58         1350.89 
       0.141259         1282.31         1210.73 
       0.147318         1143.43         1068.18 
       0.153489         1032.86         942.363 
       0.159709         963.896         847.819 
       0.165845         879.061         787.347 
       0.171974         862.098          752.07 
       0.178125         832.627         730.013 
       0.184229         780.484         709.221 
        0.19034         762.347         680.751 
       0.196428         730.508         641.725 
       0.202534         667.992         594.483 
       0.208729         645.243         544.402 
       0.214876         604.057         498.975 
       0.220989          560.95         462.235 
       0.227147         542.863          434.96 
        0.23329         519.367         415.986 
       0.239377         513.934         402.178 
       0.245482         486.501         389.814 
       0.251667         468.091         375.935 
       0.257832         458.759         359.314 
       0.263955         431.363          340.35 
       0.270079         411.182         320.354 
        0.27624         392.525         301.013 
       0.282372          381.69         284.031 
        0.28843         375.517         270.116 
       0.294538         355.454         258.885 
       0.300721         344.805           249.6 
        0.30691         337.425          241.38 
       0.313033         321.081         233.345 
       0.319153         315.736         224.854 
       0.325316         308.581         215.684 
        0.33145         299.332         206.229 
       0.337538         286.843         196.965 
       0.343633         278.368         188.297 
       0.349808          269.89         180.412 
       0.355968         264.505         173.552 
       0.362074         254.146         167.581 
       0.368217         251.382         162.154 
       0.374374         245.873         157.009 
       0.380519           235.3         151.916 
       0.386598         231.817          146.84 
       0.392688         224.635         141.708 
        0.39888         219.629         136.548 
       0.405048         213.687         131.611 
       0.411186         212.431         126.994 
       0.417313         208.273         122.739 
       0.423458         202.655         118.829 
       0.429607         196.049         115.198 
       0.435692         193.089         111.806 
       0.441815         188.891         108.524 
       0.447964         183.962         105.298 
       0.454126         181.427          102.11 
       0.460267         178.432         99.0025 
       0.466387         173.507         95.9975 
        0.47254         171.634         93.0948 
       0.478662         167.104           90.35 
       0.484765         164.071          87.771 
       0.490885         161.612         85.3249 
       0.497035         158.663         82.9835 
       0.503198         157.339         80.7336 
       0.509342         153.636         78.5688 
       0.515458         150.563         76.4764 
       0.521598         147.167         74.4278 
       0.527764         145.812         72.4284 
       0.533884         144.087         70.5107 
           0.54         141.308         68.6688 
       0.546137         137.942         66.8953 
       0.552299         136.074         65.1861 
       0.558452         133.859         63.5478 
       0.564573         133.435         61.9804 
       0.570708         129.596         60.4654 
       0.576825         127.909         59.0041 
       0.582926         126.731         57.5893 
       0.589034         124.266         56.2125 
       0.595184         122.975         54.8676 
       0.601379         121.018         53.5565 
       0.607522         117.788         52.3005 
       0.613639         117.259         51.0933 
       0.619772         115.856          49.924 
       0.625918         114.533         48.7905 
       0.632068         111.924         47.6921 
       0.638161          111.54         46.6369 
         0.6443         109.884         45.6055 
       0.650464         108.044         44.6011 
       0.656582           106.9         43.6338 
       0.662703         106.303         42.6946 
       0.668861         103.785         41.7776 
       0.675024         103.482         40.8867 
       0.681124         101.852         40.0307 
       0.687237         101.036         39.1977 
       0.693381         98.8733         38.3846 
       0.699536         98.5419         37.5935 
       0.705665          97.343         36.8282 
       0.711789         95.7122         36.0851 
       0.717957         94.8725         35.3576 
        0.72409         93.5098         34.6542 
       0.730186          93.443         33.9743 
       0.736317         92.2837         33.3088 
       0.742472         90.7271         32.6587 
       0.748622         89.4521         32.0265 
        0.75476         89.4493         31.4124 
       0.760888         88.3008         30.8153 
       0.767043         86.6914         30.2314 
       0.773185         85.5562         29.6638 
       0.779291         85.0891          29.114 
       0.785407         84.4284         28.5773 
       0.791564          83.462         28.0509 
       0.797719         82.1069         27.5379 
       0.803834         82.1221         27.0411 
       0.809972         81.1757         26.5548 
       0.816124         79.6579         26.0794 
       0.822261         79.1524         25.6169 
       0.828378         78.7183          25.167 
       0.834502          78.153         24.7276 
       0.840667           77.51         24.2958 
       0.846816         76.3202         23.8756 
       0.852925         75.8378         23.4679 
       0.859047         74.9839         23.0689 
       0.865192         74.4251         22.6779 
       0.871341         73.9073         22.2956 
       0.877463         73.0413         21.9239 
       0.883569         73.0058         21.5616 
       0.889708         72.2838         21.2056 
       0.895864         71.4171         20.8567 
       0.902008         70.5866         20.5163 
       0.908149          69.873         20.1838 
       0.914301         69.4857         19.8581 
       0.920448         69.4687         19.5399 
       0.926574         68.1047         19.2297 
       0.932687          67.934         18.9269 
       0.938823         67.5531         18.6296 
       0.944975         66.9779          18.338 
       0.951105         66.3007         18.0536 
       0.957225         65.8448         17.7758 
       0.963368         65.2538         17.5029 
       0.969511         64.8427         17.2357 
       0.975621          63.839         16.9755 
       0.981748         63.7486           16.72 
       0.987916         63.1144         16.4681 
        0.99406         62.8116         16.2224 
        1.00019         62.2893         15.9822 
        1.00632         61.6752          15.747 
        1.01246         61.3399         15.5163 
        1.01859         60.9307         15.2905 
        1.02471         60.6113         15.0695 
        1.03085         60.0096         14.8521 
        1.03698         59.5301         14.6394 
        1.04314         59.1916           14.43 
        1.04929         58.9476         14.2252 
        1.05541         58.2766         14.0252 
        1.06154         57.7841         13.8285 
        1.06769         57.3726         13.6353 
        1.07382          57.081         13.4464 
        1.07993         56.8778         13.2614 
        1.08607         56.4433         13.0792 
        1.09222         55.9628         12.9003 
        1.09836         55.5848         12.7248 
        1.10449         55.2152         12.5529 
        1.11063          54.835         12.3839 
        1.11677         54.7147         12.2181 
         1.1229         53.9864         12.0555 
        1.12903         53.6842         11.8958 
        1.13518         53.2387         11.7389 
        1.14131          53.084         11.5849 
        1.14745         52.8336         11.4337 
        1.15359         52.2845         11.2851 
        1.15973         52.1153         11.1391 
        1.16584         51.7974         10.9964 
        1.17197         51.3882          10.856 
        1.17811         51.1262         10.7175 
        1.18424         50.6121         10.5819 
        1.19038         50.4385         10.4482 
        1.19652         50.2487         10.3169 
        1.20267         49.7498         10.1879 
        1.20881         49.3893          10.061 
        1.21495         49.2117         9.93656 
        1.22108         48.9678          9.8142 
         1.2272         48.7754         9.69419 
        1.23334         48.4862          9.5759 
        1.23949         47.9694          9.4593 
        1.24562         47.6961         9.34497 
        1.25174         47.6783         9.23269 
        1.25789         47.3009         9.12191 
        1.26402         46.9009         9.01314 
        1.27014         46.6172          8.9064 
        1.27628         46.4275         8.80107 
        1.28244          46.351         8.69724 
        1.28858         46.0254         8.59522 
        1.29471          45.614         8.49505 
        1.30084         45.3687         8.39657 
        1.30697         45.0911         8.29949 
        1.31312         45.0029          8.2038 
        1.31925          44.561         8.10991 
        1.32537         44.3464         8.01758 
        1.33151         44.2631         7.92635 
        1.33765         43.8738         7.83659 
        1.34378         43.6853         7.74838 
        1.34992         43.4095         7.66147 
        1.35606         43.2695          7.5757 
         1.3622         42.9475         7.49138 
        1.36833         42.7444         7.40855 
        1.37445          42.516         7.32701 
        1.38059         42.2157         7.24644 
        1.38675         42.0517         7.16689 
        1.39288         41.8559         7.08884 
        1.39901         41.5779         7.01199 
        1.40515         41.2904          6.9361 
         1.4113         41.2007         6.86135 
        1.41742         40.9583         6.78799 
        1.42355         40.7674         6.71556 
         1.4297         40.5455         6.64397 
        1.43585         40.5305         6.57344 
        1.44198         40.0841          6.5042 
        1.44809         39.8651         6.43609 
        1.45423         39.8333          6.3687 
        1.46036         39.5489         6.30239 
        1.46649         39.2759           6.237 
        1.47263         39.0491         6.17248 
        1.47877         38.8575          6.1089 
        1.48491         38.5959         6.04611 
        1.49104         38.5659         5.98433 
        1.49718         38.2648         5.92337 
        1.50333         38.1684         5.86316 
        1.50947          37.939          5.8039 
         1.5156          37.797         5.74554 
        1.52172         37.5384         5.68799 
        1.52787         37.4238          5.6311 
          1.534         37.1942         5.57506 
        1.54013         37.0843         5.51983 
        1.54627         36.7992         5.46525 
        1.55241         36.7205         5.41139 
        1.55855         36.4983         5.35833 
        1.56467          36.157         5.30613 
         1.5708         36.2268         5.25447 
        1.57695         35.9184         5.20342 
        1.58308         35.8424         5.15316 
        1.58922         35.5681         5.10353 
        1.59535         35.5521         5.05457 
         1.6015         35.3696         5.00618 
        1.60764          35.197         4.95844 
        1.61376          34.997         4.91145 
        1.61989          34.743         4.86504 
        1.62604         34.5977         4.81911 
        1.63218          34.468          4.7738 
        1.63831         34.2838         4.72918 
        1.64444         34.1542         4.68511 
        1.65059         33.9967         4.64149 
        1.65673         33.8361         4.59847 
        1.66285         33.6631         4.55611 
        1.66898         33.4902         4.51428 
        1.67512          33.297         4.47288 
        1.68127         33.2308         4.43196 
         1.6874         33.1277         4.39164 
        1.69353         32.9372         4.35185 
        1.69967         32.7665         4.31245 
        1.70581         32.6505         4.27356 
        1.71193         32.3675         4.23529 
        1.71806         32.3235          4.1974 
        1.72421          32.107         4.15991 
        1.73035         32.0558         4.12291 
        1.73649         31.8818         4.08636 
        1.74262         31.7222         4.05029 
        1.74876         31.6477         4.01462 
        1.75489         31.5199         3.97946 
        1.76101         31.3846         3.94472 
        1.76715         31.2431         3.91035 
        1.77329         31.0798         3.87635 
        1.77943         30.8952         3.84273 
        1.78557         30.8401         3.80956 
        1.79171         30.6036         3.77677 
        1.79785         30.5214         3.74436 
        1.80399         30.3942         3.71234 
        1.81012         30.2296         3.68073 
        1.81625         30.1314          3.6495 
        1.82239         29.9509         3.61859 
        1.82853         29.8521         3.58805 
        1.83466         29.6806         3.55788 
        1.84078         29.5758          3.5281 
        1.84692         29.4666          3.4986 
        1.85306          29.358         3.46941 
         1.8592         29.1457         3.44059 
        1.86533         29.0688         3.41212 
        1.87147         28.8922         3.38393 
        1.87761         28.8392         3.35604 
        1.88375         28.6537         3.32851 
        1.88988         28.5267          3.3013 
        1.89601         28.4614         3.27439 
        1.90215         28.3309         3.24775 
        1.90829         28.2208         3.22142 
        1.91442         28.0814         3.19538 
        1.92056         27.9238         3.16965 
         1.9267         27.8122         3.14417 
        1.93284         27.7499         3.11896 
        1.93897         27.5901         3.09407 
        1.94509         27.5074          3.0695 
        1.95123         27.4021         3.04514 
        1.95737         27.2637         3.02102 
        1.96349         27.1819         2.99722 
        1.96964         27.1117         2.97361 
        1.97578         26.9361         2.95025 
        1.98192         26.8308         2.92718 
        1.98805         26.6937         2.90435 
        1.99419         26.5514         2.88176 
        2.00033         26.4357          2.8594 
        2.00647           26.34         2.83729 
         2.0126         26.2776         2.81544 
        2.01874         26.1542         2.79379 
        2.02488         26.0244         2.77234 
        2.03101         25.9434         2.75116 
        2.03714          25.861         2.73022 
        2.04328         25.7802         2.70947 
        2.04941         25.5718         2.68896 
        2.05554         25.4763         2.66867 
        2.06167         25.3713         2.64856 
        2.06781          25.293         2.62865 
        2.07396         25.1908         2.60892 
        2.08009          25.074         2.58942 
        2.08622         24.9866         2.57015 
        2.09237         24.9079         2.55103 
        2.09851         24.7504          2.5321 
        2.10464         24.7138          2.5134 
        2.11077         24.6003          2.4949 
        2.11691         24.4737         2.47655 
        2.12305         24.3434         2.45838 
        2.12918         24.2931         2.44044 
        2.13531         24.1002         2.42267 
        2.14145         24.0856         2.40504 
         2.1476         23.9797         2.38756 
        2.15372         23.8964         2.37035 
        2.15985         23.7565         2.35328 
        2.16599         23.6683         2.33633 
        2.17213         23.6464         2.31957 
        2.17827         23.5157         2.30297 
         2.1844         23.4071         2.28656 
        2.19054         23.3662         2.27029 
        2.19666          23.216          2.2542 
         2.2028         23.1318         2.23826 
        2.20893         23.0309         2.22246 
        2.21508         22.9495         2.20679 
        2.22122         22.8436         2.19127 
        2.22736         22.7353         2.17593 
        2.23349         22.6813         2.16074 
        2.23962         22.6174         2.14569 
        2.24577         22.5197         2.13076 
         2.2519         22.4309           2.116 
        2.25802         22.2987          2.1014 
        2.26417         22.1676          2.0869 
        2.27031         22.1132         2.07252 
        2.27644         22.0398         2.05831 
        2.28257         21.9885         2.04424 
        2.28872         21.8642         2.03028 
        2.29486          21.808         2.01644 
        2.30099         21.7217         2.00276 
        2.30712         21.6127         1.98921 
        2.31326         21.5388         1.97575 
         2.3194         21.4425         1.96243 
        2.32553         21.4027         1.94925 
        2.33166         21.2851         1.93619 
         2.3378         21.2199         1.92324 
        2.34394         21.1076          1.9104 
        2.35007         21.0136          1.8977 
        2.35619         20.9552         1.88512 
        2.36233         20.8728         1.87263 
        2.36848         20.8249         1.86023 
        2.37462         20.7928         1.84796 
        2.38075         20.6318         1.83582 
        2.38689         20.5481         1.82377 
        2.39303         20.4679         1.81183 
        2.39916         20.4135         1.80001 
        2.40529         20.3552          1.7883 
        2.41143         20.2698         1.77668 
        2.41757         20.1741         1.76516 
         2.4237         20.1021         1.75377 
        2.42983         19.9747         1.74247 
        2.43598         19.9005         1.73124 
        2.44211         19.8324         1.72013 
        2.44823         19.7785         1.70915 
        2.45437         19.7018         1.69822 
        2.46052         19.6397         1.68739 
        2.46665         19.5431         1.67666 
        2.47279         19.4389         1.66603 
        2.47892          19.454         1.65549 
        2.48507         19.2989         1.64503 
         2.4912         19.2475         1.63468 
