# k  (h/Mpc)    P(k)  (Mpc/h)^3    P_linear(k)  (Mpc/h)^3
     0.00783031         14123.4         14219.6 
       0.013688         16326.1         16744.7 
       0.019231         15958.5         16186.7 
      0.0249154         14320.3         14262.9 
      0.0312784         11689.3         11762.7 
      0.0375637          9557.2            9679 
      0.0433917         8295.41         8306.06 
      0.0492413         7349.27         7409.88 
      0.0555754         6782.25         6788.51 
      0.0619321         6115.81         6301.91 
       0.067871          5730.5         5818.16 
      0.0738098         5221.61         5250.48 
      0.0800417         4606.49         4596.84 
      0.0862327         3980.73         3971.38 
      0.0921407         3517.89          3468.8 
      0.0982031         3181.87          3084.9 
       0.104506         2864.12         2821.62 
       0.110769          2707.6         2658.46 
       0.116806         2620.76         2544.06 
       0.122832          2470.5         2427.29 
       0.129052         2317.95         2276.21 
       0.135211         2193.95         2093.18 
       0.141259         1983.96         1898.31 
       0.147318         1797.76         1712.68 
       0.153489         1665.43            1554 
       0.159709         1585.87         1434.45 
       0.165845         1460.43         1353.16 
       0.171974          1435.6         1296.75 
       0.178125         1389.34         1250.13 
       0.184229         1290.48         1200.86 
        0.19034         1258.99         1141.45 
       0.196428         1207.62         1072.19 
       0.202534         1115.14         998.091 
       0.208729         1084.55         925.894 
       0.214876         1027.06         863.626 
       0.220989         965.807         813.957 
       0.227147         941.356         775.647 
        0.23329         905.889         745.762 
       0.239377         897.486         719.934 
       0.245482         851.746         693.888 
       0.251667         818.724         664.965 
       0.257832         804.191         633.315 
       0.263955         760.094         600.594 
       0.270079         731.639         568.739 
        0.27624         700.092          539.61 
       0.282372         686.255         514.615 
        0.28843         677.343         493.819 
       0.294538         643.216         475.963 
       0.300721         627.118         459.695 
        0.30691             614         443.973 
       0.313033         586.568          428.08 
       0.319153         577.818         411.688 
       0.325316         567.793         394.914 
        0.33145          553.38         378.602 
       0.337538         532.649         363.357 
       0.343633          518.06          349.46 
       0.349808         505.297         336.842 
       0.355968          495.72         325.524 
       0.362074         477.755         315.197 
       0.368217         475.115         305.279 
       0.374374         466.628         295.539 
       0.380519         447.608         285.853 
       0.386598         442.886         276.348 
       0.392688         431.619         267.052 
        0.39888         420.706         257.984 
       0.405048         411.751         249.489 
       0.411186         410.731         241.627 
       0.417313         405.087         234.308 
       0.423458         393.619         227.423 
       0.429607         381.997         220.864 
       0.435692         376.728          214.58 
       0.441815         369.817         208.408 
       0.447964         361.945         202.358 
       0.454126         357.784         196.449 
       0.460267         351.824          190.76 
       0.466387         344.468         185.338 
        0.47254          340.06         180.155 
       0.478662         332.642         175.248 
       0.484765         328.016         170.588 
       0.490885         324.653         166.117 
       0.497035         317.864         161.789 
       0.503198         317.101         157.583 
       0.509342         309.766         153.507 
       0.515458         304.142         149.572 
       0.521598         299.553         145.749 
       0.527764         295.183         142.043 
       0.533884         292.976         138.498 
           0.54         288.816         135.093 
       0.546137         282.473         131.811 
       0.552299         281.142         128.638 
       0.558452          276.37          125.58 
       0.564573         274.643         122.632 
       0.570708         269.565         119.764 
       0.576825         264.963         116.991 
       0.582926         263.294          114.31 
       0.589034         258.725         111.709 
       0.595184         256.998         109.175 
       0.601379         252.918         106.704 
       0.607522         247.303         104.332 
       0.613639         246.505         102.045 
       0.619772          245.32         99.8254 
       0.625918         240.976         97.6694 
       0.632068         237.987          95.577 
       0.638161          236.56         93.5642 
         0.6443         233.258         91.5936 
       0.650464           230.1         89.6711 
       0.656582          227.84         87.8169 
       0.662703          226.68         86.0148 
       0.668861         222.029         84.2539 
       0.675024         221.324         82.5426 
       0.681124         218.244         80.8978 
       0.687237         216.819         79.2959 
       0.693381         213.297         77.7307 
       0.699536         212.372         76.2056 
       0.705665         209.965         74.7281 
       0.711789         207.486          73.291 
       0.717957         205.787         71.8817 
        0.72409         202.923         70.5174 
       0.730186         204.051         69.1969 
       0.736317         200.713         67.9032 
       0.742472         198.316         66.6382 
       0.748622         195.982         65.4071 
        0.75476         195.976         64.2102 
       0.760888         193.344         63.0455 
       0.767043          190.57         61.9054 
       0.773185         189.133         60.7961 
       0.779291         187.181         59.7207 
       0.785407          186.15         58.6699 
       0.791564         184.591         57.6379 
       0.797719          181.47         56.6315 
       0.803834         182.472         55.6556 
       0.809972         180.142         54.6995 
       0.816124          177.18         53.7639 
       0.822261         176.266         52.8528 
       0.828378         175.614         51.9658 
       0.834502         173.566         51.0985 
       0.840667          173.42         50.2456 
       0.846816         170.114         49.4148 
       0.852925         169.816         48.6081 
       0.859047          168.13         47.8178 
       0.865192         167.605         47.0427 
       0.871341          165.67         46.2845 
       0.877463         164.123         45.5465 
       0.883569         163.964         44.8266 
       0.889708         162.408         44.1187 
       0.895864         160.628         43.4244 
       0.902008         159.207         42.7467 
       0.908149         157.816         42.0839 
       0.914301          156.79         41.4342 
       0.920448         156.602         40.7989 
       0.926574         154.458         40.1793 
       0.932687         154.271          39.574 
       0.938823          152.86         38.9791 
       0.944975         152.167         38.3951 
       0.951105         150.498         37.8253 
       0.957225         149.516         37.2681 
       0.963368         148.893         36.7203 
       0.969511           147.1         36.1836 
       0.975621         145.434         35.6606 
       0.981748         145.129         35.1466 
       0.987916         144.364         34.6396 
        0.99406         143.279         34.1446 
        1.00019         142.474         33.6603 
        1.00632         141.342         33.1858 
        1.01246         140.449         32.7199 
        1.01859         139.306         32.2637 
        1.02471         138.338         31.8169 
        1.03085         137.366         31.3769 
        1.03698         136.524         30.9463 
        1.04314         136.134          30.522 
        1.04929         135.329         30.1067 
        1.05541         134.578         29.7008 
        1.06154         133.137         29.3015 
        1.06769         132.479         28.9089 
        1.07382         131.734         28.5249 
        1.07993         130.654         28.1488 
        1.08607         130.346         27.7779 
        1.09222         129.035         27.4134 
        1.09836         128.387         27.0559 
        1.10449         127.591         26.7052 
        1.11063         126.553         26.3604 
        1.11677         126.045         26.0218 
         1.1229         125.011         25.6899 
        1.12903         124.107         25.3634 
        1.13518         123.347         25.0424 
        1.14131         122.986         24.7272 
        1.14745         121.975         24.4176 
        1.15359         121.093         24.1132 
        1.15973         120.648          23.814 
        1.16584         119.803         23.5212 
        1.17197           119.3          23.233 
        1.17811          118.26         22.9487 
        1.18424         117.642           22.67 
        1.19038         116.987         22.3952 
        1.19652           116.3         22.1251 
        1.20267         115.444         21.8594 
        1.20881         114.636         21.5982 
        1.21495         114.457         21.3417 
        1.22108         113.533         21.0894 
         1.2272         112.962         20.8418 
        1.23334         112.372         20.5976 
        1.23949         111.819         20.3568 
        1.24562          110.93         20.1205 
        1.25174         110.735         19.8884 
        1.25789         109.675         19.6592 
        1.26402         109.345          19.434 
        1.27014         108.459         19.2129 
        1.27628         107.952         18.9946 
        1.28244         107.506         18.7793 
        1.28858         106.729         18.5677 
        1.29471         106.051         18.3598 
        1.30084          105.32         18.1552 
        1.30697         104.738         17.9535 
        1.31312         104.245         17.7546 
        1.31925         103.413         17.5593 
        1.32537         102.975         17.3672 
        1.33151         102.828         17.1773 
        1.33765         101.903         16.9904 
        1.34378          101.66         16.8066 
        1.34992         101.005         16.6254 
        1.35606         100.536         16.4465 
         1.3622          100.16         16.2706 
        1.36833         99.2052         16.0977 
        1.37445         99.0308         15.9274 
        1.38059         98.3562          15.759 
        1.38675         97.7487         15.5927 
        1.39288         97.1331         15.4295 
        1.39901         96.6762         15.2687 
        1.40515         96.2236         15.1098 
         1.4113         95.6393         14.9533 
        1.41742         95.3171         14.7996 
        1.42355         94.8571         14.6477 
         1.4297          94.164         14.4976 
        1.43585         93.7699         14.3496 
        1.44198          92.967         14.2043 
        1.44809           92.59         14.0612 
        1.45423         92.4874         13.9196 
        1.46036         91.5566         13.7802 
        1.46649         91.1403         13.6427 
        1.47263         90.5297         13.5069 
        1.47877         90.2349         13.3731 
        1.48491         89.7955         13.2409 
        1.49104         89.0456         13.1107 
        1.49718         88.7032         12.9822 
        1.50333         88.3352         12.8552 
        1.50947         87.9972         12.7302 
         1.5156         87.5325          12.607 
        1.52172         86.7809         12.4855 
        1.52787         86.6111         12.3654 
          1.534         86.1063         12.2469 
        1.54013         85.6682         12.1302 
        1.54627         85.0604         12.0147 
        1.55241         84.9744         11.9008 
        1.55855         84.1428         11.7885 
        1.56467         83.7385          11.678 
         1.5708         83.0967         11.5685 
        1.57695         82.9961         11.4604 
        1.58308         82.5099         11.3538 
        1.58922         82.2902         11.2485 
        1.59535         82.0644         11.1447 
         1.6015         81.2859         11.0419 
        1.60764         80.8696         10.9406 
        1.61376         80.6874         10.8408 
        1.61989         80.1031         10.7421 
        1.62604         79.7638         10.6445 
        1.63218         79.3209         10.5482 
        1.63831         78.9511         10.4532 
        1.64444         78.4544         10.3594 
        1.65059         78.0727         10.2666 
        1.65673         77.9269         10.1749 
        1.66285         77.4208         10.0847 
        1.66898         76.8225         9.99552 
        1.67512         76.4055         9.90726 
        1.68127         76.2246         9.81998 
         1.6874         75.7271         9.73394 
        1.69353         75.3655           9.649 
        1.69967         74.9299         9.56486 
        1.70581         74.6847         9.48177 
        1.71193         74.2159         9.39999 
        1.71806          73.975         9.31899 
        1.72421          73.493         9.23879 
        1.73035         73.1054         9.15963 
        1.73649         72.7473         9.08142 
        1.74262         72.4199         9.00419 
        1.74876          71.974          8.9278 
        1.75489         71.7104         8.85246 
        1.76101         71.4552         8.77802 
        1.76715         70.9853         8.70433 
        1.77329         70.5793          8.6314 
        1.77943         70.4153         8.55928 
        1.78557          70.091         8.48809 
        1.79171         69.5315          8.4177 
        1.79785         69.1874          8.3481 
        1.80399         69.0907          8.2793 
        1.81012         68.5042         8.21136 
        1.81625         68.2358         8.14423 
        1.82239          67.801         8.07774 
        1.82853         67.5874         8.01203 
        1.83466         67.1473         7.94712 
        1.84078         66.9084         7.88299 
        1.84692         66.7309         7.81948 
        1.85306         66.4683         7.75658 
         1.8592         66.0524         7.69448 
        1.86533         65.6435          7.6331 
        1.87147         65.3475         7.57231 
        1.87761         64.7734         7.51217 
        1.88375         64.7576         7.45275 
        1.88988          64.266         7.39403 
        1.89601         64.2271         7.33592 
        1.90215         63.7292         7.27839 
        1.90829         63.3451         7.22151 
        1.91442         63.0004         7.16523 
        1.92056         62.8727          7.1096 
         1.9267         62.5134          7.0545 
        1.93284         62.3263         6.99996 
        1.93897         61.8736          6.9461 
        1.94509         61.6348         6.89292 
        1.95123         61.3098         6.84017 
        1.95737         61.1058         6.78793 
        1.96349         60.8345         6.73637 
        1.96964         60.4765          6.6852 
        1.97578         60.1456         6.63453 
        1.98192         59.7468          6.5845 
        1.98805         59.3829         6.53498 
        1.99419         59.4678         6.48596 
        2.00033         58.9336         6.43743 
        2.00647         58.6376         6.38941 
         2.0126         58.4672         6.34196 
        2.01874         58.3374         6.29492 
        2.02488          58.004         6.24831 
        2.03101         57.5933         6.20227 
        2.03714         57.3521         6.15673 
        2.04328         57.1635          6.1116 
        2.04941         56.7684         6.06696 
        2.05554         56.4808          6.0228 
        2.06167         56.1861         5.97902 
        2.06781          56.024         5.93567 
        2.07396         55.6998         5.89269 
        2.08009         55.4968         5.85021 
        2.08622         55.1945          5.8082 
        2.09237         54.9767         5.76652 
        2.09851         54.5414         5.72524 
        2.10464          54.326         5.68443 
        2.11077         54.2105         5.64408 
        2.11691         53.9222         5.60402 
        2.12305         53.6099         5.56435 
        2.12918         53.3304         5.52517 
        2.13531         53.1578         5.48635 
        2.14145          52.807         5.44783 
         2.1476         52.7977         5.40962 
        2.15372         52.3543         5.37198 
        2.15985         52.1262         5.33466 
        2.16599          51.937         5.29758 
        2.17213         51.6485          5.2609 
        2.17827         51.3272         5.22458 
         2.1844         51.0539         5.18863 
        2.19054         51.0236         5.15301 
        2.19666         50.7904         5.11778 
         2.2028         50.4471         5.08284 
        2.20893         50.1404         5.04821 
        2.21508         49.8891         5.01387 
        2.22122          49.636         4.97983 
        2.22736         49.4425         4.94619 
        2.23349         49.2372         4.91286 
        2.23962         49.0858         4.87982 
        2.24577         48.7906         4.84706 
         2.2519         48.5364         4.81464 
        2.25802          48.342         4.78258 
        2.26417          48.114         4.75071 
        2.27031         47.9346         4.71911 
        2.27644         47.6072         4.68788 
        2.28257         47.4431         4.65695 
        2.28872         47.2046         4.62623 
        2.29486         47.0116          4.5958 
        2.30099          46.691          4.5657 
        2.30712         46.5397         4.53586 
        2.31326         46.3889         4.50623 
         2.3194         46.1518         4.47689 
        2.32553         45.8778         4.44786 
        2.33166         45.7235          4.4191 
         2.3378         45.4743         4.39056 
        2.34394         45.2758         4.36226 
        2.35007         45.0945         4.33424 
        2.35619         44.8905         4.30651 
        2.36233         44.7003         4.27896 
        2.36848         44.4249         4.25159 
        2.37462         44.2061         4.22452 
        2.38075         44.0096         4.19771 
        2.38689          43.797         4.17111 
        2.39303         43.6905         4.14475 
        2.39916         43.4217         4.11864 
        2.40529         43.2997         4.09276 
        2.41143         43.0983         4.06708 
        2.41757         42.8775         4.04162 
         2.4237         42.6962         4.01641 
        2.42983         42.5193         3.99143 
        2.43598         42.2917         3.96659 
        2.44211         42.0263           3.942 
        2.44823         41.9503         3.91768 
        2.45437         41.6643          3.8935 
        2.46052         41.4197          3.8695 
        2.46665         41.2682         3.84575 
        2.47279         41.1158          3.8222 
        2.47892         40.9223         3.79884 
        2.48507         40.7628         3.77564 
         2.4912         40.4906         3.75269 
