# k  (h/Mpc)    P(k)  (Mpc/h)^3    P_linear(k)  (Mpc/h)^3
     0.00783031         1766.91         1789.02 
       0.013688         2154.69         2158.48 
       0.019231         2151.74         2152.66 
      0.0249154         1951.68         1965.37 
      0.0312784         1675.83         1678.42 
      0.0375637          1411.1         1407.38 
      0.0433917         1203.63          1206.2 
      0.0492413          1061.6         1059.78 
      0.0555754         947.238         952.762 
      0.0619321         884.263          878.91 
       0.067871         817.976         821.692 
      0.0738098         759.225         762.952 
      0.0800417          687.96         693.704 
      0.0862327         617.146         618.888 
      0.0921407         548.593         548.012 
      0.0982031         481.996         482.734 
       0.104506          432.49         427.935 
       0.110769         392.256         388.108 
       0.116806         363.244           361.7 
       0.122832         346.441         343.351 
       0.129052          328.44         328.237 
       0.135211         313.207          313.06 
       0.141259         297.504         295.576 
       0.147318         278.387         275.098 
       0.153489         254.718          252.46 
       0.159709         233.368         230.014 
       0.165845         216.004         210.281 
       0.171974         198.183          194.21 
       0.178125         186.701         181.988 
       0.184229         178.182         173.124 
        0.19034         168.992         166.379 
       0.196428          164.65         160.502 
       0.202534         159.753         154.378 
       0.208729         151.653         147.301 
       0.214876         142.944         139.355 
       0.220989         136.056         130.934 
       0.227147         126.656          122.56 
        0.23329         119.318         114.917 
       0.239377         113.696         108.431 
       0.245482         107.031         103.113 
       0.251667          104.13         98.7891 
       0.257832         100.417         95.2161 
       0.263955          97.033         92.0098 
       0.270079         93.6863         88.8184 
        0.27624         91.1611         85.4224 
       0.282372         87.4898         81.8138 
        0.28843         83.3862         78.1216 
       0.294538         79.6938         74.4329 
       0.300721         77.0729         70.9178 
        0.30691         73.2106         67.7444 
       0.313033         70.6611         65.0012 
       0.319153         67.3607           62.62 
       0.325316         66.2278         60.5041 
        0.33145         63.8829         58.5651 
       0.337538         62.2346         56.7078 
       0.343633         60.0633         54.8415 
       0.349808          58.309          52.924 
       0.355968         56.4748         50.9926 
       0.362074         54.4873         49.1066 
       0.368217         52.7368          47.285 
       0.374374          50.941         45.5759 
       0.380519          49.544         44.0108 
       0.386598         48.1663         42.5946 
       0.392688         47.0678         41.2922 
        0.39888         45.6775         40.0536 
       0.405048         44.5587          38.873 
       0.411186         43.4679         37.7288 
       0.417313         42.0488         36.6007 
       0.423458         40.9507         35.4838 
       0.429607         39.7931           34.39 
       0.435692         38.5243         33.3418 
       0.441815         37.7759          32.333 
       0.447964         37.0741         31.3763 
       0.454126         35.6107         30.4733 
       0.460267         34.9727          29.625 
       0.466387         33.9254         28.8241 
        0.47254         33.3819         28.0532 
       0.478662         32.7753         27.3109 
       0.484765         31.7669         26.5908 
       0.490885         31.0326          25.887 
       0.497035         30.6293         25.1972 
       0.503198         29.7871         24.5263 
       0.509342         29.0056         23.8811 
       0.515458         28.3891         23.2651 
       0.521598         27.8667         22.6726 
       0.527764         27.2483         22.1027 
       0.533884         26.7809         21.5608 
           0.54         26.1762         21.0402 
       0.546137         25.7389         20.5355 
       0.552299         25.3006         20.0437 
       0.558452         24.5195         19.5665 
       0.564573         24.1616         19.1053 
       0.570708         23.7373         18.6567 
       0.576825         23.1394         18.2231 
       0.582926         22.7056         17.8044 
       0.589034         22.1168         17.3991 
       0.595184         21.8165         17.0052 
       0.601379         21.3776         16.6225 
       0.607522         21.0118         16.2556 
       0.613639         20.7739         15.9016 
       0.619772         20.2197         15.5571 
       0.625918         20.0991         15.2216 
       0.632068         19.7597         14.8955 
       0.638161          19.318         14.5815 
         0.6443         18.9296         14.2742 
       0.650464         18.5802         13.9746 
       0.656582         18.4484         13.6857 
       0.662703         18.0984          13.405 
       0.668861         17.7546         13.1309 
       0.675024         17.4249         12.8646 
       0.681124          17.126         12.6087 
       0.687237         16.8528         12.3595 
       0.693381         16.6798         12.1159 
       0.699536         16.2298         11.8784 
       0.705665         16.1323         11.6481 
       0.711789         15.8091          11.424 
       0.717957         15.5746         11.2043 
        0.72409         15.3291         10.9915 
       0.730186          15.117         10.7856 
       0.736317         14.9496         10.5839 
       0.742472         14.6995         10.3868 
       0.748622         14.5123          10.195 
        0.75476         14.2388         10.0086 
       0.760888         14.0442         9.82714 
       0.767043         13.8739         9.64952 
       0.773185         13.6086         9.47667 
       0.779291         13.5268         9.30903 
       0.785407         13.3339         9.14519 
       0.791564         13.1108         8.98428 
       0.797719         12.8395         8.82734 
       0.803834         12.7998         8.67516 
       0.809972         12.6731         8.52606 
       0.816124         12.3945         8.38018 
       0.822261         12.2377         8.23815 
       0.828378          12.094         8.09987 
       0.834502         11.9944         7.96468 
       0.840667         11.7989         7.83174 
       0.846816         11.5918         7.70223 
       0.852925         11.4832         7.57648 
       0.859047         11.3503         7.45329 
       0.865192         11.2482         7.33244 
       0.871341         11.1417         7.21421 
       0.877463         10.9449         7.09912 
       0.883569          10.793         6.98685 
       0.889708         10.6237         6.87645 
       0.895864         10.5359         6.76815 
       0.902008         10.4433         6.66242 
       0.908149         10.3292         6.55903 
       0.914301         10.2169         6.45767 
       0.920448         10.0474         6.35856 
       0.926574         9.93981         6.26188 
       0.932687         9.83705         6.16743 
       0.938823         9.70657          6.0746 
       0.944975         9.59002         5.98347 
       0.951105          9.4968         5.89455 
       0.957225         9.43682          5.8076 
       0.963368          9.3257         5.72212 
       0.969511           9.225         5.63836 
       0.975621         9.12016         5.55674 
       0.981748         9.01324         5.47654 
       0.987916         8.94704         5.39742 
        0.99406         8.80437         5.32017 
        1.00019         8.67726         5.24459 
        1.00632         8.66077         5.17056 
        1.01246         8.56043         5.09786 
        1.01859         8.43053         5.02668 
        1.02471         8.37763         4.95695 
        1.03085         8.28828         4.88832 
        1.03698         8.17142         4.82113 
        1.04314         8.12278         4.75493 
        1.04929         8.01631         4.69014 
        1.05541         7.92661         4.62682 
        1.06154          7.8673         4.56452 
        1.06769         7.82936         4.50328 
        1.07382         7.70504         4.44337 
        1.07993         7.63756         4.38469 
        1.08607         7.58407         4.32683 
        1.09222         7.51017         4.26996 
        1.09836          7.4263         4.21419 
        1.10449         7.36014         4.15948 
        1.11063         7.28464         4.10568 
        1.11677         7.24558         4.05286 
         1.1229         7.18721         4.00106 
        1.12903         7.09571         3.95013 
        1.13518         7.01652         3.90004 
        1.14131         6.95548         3.85085 
        1.14745         6.88585         3.80253 
        1.15359         6.84408         3.75504 
        1.15973           6.777         3.70835 
        1.16584         6.68558         3.66266 
        1.17197         6.63831         3.61767 
        1.17811         6.60838         3.57331 
        1.18424         6.54636         3.52982 
        1.19038         6.51439         3.48693 
        1.19652          6.4374         3.44477 
        1.20267         6.36979         3.40331 
        1.20881         6.34862         3.36254 
        1.21495         6.28749         3.32251 
        1.22108         6.21647         3.28313 
         1.2272         6.17895         3.24449 
        1.23334         6.10626         3.20639 
        1.23949         6.05319         3.16881 
        1.24562         6.02527         3.13193 
        1.25174         5.96819          3.0957 
        1.25789          5.9278         3.05994 
        1.26402           5.888         3.02481 
        1.27014         5.83735         2.99031 
        1.27628         5.77545         2.95626 
        1.28244         5.71568         2.92267 
        1.28858         5.70783         2.88965 
        1.29471         5.63805         2.85721 
        1.30084         5.58543         2.82531 
        1.30697         5.58602         2.79384 
        1.31312         5.48908         2.76281 
        1.31925         5.45727         2.73235 
        1.32537         5.41825         2.70239 
        1.33151         5.39778         2.67276 
        1.33765         5.33344          2.6436 
        1.34378         5.29826         2.61493 
        1.34992         5.26797         2.58667 
        1.35606         5.21223         2.55877 
         1.3622         5.18822         2.53133 
        1.36833         5.14363         2.50436 
        1.37445         5.11018         2.47779 
        1.38059         5.09254         2.45153 
        1.38675         5.04907         2.42558 
        1.39288         5.01509         2.40012 
        1.39901         4.95714         2.37503 
        1.40515          4.9318         2.35025 
         1.4113         4.89954         2.32583 
        1.41742         4.86479         2.30185 
        1.42355         4.82079         2.27816 
         1.4297         4.79076         2.25474 
        1.43585          4.7705         2.23165 
        1.44198         4.74708         2.20898 
        1.44809         4.69968         2.18667 
        1.45423         4.66315         2.16458 
        1.46036         4.62576         2.14284 
        1.46649         4.59915         2.12139 
        1.47263         4.56208         2.10021 
        1.47877         4.53025         2.07934 
        1.48491         4.50417         2.05871 
        1.49104         4.47692         2.03841 
        1.49718          4.4497         2.01837 
        1.50333         4.42397         1.99857 
        1.50947         4.38646         1.97907 
         1.5156         4.36055         1.95986 
        1.52172         4.33463         1.94091 
        1.52787         4.30901         1.92218 
          1.534         4.27279         1.90371 
        1.54013         4.25573          1.8855 
        1.54627         4.21603          1.8675 
        1.55241         4.19102         1.84974 
        1.55855         4.17436         1.83222 
        1.56467         4.14419         1.81499 
         1.5708          4.1196         1.79793 
        1.57695         4.08425         1.78106 
        1.58308         4.05441         1.76445 
        1.58922         4.04552         1.74804 
        1.59535         4.02071         1.73184 
         1.6015         3.98722         1.71583 
        1.60764         3.96229         1.70002 
        1.61376         3.94321         1.68446 
        1.61989         3.92037         1.66908 
        1.62604         3.89094         1.65386 
        1.63218         3.88328         1.63884 
        1.63831         3.85079         1.62404 
        1.64444         3.83002         1.60942 
        1.65059         3.79305         1.59494 
        1.65673          3.7892         1.58066 
        1.66285         3.75255         1.56659 
        1.66898         3.73431         1.55269 
        1.67512         3.71043         1.53893 
        1.68127            3.69         1.52533 
         1.6874         3.67866         1.51192 
        1.69353         3.64032         1.49868 
        1.69967         3.62842         1.48557 
        1.70581         3.61099         1.47262 
        1.71193          3.5867         1.45987 
        1.71806         3.57218         1.44724 
        1.72421         3.54756         1.43475 
        1.73035         3.53421         1.42241 
        1.73649         3.51035         1.41022 
        1.74262         3.48753         1.39818 
        1.74876         3.47672         1.38628 
        1.75489         3.45462         1.37454 
        1.76101         3.42659         1.36293 
        1.76715         3.41764         1.35145 
        1.77329         3.40094         1.34008 
        1.77943         3.36671         1.32885 
        1.78557         3.35902         1.31775 
        1.79171         3.34136         1.30678 
        1.79785         3.32128         1.29594 
        1.80399         3.30314         1.28522 
        1.81012          3.2874         1.27463 
        1.81625         3.27015         1.26417 
        1.82239           3.252         1.25381 
        1.82853         3.23075         1.24357 
        1.83466         3.22243         1.23346 
        1.84078         3.20434         1.22347 
        1.84692         3.19376         1.21358 
        1.85306         3.16555         1.20378 
         1.8592         3.14659          1.1941 
        1.86533          3.1339         1.18454 
        1.87147          3.1227         1.17507 
        1.87761         3.10204          1.1657 
        1.88375         3.08688         1.15644 
        1.88988         3.06968          1.1473 
        1.89601         3.05486         1.13825 
        1.90215         3.03927         1.12929 
        1.90829          3.0204         1.12042 
        1.91442         3.01156         1.11166 
        1.92056         2.99187         1.10299 
         1.9267           2.978         1.09441 
        1.93284         2.96725         1.08592 
        1.93897         2.95228         1.07753 
        1.94509         2.93347         1.06925 
        1.95123         2.91863         1.06103 
        1.95737          2.9008          1.0529 
        1.96349         2.89361         1.04487 
        1.96964         2.88321          1.0369 
        1.97578         2.85902         1.02901 
        1.98192         2.85133         1.02122 
        1.98805         2.83929         1.01351 
        1.99419         2.82428         1.00588 
        2.00033         2.81548        0.998319 
        2.00647         2.79728        0.990842 
         2.0126         2.78886        0.983453 
        2.01874         2.76559        0.976129 
        2.02488         2.76071        0.968873 
        2.03101         2.73831        0.961704 
        2.03714         2.72976        0.954614 
        2.04328         2.71758        0.947588 
        2.04941         2.69872        0.940638 
        2.05554         2.69218        0.933763 
        2.06167         2.68241        0.926947 
        2.06781         2.66878        0.920199 
        2.07396         2.65943        0.913508 
        2.08009         2.64531        0.906895 
        2.08622          2.6305        0.900355 
        2.09237         2.61926        0.893867 
        2.09851           2.609        0.887442 
        2.10464         2.60043         0.88109 
        2.11077         2.58423        0.874808 
        2.11691         2.57352        0.868574 
        2.12305         2.56511        0.862399 
        2.12918         2.55669          0.8563 
        2.13531         2.54297        0.850259 
        2.14145         2.53121        0.844263 
         2.1476         2.51548        0.838317 
        2.15372         2.50525        0.832459 
        2.15985          2.4987         0.82665 
        2.16599         2.48626         0.82088 
        2.17213         2.46976        0.815172 
        2.17827         2.46437         0.80952 
         2.1844         2.45281        0.803925 
        2.19054         2.44495        0.798382 
        2.19666         2.43139        0.792899 
         2.2028          2.4196        0.787463 
        2.20893         2.41154        0.782075 
        2.21508         2.39913        0.776731 
        2.22122         2.38802        0.771436 
        2.22736         2.37935        0.766201 
        2.23349          2.3716        0.761016 
        2.23962         2.35815        0.755876 
        2.24577         2.35196        0.750778 
         2.2519         2.34193        0.745735 
        2.25802         2.33312        0.740747 
        2.26417         2.32522         0.73579 
        2.27031         2.31186        0.730874 
        2.27644         2.30335        0.726017 
        2.28257         2.29061        0.721204 
        2.28872          2.2868        0.716426 
        2.29486         2.27239        0.711692 
        2.30099         2.26302        0.707011 
        2.30712         2.25304        0.702369 
        2.31326         2.24532        0.697762 
         2.3194          2.2378        0.693198 
        2.32553         2.22877        0.688683 
        2.33166         2.22084         0.68421 
         2.3378         2.21095         0.67977 
        2.34394         2.20141        0.675369 
        2.35007         2.19262        0.671013 
        2.35619         2.18652          0.6667 
        2.36233         2.17681        0.662415 
        2.36848         2.16576        0.658159 
        2.37462         2.16071        0.653949 
        2.38075         2.14969        0.649781 
        2.38689         2.14524        0.645645 
        2.39303         2.13383        0.641545 
        2.39916          2.1259        0.637486 
        2.40529         2.11822        0.633462 
        2.41143         2.10888         0.62947 
        2.41757         2.10088         0.62551 
         2.4237          2.0952        0.621592 
        2.42983         2.07982        0.617707 
        2.43598         2.08011        0.613846 
        2.44211         2.06702        0.610024 
        2.44823         2.06283        0.606242 
        2.45437          2.0529        0.602483 
        2.46052         2.04834        0.598752 
        2.46665          2.0395         0.59506 
        2.47279         2.02986        0.591399 
        2.47892         2.02403        0.587767 
        2.48507         2.01643        0.584163 
         2.4912         2.00304        0.580595 
