# k  (h/Mpc)    P(k)  (Mpc/h)^3    P_linear(k)  (Mpc/h)^3
     0.00783031         14236.5           14362 
       0.013688         16705.3         17161.5 
       0.019231         16601.9         16863.4 
      0.0249154         15115.9         15079.9 
      0.0312784         12452.9         12552.9 
      0.0375637         10163.7         10307.7 
      0.0433917         8727.44         8744.96 
      0.0492413          7619.7         7685.57 
      0.0555754         6966.01         6965.66 
      0.0619321          6285.3          6478.9 
       0.067871         5971.32         6065.19 
      0.0738098         5547.24         5589.51 
      0.0800417         4987.89         5000.82 
      0.0862327         4356.96         4373.82 
      0.0921407         3842.98         3809.66 
      0.0982031         3426.23         3327.46 
       0.104506         3016.84         2960.26 
       0.110769         2798.78         2723.04 
       0.116806         2691.65         2581.78 
       0.122832         2553.22         2482.96 
       0.129052         2434.68         2381.92 
       0.135211         2352.79         2253.61 
       0.141259         2161.96         2092.92 
       0.147318          1974.6         1909.37 
       0.153489         1822.27         1721.86 
       0.159709         1714.87         1555.04 
       0.165845         1555.19         1425.87 
       0.171974         1511.15         1334.41 
       0.178125          1456.1          1273.4 
       0.184229          1355.6         1230.94 
        0.19034         1336.59         1192.86 
       0.196428         1296.36         1148.56 
       0.202534         1208.82         1092.58 
       0.208729          1180.6         1025.16 
       0.214876         1118.18         953.647 
       0.220989         1047.22         885.435 
       0.227147         1014.21         825.812 
        0.23329          970.31         778.496 
       0.239377         960.188          743.31 
       0.245482         911.497         716.767 
       0.251667         879.202          694.49 
       0.257832         866.627         672.656 
       0.263955         822.807         648.351 
       0.270079         794.629         620.478 
        0.27624         760.735         589.765 
       0.282372         745.634          558.57 
        0.28843         734.749         529.468 
       0.294538         696.759         503.525 
       0.300721         679.159         481.569 
        0.30691         664.798         463.558 
       0.313033         635.606         448.603 
       0.319153         627.277         435.061 
       0.325316         617.353         421.574 
        0.33145         602.516         407.422 
       0.337538         580.484         392.512 
       0.343633         565.161         377.005 
       0.349808         551.319         361.435 
       0.355968         541.032         346.714 
       0.362074         521.272         333.478 
       0.368217         519.003         321.696 
       0.374374         510.033         311.296 
       0.380519         489.502         301.978 
       0.386598         484.917         293.315 
       0.392688         472.717         284.822 
        0.39888         461.001         276.118 
       0.405048         451.343         267.289 
       0.411186         450.484         258.503 
       0.417313         444.874         249.905 
       0.423458         432.112         241.669 
       0.429607         419.629         233.999 
       0.435692         414.111         227.004 
       0.441815         406.371         220.502 
       0.447964         398.571         214.428 
       0.454126         394.071         208.637 
       0.460267         387.523         203.011 
       0.466387          379.83         197.485 
        0.47254         374.857         191.997 
       0.478662         367.077          186.61 
       0.484765         362.363         181.373 
       0.490885          358.65          176.33 
       0.497035         351.063         171.521 
       0.503198         350.693         166.959 
       0.509342         342.727         162.652 
       0.515458          336.45         158.581 
       0.521598         332.039         154.661 
       0.527764         326.829         150.844 
       0.533884         324.326         147.136 
           0.54         320.208         143.512 
       0.546137         313.506         139.966 
       0.552299         312.318         136.509 
       0.558452         307.019          133.17 
       0.564573         305.099         129.968 
       0.570708         299.941         126.887 
       0.576825         294.733         123.946 
       0.582926         293.112         121.129 
       0.589034         288.025         118.404 
       0.595184         286.209          115.74 
       0.601379         281.761         113.125 
       0.607522          275.79           110.6 
       0.613639         275.004         108.155 
       0.619772          273.82         105.775 
       0.625918         268.888         103.462 
       0.632068         266.018         101.219 
       0.638161         264.468         99.0656 
         0.6443         260.705         96.9638 
       0.650464         257.503         94.9207 
       0.656582         254.997         92.9558 
       0.662703         253.745         91.0488 
       0.668861         248.711         89.1851 
       0.675024         247.913         87.3709 
       0.681124         244.422         85.6223 
       0.687237         243.002         83.9146 
       0.693381         239.233         82.2434 
       0.699536         238.289         80.6139 
       0.705665         235.656         79.0361 
       0.711789          233.23         77.5036 
       0.717957         231.198          76.004 
        0.72409         228.013         74.5545 
       0.730186         229.442         73.1531 
       0.736317         225.576          71.781 
       0.742472         223.254         70.4394 
       0.748622         220.866         69.1328 
        0.75476         220.585         67.8614 
       0.760888         217.812         66.6232 
       0.767043         214.938         65.4105 
       0.773185         213.443         64.2303 
       0.779291         211.216         63.0858 
       0.785407         210.185         61.9678 
       0.791564         208.424         60.8703 
       0.797719         204.964         59.8003 
       0.803834         206.289         58.7634 
       0.809972         203.553         57.7477 
       0.816124         200.461         56.7541 
       0.822261          199.29         55.7869 
       0.828378         198.685         54.8453 
       0.834502         196.265         53.9247 
       0.840667         196.342         53.0194 
       0.846816         192.556         52.1375 
       0.852925         192.454         51.2812 
       0.859047         190.622         50.4424 
       0.865192         190.142         49.6197 
       0.871341         187.888         48.8149 
       0.877463         186.251         48.0317 
       0.883569         185.924         47.2677 
       0.889708         184.216         46.5164 
       0.895864         182.249         45.7797 
       0.902008         180.816         45.0606 
       0.908149         179.333         44.3574 
       0.914301         178.171         43.6681 
       0.920448         177.833         42.9942 
       0.926574         175.792          42.337 
       0.932687         175.543         41.6949 
       0.938823         173.902          41.064 
       0.944975         173.264         40.4447 
       0.951105         171.352         39.8404 
       0.957225         170.224         39.2496 
       0.963368         169.753         38.6689 
       0.969511         167.481         38.0999 
       0.975621         165.834         37.5454 
       0.981748         165.561         37.0007 
       0.987916         164.683         36.4633 
        0.99406         163.456         35.9387 
        1.00019         162.557         35.4255 
        1.00632         161.467         34.9229 
        1.01246          160.37         34.4292 
        1.01859         159.043         33.9459 
        1.02471         157.955         33.4726 
        1.03085         157.009         33.0066 
        1.03698         156.207         32.5506 
        1.04314         155.698         32.1012 
        1.04929         154.824         31.6614 
        1.05541         154.054         31.2317 
        1.06154         152.434         30.8089 
        1.06769         151.729         30.3933 
        1.07382          150.81         29.9868 
        1.07993         149.668         29.5887 
        1.08607         149.283         29.1961 
        1.09222         147.829         28.8103 
        1.09836         147.237          28.432 
        1.10449         146.263         28.0609 
        1.11063          145.19          27.696 
        1.11677         144.575         27.3378 
         1.1229         143.549         26.9866 
        1.12903         142.476         26.6412 
        1.13518         141.691         26.3016 
        1.14131          141.29         25.9682 
        1.14745         140.109         25.6407 
        1.15359         139.114         25.3188 
        1.15973         138.652         25.0024 
        1.16584         137.722         24.6928 
        1.17197         137.176          24.388 
        1.17811         136.035         24.0874 
        1.18424         135.412         23.7928 
        1.19038         134.702         23.5023 
        1.19652         133.784         23.2168 
        1.20267         132.933          22.936 
        1.20881          132.03         22.6599 
        1.21495         131.893         22.3888 
        1.22108         130.796         22.1222 
         1.2272         130.125         21.8606 
        1.23334         129.434         21.6026 
        1.23949         128.888         21.3482 
        1.24562         127.952         21.0986 
        1.25174         127.733         20.8534 
        1.25789         126.535         20.6113 
        1.26402         126.166         20.3735 
        1.27014         125.358           20.14 
        1.27628         124.629         19.9095 
        1.28244         124.048         19.6822 
        1.28858         123.285         19.4587 
        1.29471         122.458         19.2392 
        1.30084         121.729         19.0233 
        1.30697         121.009         18.8104 
        1.31312         120.475         18.6005 
        1.31925          119.58         18.3944 
        1.32537          119.13         18.1916 
        1.33151         118.818         17.9912 
        1.33765          117.88         17.7939 
        1.34378         117.677            17.6 
        1.34992         116.855         17.4089 
        1.35606         116.373         17.2201 
         1.3622         115.841         17.0346 
        1.36833         114.855         16.8522 
        1.37445         114.681         16.6725 
        1.38059         113.879         16.4949 
        1.38675         113.255         16.3196 
        1.39288          112.53         16.1474 
        1.39901         111.974         15.9778 
        1.40515         111.599         15.8103 
         1.4113          110.86         15.6453 
        1.41742         110.507         15.4832 
        1.42355         110.055         15.3231 
         1.4297          109.26         15.1648 
        1.43585         108.785         15.0089 
        1.44198         107.877         14.8557 
        1.44809         107.532         14.7049 
        1.45423         107.335         14.5557 
        1.46036         106.223         14.4088 
        1.46649         105.813         14.2639 
        1.47263         105.169         14.1209 
        1.47877         104.759         13.9799 
        1.48491         104.382         13.8406 
        1.49104         103.467         13.7035 
        1.49718         103.113         13.5681 
        1.50333         102.654         13.4344 
        1.50947         102.293         13.3027 
         1.5156         101.704          13.173 
        1.52172         100.933         13.0451 
        1.52787         100.722         12.9186 
          1.534         100.194         12.7939 
        1.54013         99.5931          12.671 
        1.54627         98.9764         12.5494 
        1.55241         98.8166         12.4295 
        1.55855         98.0574         12.3113 
        1.56467         97.5789         12.1949 
         1.5708         96.7417         12.0798 
        1.57695         96.7586         11.9659 
        1.58308         96.0762         11.8538 
        1.58922         95.8162          11.743 
        1.59535         95.6514         11.6337 
         1.6015         94.7888         11.5256 
        1.60764         94.2579          11.419 
        1.61376         94.0445          11.314 
        1.61989         93.4978         11.2102 
        1.62604         92.9838         11.1075 
        1.63218         92.5279         11.0062 
        1.63831         92.0754         10.9064 
        1.64444         91.4666         10.8077 
        1.65059         91.0875         10.7101 
        1.65673         91.0058         10.6137 
        1.66285         90.4477         10.5188 
        1.66898         89.7292         10.4251 
        1.67512         89.2441         10.3323 
        1.68127          89.068         10.2405 
         1.6874         88.4335         10.1501 
        1.69353         88.0279         10.0608 
        1.69967         87.5402         9.97236 
        1.70581         87.3434         9.88504 
        1.71193         86.8248         9.79909 
        1.71806         86.4273         9.71398 
        1.72421         85.9064         9.62971 
        1.73035         85.5008         9.54654 
        1.73649         85.0671         9.46437 
        1.74262         84.7352         9.38324 
        1.74876         84.1675           9.303 
        1.75489         83.9607         9.22386 
        1.76101         83.6342         9.14567 
        1.76715         83.0823         9.06828 
        1.77329         82.6348         8.99169 
        1.77943         82.3915         8.91595 
        1.78557         82.0654         8.84119 
        1.79171         81.4809         8.76728 
        1.79785         81.0171         8.69419 
        1.80399         80.9295         8.62196 
        1.81012         80.2316         8.55064 
        1.81625         79.9042         8.48016 
        1.82239          79.526         8.41036 
        1.82853         79.1608         8.34139 
        1.83466         78.6703         8.27325 
        1.84078         78.5083         8.20595 
        1.84692          78.233         8.13929 
        1.85306         77.9765         8.07329 
         1.8592         77.4993         8.00812 
        1.86533         76.9718         7.94371 
        1.87147         76.7051         7.87993 
        1.87761         75.9716         7.81682 
        1.88375         75.9748         7.75448 
        1.88988         75.3856         7.69289 
        1.89601         75.3715         7.63193 
        1.90215         74.8438         7.57158 
        1.90829         74.3675         7.51192 
        1.91442         73.9969         7.45289 
        1.92056         73.8243         7.39454 
         1.9267         73.4275         7.33677 
        1.93284         73.2536         7.27957 
        1.93897         72.6989         7.22309 
        1.94509         72.4147         7.16734 
        1.95123          72.097         7.11202 
        1.95737         71.8419         7.05726 
        1.96349         71.5584         7.00321 
        1.96964          71.145         6.94957 
        1.97578          70.758         6.89646 
        1.98192         70.3283         6.84402 
        1.98805         69.8868         6.79212 
        1.99419         69.9758         6.74076 
        2.00033         69.3311          6.6899 
        2.00647         68.9899         6.63958 
         2.0126         68.7827         6.58986 
        2.01874         68.6228         6.54057 
        2.02488         68.2764         6.49175 
        2.03101         67.7867         6.44351 
        2.03714         67.5394         6.39581 
        2.04328         67.3503         6.34854 
        2.04941         66.9417         6.30178 
        2.05554         66.5612         6.25553 
        2.06167         66.1862         6.20968 
        2.06781         65.9334         6.16428 
        2.07396         65.6128         6.11927 
        2.08009         65.3983         6.07478 
        2.08622         65.0617         6.03079 
        2.09237         64.8064         5.98715 
        2.09851         64.3197         5.94393 
        2.10464         64.1039         5.90121 
        2.11077          63.947         5.85896 
        2.11691         63.6297         5.81703 
        2.12305         63.2333         5.77551 
        2.12918         62.9671         5.73449 
        2.13531         62.7144         5.69387 
        2.14145          62.342         5.65354 
         2.1476         62.2669         5.61356 
        2.15372         61.7659         5.57417 
        2.15985          61.532         5.53512 
        2.16599         61.3129         5.49632 
        2.17213         60.9396         5.45795 
        2.17827         60.5566         5.41994 
         2.1844         60.3694         5.38233 
        2.19054         60.2149         5.34507 
        2.19666         59.9502         5.30821 
         2.2028         59.5911         5.27166 
        2.20893         59.2758         5.23544 
        2.21508          58.962         5.19952 
        2.22122         58.6798         5.16393 
        2.22736         58.4133         5.12874 
        2.23349         58.1957         5.09389 
        2.23962         58.0104         5.05934 
        2.24577         57.6792         5.02508 
         2.2519         57.3776         4.99118 
        2.25802         57.1648         4.95766 
        2.26417         56.8753         4.92434 
        2.27031          56.694          4.8913 
        2.27644         56.3003         4.85866 
        2.28257         56.1391         4.82632 
        2.28872         55.8261         4.79422 
        2.29486          55.678         4.76241 
        2.30099         55.2561         4.73095 
        2.30712         55.0944         4.69977 
        2.31326         54.9021         4.66881 
         2.3194          54.638         4.63815 
        2.32553         54.3253         4.60781 
        2.33166         54.1149         4.57776 
         2.3378         53.8695         4.54794 
        2.34394         53.5931         4.51837 
        2.35007         53.3763         4.48911 
        2.35619         53.1852         4.46014 
        2.36233         52.9837         4.43136 
        2.36848         52.6378         4.40277 
        2.37462         52.3767         4.37449 
        2.38075         52.1497         4.34649 
        2.38689         51.8652         4.31871 
        2.39303         51.7971         4.29118 
        2.39916         51.4541         4.26392 
        2.40529         51.3094         4.23689 
        2.41143         51.1059         4.21008 
        2.41757         50.7734         4.18349 
         2.4237         50.6626         4.15717 
        2.42983         50.3934         4.13109 
        2.43598         50.2006         4.10516 
        2.44211         49.8672         4.07949 
        2.44823         49.8135          4.0541 
        2.45437         49.3775         4.02886 
        2.46052         49.1642         4.00381 
        2.46665         48.9563         3.97902 
        2.47279         48.7905         3.95445 
        2.47892         48.5794         3.93006 
        2.48507         48.3831         3.90586 
         2.4912         48.1141         3.88191 
