# k  (h/Mpc)    Pcb(k)  (Mpc/h)^3    Pcb_linear(k)  (Mpc/h)^3
     0.00783031           13589         13779.3 
       0.013688         17280.4         17134.5 
       0.019231         17568.8         17547.2 
      0.0249154         16104.5         16445.6 
      0.0312784         14278.9         14452.5 
      0.0375637         12417.7         12444.7 
      0.0433917         10680.5         10892.6 
      0.0492413         9631.46         9721.62 
      0.0555754         8544.02         8827.78 
      0.0619321         8165.07         8176.28 
       0.067871         7419.84         7650.66 
      0.0738098         6890.89         7109.13 
      0.0800417         6210.33         6482.72 
      0.0862327         5651.65            5820 
      0.0921407          5146.9         5201.06 
      0.0982031         4574.47         4634.83 
       0.104506         4247.37         4158.86 
       0.110769         3895.98         3808.24 
       0.116806         3642.86         3567.84 
       0.122832         3469.04         3390.48 
       0.129052         3233.92         3234.34 
       0.135211         3082.13         3074.28 
       0.141259         2956.25         2894.97 
       0.147318          2787.2         2693.24 
       0.153489         2553.36         2478.19 
       0.159709         2403.93          2270.9 
       0.165845         2295.64         2092.11 
       0.171974          2154.6         1947.78 
       0.178125         2044.45         1837.23 
       0.184229         1956.06         1754.39 
        0.19034         1847.65         1687.25 
       0.196428          1816.2         1624.78 
       0.202534         1752.68         1557.99 
       0.208729          1673.6         1482.06 
       0.214876         1600.35         1399.76 
       0.220989            1545         1315.73 
       0.227147         1473.08         1234.88 
        0.23329         1411.98         1162.99 
       0.239377          1386.1         1102.97 
       0.245482         1297.83         1053.86 
       0.251667         1290.04         1013.06 
       0.257832         1240.15         977.806 
       0.263955         1200.63         944.524 
       0.270079         1159.55         910.264 
        0.27624          1147.3         873.686 
       0.282372         1098.64         835.465 
        0.28843         1087.34         797.356 
       0.294538         1032.69         760.367 
       0.300721          1027.3          725.99 
        0.30691         984.456         695.556 
       0.313033         965.412         669.382 
       0.319153          946.03         646.487 
       0.325316         915.536         625.591 
        0.33145         894.098         605.823 
       0.337538          879.97         586.332 
       0.343633          857.71         566.511 
       0.349808         828.684         546.158 
       0.355968         823.271         525.945 
       0.362074         813.285          506.57 
       0.368217         788.733           488.2 
       0.374374         757.376         471.263 
       0.380519         757.051         455.851 
       0.386598          736.85         441.902 
       0.392688         734.447         428.921 
        0.39888         712.513         416.337 
       0.405048         701.885         404.137 
       0.411186         691.531         392.145 
       0.417313         677.317         380.268 
       0.423458         665.739         368.564 
       0.429607         655.728         357.196 
       0.435692         641.356         346.423 
       0.441815         636.303         336.182 
       0.447964         622.793          326.53 
       0.454126         613.761         317.431 
       0.460267         600.693         308.861 
       0.466387         593.963           300.7 
        0.47254         586.218         292.755 
       0.478662         582.834         285.041 
       0.484765         564.732         277.527 
       0.490885         560.704         270.168 
       0.497035         549.413         262.974 
       0.503198         544.546         256.017 
       0.509342         539.509         249.372 
       0.515458         535.309         243.053 
       0.521598          522.27         236.986 
       0.527764         512.563         231.151 
       0.533884         510.974         225.586 
           0.54         504.473         220.216 
       0.546137         501.729         214.979 
       0.552299         492.926         209.856 
       0.558452         490.181          204.88 
       0.564573         483.103         200.073 
       0.570708         476.822         195.404 
       0.576825         464.664           190.9 
       0.582926         465.057         186.561 
       0.589034         460.889         182.369 
       0.595184         456.632         178.298 
       0.601379         450.182          174.34 
       0.607522         443.769         170.537 
       0.613639         443.024         166.859 
       0.619772         432.524         163.271 
       0.625918         431.039         159.773 
       0.632068         424.625          156.37 
       0.638161         423.056         153.096 
         0.6443         415.407         149.893 
       0.650464         412.802         146.774 
       0.656582         410.382         143.768 
       0.662703         408.422         140.848 
       0.668861         401.143         137.996 
       0.675024         397.765         135.224 
       0.681124         394.894         132.557 
       0.687237         391.246         129.959 
       0.693381          385.86         127.417 
       0.699536         381.005         124.938 
       0.705665         379.258         122.534 
       0.711789         376.848         120.193 
       0.717957         373.603         117.898 
        0.72409          370.68         115.675 
       0.730186         366.163         113.524 
       0.736317         362.896         111.417 
       0.742472         361.265         109.358 
       0.748622         357.246         107.354 
        0.75476         353.143         105.405 
       0.760888         349.331         103.509 
       0.767043         349.927         101.651 
       0.773185         345.371         99.8432 
       0.779291         340.656         98.0891 
       0.785407          339.42         96.3743 
       0.791564         335.204         94.6896 
       0.797719         332.827         93.0461 
       0.803834         329.925         91.4521 
       0.809972         328.789           89.89 
       0.816124         328.221         88.3614 
       0.822261         323.317         86.8728 
       0.828378          321.28         85.4234 
       0.834502         318.656          84.006 
       0.840667         315.479          82.612 
       0.846816          313.98         81.2538 
       0.852925         311.675         79.9348 
       0.859047         309.763         78.6425 
       0.865192         306.177         77.3746 
       0.871341         303.872         76.1339 
       0.877463         302.527         74.9262 
       0.883569         300.716         73.7478 
       0.889708         297.788         72.5888 
       0.895864         295.072         71.4518 
       0.902008         293.399         70.3417 
       0.908149         291.462         69.2559 
       0.914301         288.173         68.1914 
       0.920448         286.419         67.1503 
       0.926574         283.378         66.1348 
       0.932687         283.655         65.1424 
       0.938823         280.243          64.167 
       0.944975         279.408         63.2094 
       0.951105         277.033         62.2748 
       0.957225         275.018         61.3608 
       0.963368         271.643         60.4622 
       0.969511          270.45         59.5816 
       0.975621         268.201         58.7233 
       0.981748         267.885         57.8798 
       0.987916         265.662         57.0477 
        0.99406         261.783          56.235 
        1.00019         261.619         55.4399 
        1.00632         259.909          54.661 
        1.01246         257.645         53.8959 
        1.01859         257.998         53.1468 
        1.02471         253.904         52.4128 
        1.03085         252.153         51.6903 
        1.03698         251.289         50.9829 
        1.04314         248.692         50.2858 
        1.04929         247.023         49.6034 
        1.05541          247.38         48.9365 
        1.06154         243.489         48.2802 
        1.06769         243.033          47.635 
        1.07382         241.304         47.0037 
        1.07993         239.456         46.3853 
        1.08607         238.723         45.7756 
        1.09222         236.795         45.1762 
        1.09836         234.994         44.5883 
        1.10449          232.58         44.0115 
        1.11063         230.641         43.4444 
        1.11677          230.36         42.8874 
         1.1229         228.576         42.3413 
        1.12903         227.207         41.8041 
        1.13518         225.641         41.2759 
        1.14131         223.829         40.7571 
        1.14745         223.555         40.2475 
        1.15359         221.476         39.7466 
        1.15973         220.079          39.254 
        1.16584         218.262          38.772 
        1.17197         218.143         38.2974 
        1.17811         215.663         37.8293 
        1.18424         214.447         37.3705 
        1.19038         213.744         36.9179 
        1.19652         212.008          36.473 
        1.20267         211.449         36.0355 
        1.20881         209.441         35.6053 
        1.21495         208.236         35.1827 
        1.22108         207.022         34.7672 
         1.2272         205.437         34.3593 
        1.23334         204.509          33.957 
        1.23949         203.121         33.5603 
        1.24562         202.121          33.171 
        1.25174          200.38         32.7884 
        1.25789         198.997         32.4108 
        1.26402         197.582         32.0398 
        1.27014         196.309         31.6755 
        1.27628         195.416         31.3157 
        1.28244          195.22         30.9609 
        1.28858         192.945         30.6121 
        1.29471         191.431         30.2694 
        1.30084         190.796         29.9323 
        1.30697         189.292         29.5998 
        1.31312         187.844         29.2718 
        1.31925         187.302         28.9499 
        1.32537         186.316         28.6332 
        1.33151         184.434           28.32 
        1.33765         183.415         28.0118 
        1.34378         182.682         27.7087 
        1.34992         181.763         27.4099 
        1.35606         181.566         27.1149 
         1.3622         179.635         26.8248 
        1.36833         177.878         26.5396 
        1.37445          177.18         26.2586 
        1.38059         175.835          25.981 
        1.38675         175.187         25.7066 
        1.39288         174.074         25.4373 
        1.39901         173.829          25.172 
        1.40515         171.919         24.9099 
         1.4113         170.935         24.6516 
        1.41742         169.843          24.398 
        1.42355         168.841         24.1475 
         1.4297         167.734         23.8997 
        1.43585         166.811         23.6555 
        1.44198         165.867         23.4157 
        1.44809         165.159         23.1797 
        1.45423         164.049          22.946 
        1.46036         163.047          22.716 
        1.46649         161.862          22.489 
        1.47263         160.797          22.265 
        1.47877         160.059         22.0441 
        1.48491         158.506         21.8259 
        1.49104         158.342         21.6111 
        1.49718         156.631          21.399 
        1.50333         156.105         21.1894 
        1.50947         155.413         20.9831 
         1.5156         154.153         20.7798 
        1.52172         153.402         20.5792 
        1.52787         152.074         20.3809 
          1.534         151.685         20.1854 
        1.54013         150.565         19.9926 
        1.54627         149.786         19.8021 
        1.55241         148.701          19.614 
        1.55855          147.84         19.4286 
        1.56467         146.928         19.2461 
         1.5708         146.158         19.0655 
        1.57695          145.36         18.8869 
        1.58308         144.672          18.711 
        1.58922         143.783         18.5372 
        1.59535         142.621         18.3656 
         1.6015         142.245         18.1961 
        1.60764         141.249         18.0287 
        1.61376          140.31         17.8639 
        1.61989         139.507          17.701 
        1.62604         138.619         17.5398 
        1.63218         138.063         17.3807 
        1.63831         137.009         17.2239 
        1.64444         136.496          17.069 
        1.65059         135.667         16.9157 
        1.65673         134.449         16.7644 
        1.66285         134.169         16.6153 
        1.66898         133.142         16.4681 
        1.67512           132.9         16.3223 
        1.68127         131.517         16.1781 
         1.6874         130.542         16.0361 
        1.69353         130.324         15.8958 
        1.69967         129.409         15.7568 
        1.70581          128.64         15.6196 
        1.71193         127.839         15.4846 
        1.71806         127.308         15.3508 
        1.72421          126.43         15.2183 
        1.73035         126.231         15.0876 
        1.73649         125.268         14.9584 
        1.74262         124.308         14.8309 
        1.74876         123.869         14.7047 
        1.75489         122.848         14.5803 
        1.76101         122.154         14.4573 
        1.76715         121.569         14.3356 
        1.77329         121.282         14.2152 
        1.77943         120.123         14.0961 
        1.78557         119.616         13.9785 
        1.79171         118.863         13.8622 
        1.79785         118.154         13.7473 
        1.80399         117.422         13.6336 
        1.81012         116.837         13.5214 
        1.81625          116.21         13.4106 
        1.82239         115.798         13.3007 
        1.82853         115.037         13.1922 
        1.83466         114.202          13.085 
        1.84078         113.823         12.9791 
        1.84692         112.784         12.8742 
        1.85306         112.569         12.7703 
         1.8592         111.714         12.6677 
        1.86533         110.822         12.5663 
        1.87147         110.341         12.4659 
        1.87761          109.79         12.3666 
        1.88375         108.871         12.2684 
        1.88988         108.487         12.1715 
        1.89601         107.752         12.0755 
        1.90215         107.274         11.9804 
        1.90829           106.7         11.8865 
        1.91442         106.103         11.7935 
        1.92056         105.422         11.7016 
         1.9267         105.072         11.6106 
        1.93284         104.483         11.5205 
        1.93897         103.684         11.4316 
        1.94509          103.32         11.3437 
        1.95123         102.698         11.2566 
        1.95737         102.188         11.1703 
        1.96349         101.586         11.0852 
        1.96964         100.669         11.0007 
        1.97578         100.193          10.917 
        1.98192         99.9899         10.8343 
        1.98805         99.0663         10.7525 
        1.99419         98.8203         10.6716 
        2.00033          98.087         10.5914 
        2.00647         97.6865         10.5121 
         2.0126         96.9615         10.4337 
        2.01874         96.4192         10.3561 
        2.02488         95.9782         10.2791 
        2.03101         95.2997          10.203 
        2.03714         94.7497         10.1278 
        2.04328         94.3928         10.0533 
        2.04941         93.8675         9.97957 
        2.05554         93.2049         9.90664 
        2.06167         92.8766         9.83433 
        2.06781         92.2451         9.76274 
        2.07396         91.7175         9.69176 
        2.08009          91.359          9.6216 
        2.08622         90.7967         9.55222 
        2.09237         90.1589         9.48338 
        2.09851         89.8286         9.41522 
        2.10464         89.3046         9.34783 
        2.11077         88.9351         9.28118 
        2.11691         88.5088         9.21504 
        2.12305         87.7034         9.14953 
        2.12918         87.2394         9.08482 
        2.13531         86.9857         9.02072 
        2.14145         86.1992          8.9571 
         2.1476         85.7367         8.89401 
        2.15372         85.4628         8.83185 
        2.15985         85.0507         8.77022 
        2.16599         84.5124           8.709 
        2.17213         83.9939         8.64843 
        2.17827         83.6411         8.58844 
         2.1844         83.0233         8.52908 
        2.19054         82.8228         8.47026 
        2.19666         82.3059         8.41208 
         2.2028         81.8781         8.35439 
        2.20893         81.3772         8.29721 
        2.21508         80.8758         8.24051 
        2.22122         80.4804         8.18431 
        2.22736         80.1237         8.12875 
        2.23349          79.758         8.07373 
        2.23962         79.2034         8.01918 
        2.24577         78.8872         7.96508 
         2.2519         78.5392         7.91157 
        2.25802         77.9186         7.85862 
        2.26417         77.5321         7.80602 
        2.27031         77.1915         7.75384 
        2.27644         76.6819         7.70229 
        2.28257         76.2505         7.65122 
        2.28872         75.8855          7.6005 
        2.29486         75.3873         7.55026 
        2.30099         75.0084         7.50058 
        2.30712          74.715         7.45131 
        2.31326         74.3123         7.40241 
         2.3194         73.8428         7.35397 
        2.32553         73.5068         7.30605 
        2.33166            73.1         7.25857 
         2.3378         72.6184         7.21145 
        2.34394         72.3085         7.16473 
        2.35007         71.8682         7.11849 
        2.35619         71.5616         7.07271 
        2.36233         71.1555         7.02723 
        2.36848         70.7558         6.98206 
        2.37462         70.3134         6.93737 
        2.38075         70.0989         6.89312 
        2.38689         69.6112         6.84922 
        2.39303         69.2324          6.8057 
        2.39916         68.8538         6.76261 
        2.40529         68.6769          6.7199 
        2.41143         68.1576         6.67752 
        2.41757         67.9037         6.63549 
         2.4237         67.6069         6.59389 
        2.42983         67.1146         6.55266 
        2.43598         66.8191         6.51167 
        2.44211         66.5224         6.47109 
        2.44823         66.1616         6.43095 
        2.45437          65.664         6.39105 
        2.46052         65.3677         6.35144 
        2.46665         65.1286         6.31224 
        2.47279         64.7354         6.27339 
        2.47892         64.4291         6.23483 
        2.48507         63.9555         6.19656 
         2.4912         63.7003         6.15869 
