# k  (h/Mpc)    P(k)  (Mpc/h)^3    P_linear(k)  (Mpc/h)^3
     0.00783031         18873.3         18958.8 
       0.013688         21907.3         22526.5 
       0.019231         21810.6         22175.8 
      0.0249154         20049.5         19986.3 
      0.0312784         16673.3         16847.4 
      0.0375637         13747.8         13995.1 
      0.0433917         11885.3         11944.3 
      0.0492413         10370.8         10493.3 
      0.0555754         9421.06         9454.56 
      0.0619321         8419.65            8732 
       0.067871         7973.62         8145.59 
      0.0738098         7437.82         7518.17 
      0.0800417         6725.86         6772.87 
      0.0862327          5932.4         5983.31 
      0.0921407         5289.77          5259.6 
      0.0982031         4753.08         4618.94 
       0.104506         4186.49         4104.77 
       0.110769         3868.35         3747.91 
       0.116806         3692.43         3518.44 
       0.122832         3486.92         3355.42 
       0.129052         3300.68         3206.77 
       0.135211         3207.12         3041.38 
       0.141259         2957.61         2845.44 
       0.147318         2729.05         2621.57 
       0.153489         2540.05         2385.82 
       0.159709         2413.81         2165.29 
       0.165845         2195.29         1982.92 
       0.171974         2125.17         1842.98 
       0.178125         2048.19         1741.44 
       0.184229            1890         1668.23 
        0.19034         1865.66         1608.26 
       0.196428          1811.3         1548.73 
       0.202534         1699.79         1480.73 
       0.208729         1664.37         1400.88 
       0.214876         1581.08         1314.31 
       0.220989         1497.48         1227.68 
       0.227147         1449.78         1146.96 
        0.23329         1388.21         1077.88 
       0.239377         1378.59         1022.36 
       0.245482         1310.04         978.273 
       0.251667         1262.93         941.946 
       0.257832         1240.23         909.692 
       0.263955         1183.25         877.821 
       0.270079         1149.27         843.766 
        0.27624         1101.67         806.813 
       0.282372         1086.58         768.496 
        0.28843          1065.2         730.998 
       0.294538          1015.4         695.575 
       0.300721         995.189         663.534 
        0.30691         969.194         635.839 
       0.313033         930.766         612.312 
       0.319153         920.536         591.626 
       0.325316         907.547         572.358 
        0.33145         885.716         553.644 
       0.337538          855.59         534.795 
       0.343633         835.902         515.531 
       0.349808         819.064         495.843 
       0.355968         802.987         476.611 
       0.362074         775.902         458.485 
       0.368217         772.996          441.63 
       0.374374         761.201         426.268 
       0.380519         733.093          412.35 
       0.386598         728.136         399.705 
       0.392688         708.908         387.765 
        0.39888         694.485         376.039 
       0.405048         679.224         364.554 
       0.411186         678.437         353.205 
       0.417313         671.777         342.043 
       0.423458          652.72         331.134 
       0.429607          634.61         320.648 
       0.435692         628.056         310.836 
       0.441815         615.706         301.567 
       0.447964         607.456          292.83 
       0.454126         599.698          284.59 
       0.460267         591.493         276.776 
       0.466387         579.538         269.265 
        0.47254         572.237         261.918 
       0.478662         562.362          254.79 
       0.484765         555.397         247.849 
       0.490885         550.555          241.08 
       0.497035         538.407         234.515 
       0.503198         537.912         228.213 
       0.509342         527.463         222.208 
       0.515458         516.936         216.497 
       0.521598         515.221         211.016 
       0.527764         503.518         205.737 
       0.533884         497.718         200.681 
           0.54         494.184         195.779 
       0.546137         486.015         190.997 
       0.552299         483.348         186.333 
       0.558452         476.193         181.817 
       0.564573         473.815         177.463 
       0.570708         467.251         173.243 
       0.576825         458.468         169.182 
       0.582926         457.253          165.28 
       0.589034         449.435         161.514 
       0.595184         445.662         157.851 
       0.601379         438.606         154.279 
       0.607522         431.036         150.842 
       0.613639         430.479         147.518 
       0.619772         427.907         144.281 
       0.625918         419.943         141.132 
       0.632068         418.241         138.073 
       0.638161         413.517         135.131 
         0.6443         407.871         132.255 
       0.650464         404.696         129.454 
       0.656582         400.994         126.758 
       0.662703         397.922         124.142 
       0.668861         391.576         121.588 
       0.675024         390.402         119.106 
       0.681124           382.1         116.718 
       0.687237         381.987         114.389 
       0.693381         376.275         112.111 
       0.699536         376.226          109.89 
       0.705665         370.482         107.737 
       0.711789         368.879         105.645 
       0.717957         364.635         103.594 
        0.72409         360.593         101.611 
       0.730186         361.117         99.6934 
       0.736317         355.128         97.8158 
       0.742472         352.232         95.9804 
       0.748622         350.936         94.1942 
        0.75476         346.704         92.4574 
       0.760888         344.697         90.7667 
       0.767043         341.413         89.1113 
       0.773185         338.526         87.5005 
       0.779291         335.499         85.9388 
       0.785407         333.129          84.413 
       0.791564         331.352         82.9149 
       0.797719         325.998         81.4542 
       0.803834         326.878         80.0385 
       0.809972         321.635         78.6516 
       0.816124         319.354          77.295 
       0.822261         317.057         75.9742 
       0.828378         315.497         74.6886 
       0.834502          310.59         73.4317 
       0.840667          310.35         72.1958 
       0.846816          306.28         70.9919 
       0.852925         306.679          69.823 
       0.859047         302.999         68.6781 
       0.865192         301.527         67.5551 
       0.871341          298.13         66.4566 
       0.877463         296.964         65.3876 
       0.883569         294.682         64.3449 
       0.889708         291.865         63.3196 
       0.895864         288.304         62.3141 
       0.902008          287.32         61.3326 
       0.908149         284.431         60.3729 
       0.914301         283.506         59.4323 
       0.920448         280.474         58.5127 
       0.926574           278.8         57.6158 
       0.932687         278.304         56.7397 
       0.938823         275.139         55.8787 
       0.944975         274.636         55.0337 
       0.951105         272.068         54.2093 
       0.957225         269.065         53.4032 
       0.963368         269.347         52.6108 
       0.969511         265.223         51.8346 
       0.975621         262.868         51.0782 
       0.981748         262.565         50.3351 
       0.987916         260.834         49.6021 
        0.99406         258.392         48.8866 
        1.00019         256.135         48.1866 
        1.00632         255.578          47.501 
        1.01246         253.486         46.8278 
        1.01859         251.087         46.1688 
        1.02471         249.514         45.5234 
        1.03085         248.459          44.888 
        1.03698         247.261         44.2662 
        1.04314         245.796         43.6536 
        1.04929         244.234         43.0541 
        1.05541         242.812         42.4682 
        1.06154         240.498         41.8919 
        1.06769         238.815         41.3254 
        1.07382         236.799         40.7712 
        1.07993         236.119         40.2285 
        1.08607         234.845         39.6935 
        1.09222         232.552         39.1677 
        1.09836         231.544          38.652 
        1.10449          230.26         38.1462 
        1.11063         228.718         37.6489 
        1.11677         226.531         37.1607 
         1.1229         226.351          36.682 
        1.12903         223.776         36.2113 
        1.13518         222.596         35.7485 
        1.14131         221.553         35.2941 
        1.14745         219.655         34.8478 
        1.15359         218.109         34.4092 
        1.15973         217.163         33.9779 
        1.16584         215.701          33.556 
        1.17197         214.851         33.1407 
        1.17811         212.562         32.7311 
        1.18424         211.515         32.3296 
        1.19038         210.758         31.9338 
        1.19652          208.47         31.5447 
        1.20267         207.678         31.1621 
        1.20881         206.389         30.7859 
        1.21495         205.489         30.4166 
        1.22108         204.029         30.0534 
         1.2272         202.444          29.697 
        1.23334         201.186         29.3456 
        1.23949         200.259          28.999 
        1.24562         198.869          28.659 
        1.25174         198.298          28.325 
        1.25789         196.286         27.9953 
        1.26402          195.72         27.6714 
        1.27014          194.58         27.3535 
        1.27628         193.528         27.0396 
        1.28244         191.628           26.73 
        1.28858          190.94         26.4257 
        1.29471         189.495         26.1269 
        1.30084         189.207         25.8329 
        1.30697         187.405         25.5431 
        1.31312         186.556         25.2572 
        1.31925         185.302         24.9767 
        1.32537         184.698         24.7007 
        1.33151         182.943         24.4278 
        1.33765         182.115         24.1593 
        1.34378         181.471         23.8953 
        1.34992         179.724         23.6351 
        1.35606         179.167         23.3782 
         1.3622         177.514         23.1255 
        1.36833         177.262         22.8772 
        1.37445         176.418         22.6327 
        1.38059         174.458          22.391 
        1.38675         173.321         22.1522 
        1.39288          172.81         21.9179 
        1.39901         171.328         21.6871 
        1.40515         170.583         21.4591 
         1.4113          169.87         21.2344 
        1.41742         168.609         21.0138 
        1.42355         167.516          20.796 
         1.4297         166.763         20.5806 
        1.43585         166.212         20.3683 
        1.44198         164.714         20.1598 
        1.44809          164.23         19.9546 
        1.45423         163.207         19.7516 
        1.46036         162.266         19.5517 
        1.46649         160.964         19.3545 
        1.47263         160.433         19.1599 
        1.47877         159.485          18.968 
        1.48491         158.326         18.7785 
        1.49104         156.934          18.592 
        1.49718         156.568         18.4079 
        1.50333         155.135         18.2259 
        1.50947         154.617         18.0468 
         1.5156         153.686         17.8704 
        1.52172         152.773         17.6963 
        1.52787         152.166         17.5242 
          1.534         151.485         17.3546 
        1.54013         150.372         17.1874 
        1.54627         149.752         17.0222 
        1.55241         148.886          16.859 
        1.55855         147.986         16.6983 
        1.56467         147.092           16.54 
         1.5708         146.187         16.3834 
        1.57695           145.6         16.2286 
        1.58308         144.428         16.0761 
        1.58922         143.608         15.9254 
        1.59535         142.895         15.7768 
         1.6015         142.052         15.6298 
        1.60764           141.1         15.4848 
        1.61376         140.437          15.342 
        1.61989         139.664          15.201 
        1.62604         139.023         15.0613 
        1.63218          138.14         14.9235 
        1.63831         137.442         14.7878 
        1.64444         136.368         14.6537 
        1.65059         135.765         14.5209 
        1.65673         134.957         14.3899 
        1.66285         134.368         14.2609 
        1.66898         133.614         14.1334 
        1.67512         132.468         14.0073 
        1.68127         132.097         13.8825 
         1.6874         131.352         13.7596 
        1.69353         130.624         13.6382 
        1.69967         129.845          13.518 
        1.70581         129.285         13.3993 
        1.71193         128.598         13.2825 
        1.71806         127.586         13.1668 
        1.72421         126.835         13.0523 
        1.73035         126.361         12.9392 
        1.73649         125.569         12.8275 
        1.74262         124.726         12.7172 
        1.74876         124.116         12.6082 
        1.75489         123.933         12.5006 
        1.76101         122.798         12.3944 
        1.76715         122.173         12.2892 
        1.77329         121.419         12.1851 
        1.77943         120.639         12.0822 
        1.78557         119.904         11.9806 
        1.79171         119.272         11.8801 
        1.79785         118.561         11.7808 
        1.80399         117.994         11.6827 
        1.81012         117.547         11.5858 
        1.81625         116.639           11.49 
        1.82239         116.363         11.3952 
        1.82853         115.318         11.3015 
        1.83466         114.501         11.2089 
        1.84078         114.254         11.1175 
        1.84692         113.652         11.0269 
        1.85306         112.935         10.9372 
         1.8592         112.399         10.8487 
        1.86533         111.665         10.7612 
        1.87147         110.955         10.6746 
        1.87761           110.5         10.5888 
        1.88375          109.83         10.5041 
        1.88988         109.273         10.4205 
        1.89601         108.672         10.3377 
        1.90215         108.227         10.2557 
        1.90829         107.388         10.1747 
        1.91442           106.7         10.0945 
        1.92056         106.433         10.0153 
         1.9267         105.639         9.93679 
        1.93284         104.939         9.85911 
        1.93897          104.68          9.7824 
        1.94509         104.004         9.70668 
        1.95123         103.377         9.63157 
        1.95737         102.881         9.55719 
        1.96349         102.327         9.48379 
        1.96964         101.655         9.41095 
        1.97578         101.239         9.33884 
        1.98192         100.725         9.26763 
        1.98805         100.304         9.19715 
        1.99419         99.6409          9.1274 
        2.00033          99.075         9.05834 
        2.00647         98.6421         8.99002 
         2.0126         98.0098         8.92251 
        2.01874          97.288         8.85559 
        2.02488         97.0312          8.7893 
        2.03101          96.536         8.72381 
        2.03714         95.8952         8.65904 
        2.04328         95.5183         8.59486 
        2.04941         94.8272         8.53138 
        2.05554         94.6431         8.46859 
        2.06167         93.8247         8.40634 
        2.06781         93.5976         8.34471 
        2.07396         92.8936         8.28361 
        2.08009          92.355         8.22322 
        2.08622         91.9775          8.1635 
        2.09237         91.3537         8.10426 
        2.09851         90.9535         8.04559 
        2.10464         90.5898          7.9876 
        2.11077         89.9853         7.93025 
        2.11691         89.3986         7.87334 
        2.12305         88.9003         7.81698 
        2.12918         88.5343         7.76131 
        2.13531          88.171         7.70617 
        2.14145         87.6935         7.65144 
         2.1476         87.1492         7.59718 
        2.15372         86.6786         7.54372 
        2.15985         86.2706         7.49071 
        2.16599         85.6207         7.43807 
        2.17213         85.3972         7.38598 
        2.17827         84.9115         7.33441 
         2.1844         84.4132         7.28337 
        2.19054           83.91          7.2328 
        2.19666         83.3313         7.18278 
         2.2028         83.2577         7.13319 
        2.20893         82.7587         7.08405 
        2.21508         82.1073          7.0353 
        2.22122         81.7725         6.98701 
        2.22736         81.4977         6.93926 
        2.23349         81.0042         6.89197 
        2.23962         80.6099         6.84509 
        2.24577          80.058         6.79861 
         2.2519         79.6664         6.75263 
        2.25802         79.3062         6.70714 
        2.26417         78.8174         6.66195 
        2.27031         78.2702         6.61712 
        2.27644         78.0039         6.57284 
        2.28257         77.7806         6.52897 
        2.28872         77.2481         6.48541 
        2.29486         76.8661         6.44226 
        2.30099         76.4537         6.39959 
        2.30712          76.149         6.35729 
        2.31326          75.629          6.3153 
         2.3194         75.3356         6.27371 
        2.32553         74.9586         6.23256 
        2.33166           74.57          6.1918 
         2.3378         74.1054         6.15135 
        2.34394         73.7858         6.11125 
        2.35007         73.3444         6.07156 
        2.35619         72.8213         6.03227 
        2.36233         72.4668         5.99323 
        2.36848         72.3067         5.95446 
        2.37462         71.8711         5.91611 
        2.38075         71.4831         5.87813 
        2.38689         71.2262         5.84046 
        2.39303         70.8976         5.80312 
        2.39916         70.4296         5.76615 
        2.40529         70.1367          5.7295 
        2.41143         69.6661         5.69314 
        2.41757         69.2243         5.65708 
         2.4237         69.0292          5.6214 
        2.42983         68.6199         5.58603 
        2.43598         68.3841         5.55086 
        2.44211          68.001         5.51606 
        2.44823         67.5711         5.48164 
        2.45437         67.3496         5.44741 
        2.46052         66.9543         5.41345 
        2.46665         66.4649         5.37983 
        2.47279         66.2139         5.34651 
        2.47892         65.9068         5.31345 
        2.48507         65.5805         5.28064 
         2.4912           65.28         5.24817 
