# k  (h/Mpc)    P(k)  (Mpc/h)^3    P_linear(k)  (Mpc/h)^3
     0.00783031         8491.04         8614.93 
       0.013688         10887.4         10836.4 
       0.019231         11058.1         11049.7 
      0.0249154         10071.7         10235.3 
      0.0312784         8799.36         8865.84 
      0.0375637         7577.94         7571.48 
      0.0433917         6555.61         6638.62 
      0.0492413         5954.61         5984.23 
      0.0555754         5385.43         5510.25 
      0.0619321         5157.94         5150.06 
       0.067871         4715.72         4814.84 
      0.0738098          4335.7         4428.73 
      0.0800417         3857.67         3971.15 
      0.0862327         3448.59         3507.79 
      0.0921407         3101.57         3108.53 
      0.0982031         2761.11         2778.54 
       0.104506         2579.46         2531.91 
       0.110769         2405.42         2369.06 
       0.116806         2274.67         2260.06 
       0.122832         2186.35          2165.8 
       0.129052         2040.47         2057.05 
       0.135211         1919.25          1925.7 
       0.141259         1807.68         1777.79 
       0.147318         1677.81         1625.24 
       0.153489         1527.35         1482.46 
       0.159709         1432.86         1364.09 
       0.165845         1371.37         1276.51 
       0.171974         1296.38         1214.14 
       0.178125         1242.97         1167.65 
       0.184229         1199.65         1126.89 
        0.19034         1126.26         1082.76 
       0.196428         1100.75         1031.12 
       0.202534          1057.4         972.225 
       0.208729         997.294         909.561 
       0.214876         940.513         850.188 
       0.220989         906.833         798.529 
       0.227147         859.763         756.173 
        0.23329          826.91         723.115 
       0.239377         810.768         696.938 
       0.245482         759.924         673.906 
       0.251667         753.308         650.688 
       0.257832          725.86         625.617 
       0.263955         700.185         598.456 
       0.270079         673.585         569.997 
        0.27624         663.119         541.769 
       0.282372         634.909         515.791 
        0.28843         618.761         493.214 
       0.294538         589.254         473.838 
       0.300721         586.023         457.115 
        0.30691         559.763         442.273 
       0.313033         548.575         428.331 
       0.319153         531.612         414.318 
       0.325316         516.396         399.707 
        0.33145         501.026         384.794 
       0.337538         494.008         370.025 
       0.343633         478.026         355.843 
       0.349808         462.258         342.513 
       0.355968         457.634         330.512 
       0.362074         448.361          319.82 
       0.368217         436.251         310.037 
       0.374374         419.202         300.858 
       0.380519           415.4         291.968 
       0.386598         405.141         283.258 
       0.392688         401.892         274.527 
        0.39888         390.649         265.719 
       0.405048         382.253          257.18 
       0.411186         374.886         249.055 
       0.417313         368.077         241.431 
       0.423458         361.096         234.325 
       0.429607         353.748         227.683 
       0.435692         344.774          221.49 
       0.441815         342.219         215.532 
       0.447964         335.509         209.719 
       0.454126         324.245         204.001 
       0.460267         320.198         198.418 
       0.466387         316.583         192.986 
        0.47254         309.665         187.693 
       0.478662         308.539         182.639 
       0.484765         299.086         177.847 
       0.490885         295.459         173.278 
       0.497035         290.872         168.896 
       0.503198         284.684         164.691 
       0.509342         282.155          160.65 
       0.515458         278.676         156.748 
       0.521598         273.577         152.925 
       0.527764         269.172         149.183 
       0.533884         266.249         145.577 
           0.54         262.462         142.093 
       0.546137         261.108         138.721 
       0.552299          255.84         135.457 
       0.558452         253.278         132.321 
       0.564573         249.254         129.317 
       0.570708         244.711         126.411 
       0.576825         241.434         123.605 
       0.582926         238.592         120.886 
       0.589034         235.834         118.234 
       0.595184         233.427         115.637 
       0.601379         231.047         113.097 
       0.607522         226.604         110.656 
       0.613639         225.504         108.302 
       0.619772         220.404         106.017 
       0.625918         218.904         103.796 
       0.632068         216.053         101.641 
       0.638161         214.918         99.5675 
         0.6443         211.442         97.5384 
       0.650464          209.42         95.5592 
       0.656582           207.7         93.6493 
       0.662703         205.542         91.7909 
       0.668861         202.243         89.9718 
       0.675024         199.924         88.2003 
       0.681124         199.085         86.4945 
       0.687237         195.983         84.8309 
       0.693381         193.226         83.2043 
       0.699536         191.929         81.6189 
       0.705665          191.25         80.0831 
       0.711789          187.85         78.5894 
       0.717957          187.09         77.1246 
        0.72409          184.72         75.7059 
       0.730186         182.131         74.3319 
       0.736317         180.812         72.9847 
       0.742472         179.779         71.6661 
       0.748622         178.204         70.3813 
        0.75476         176.714         69.1311 
       0.760888         174.278         67.9133 
       0.767043         173.644         66.7204 
       0.773185         171.774          65.559 
       0.779291         168.964         64.4323 
       0.785407         168.317         63.3309 
       0.791564         166.781         62.2488 
       0.797719          164.54         61.1928 
       0.803834         163.787         60.1684 
       0.809972         162.054         59.1642 
       0.816124         161.884          58.181 
       0.822261         159.757         57.2231 
       0.828378          158.33           56.29 
       0.834502         158.093         55.3771 
       0.840667         155.627         54.4788 
       0.846816         154.361         53.6033 
       0.852925         153.482         52.7528 
       0.859047         151.762         51.9192 
       0.865192         150.798         51.1011 
       0.871341         149.325         50.3003 
       0.877463         148.214         49.5206 
       0.883569         147.241         48.7595 
       0.889708         146.108         48.0108 
       0.895864         144.591          47.276 
       0.902008         143.759         46.5584 
       0.908149         143.042         45.8563 
       0.914301         141.491         45.1676 
       0.920448         140.481          44.494 
       0.926574          139.71         43.8366 
       0.932687         139.166          43.194 
       0.938823         137.266         42.5622 
       0.944975         136.056         41.9417 
       0.951105         135.476         41.3359 
       0.957225         133.894         40.7433 
       0.963368          132.87         40.1604 
       0.969511         132.503          39.589 
       0.975621         131.847         39.0319 
       0.981748         131.019         38.4843 
       0.987916         129.511         37.9438 
        0.99406         128.798         37.4158 
        1.00019         128.136          36.899 
        1.00632         127.119         36.3926 
        1.01246         126.278          35.895 
        1.01859         124.972         35.4076 
        1.02471         124.681         34.9299 
        1.03085          123.39         34.4595 
        1.03698         122.684         33.9989 
        1.04314         121.618         33.5448 
        1.04929         120.892         33.1002 
        1.05541         120.168         32.6655 
        1.06154         119.433         32.2376 
        1.06769         119.179         31.8168 
        1.07382         118.364          31.405 
        1.07993         117.397         31.0015 
        1.08607         116.511         30.6035 
        1.09222         116.029         30.2122 
        1.09836         115.041         29.8282 
        1.10449         114.289         29.4514 
        1.11063         113.583         29.0808 
        1.11677         113.158         28.7168 
         1.1229         111.895         28.3597 
        1.12903         111.127         28.0084 
        1.13518         111.301         27.6629 
        1.14131         110.204         27.3234 
        1.14745         109.415         26.9899 
        1.15359         108.761         26.6619 
        1.15973         108.415         26.3393 
        1.16584         107.432         26.0236 
        1.17197         106.882         25.7126 
        1.17811         106.221         25.4058 
        1.18424         105.568          25.105 
        1.19038         105.019         24.8082 
        1.19652         104.431         24.5163 
        1.20267         103.629         24.2292 
        1.20881         103.001         23.9468 
        1.21495         102.348         23.6694 
        1.22108         101.852         23.3964 
         1.2272         101.024         23.1285 
        1.23334         100.613         22.8641 
        1.23949           99.72         22.6033 
        1.24562         99.4794         22.3473 
        1.25174         98.6885         22.0957 
        1.25789         98.2582         21.8472 
        1.26402         97.8208         21.6031 
        1.27014         96.9894         21.3632 
        1.27628         96.6851         21.1264 
        1.28244         95.9378         20.8927 
        1.28858         95.6325         20.6629 
        1.29471         94.8839         20.4371 
        1.30084         94.3644         20.2149 
        1.30697         93.8219         19.9957 
        1.31312         93.4187         19.7795 
        1.31925         92.8084         19.5672 
        1.32537         92.4504         19.3582 
        1.33151         91.5432         19.1516 
        1.33765         91.1038         18.9481 
        1.34378         90.5533          18.748 
        1.34992         90.3903         18.5507 
        1.35606         89.7999         18.3558 
         1.3622         88.9728         18.1641 
        1.36833         88.8328         17.9757 
        1.37445         88.1787           17.79 
        1.38059         87.6756         17.6064 
        1.38675         87.0954          17.425 
        1.39288         86.6332         17.2468 
        1.39901          86.476         17.0713 
        1.40515         85.9138         16.8978 
         1.4113         85.2284         16.7269 
        1.41742         85.1573         16.5589 
        1.42355         84.3822          16.393 
         1.4297         84.0183         16.2289 
        1.43585         83.3641          16.067 
        1.44198         83.0975         15.9081 
        1.44809         82.6232         15.7516 
        1.45423         82.1354         15.5966 
        1.46036         81.9266          15.444 
        1.46649         81.3896         15.2935 
        1.47263            80.9         15.1448 
        1.47877         80.6781         14.9982 
        1.48491         80.1038         14.8533 
        1.49104          79.687         14.7106 
        1.49718         79.2076         14.5698 
        1.50333         78.7946         14.4305 
        1.50947         78.3382         14.2934 
         1.5156         78.0475         14.1583 
        1.52172         77.5649         14.0249 
        1.52787         77.3942          13.893 
          1.534         76.8759          13.763 
        1.54013         76.3271         13.6348 
        1.54627         76.0403          13.508 
        1.55241         75.5787         13.3828 
        1.55855         75.2514         13.2593 
        1.56467         74.7164         13.1378 
         1.5708         74.5112         13.0175 
        1.57695         74.2537         12.8985 
        1.58308          73.547         12.7813 
        1.58922         73.4712         12.6655 
        1.59535         73.1925         12.5511 
         1.6015         72.5293         12.4381 
        1.60764         72.3078         12.3264 
        1.61376         71.8788         12.2165 
        1.61989         71.4728         12.1078 
        1.62604         71.2603         12.0003 
        1.63218         70.9677         11.8941 
        1.63831         70.4454         11.7894 
        1.64444          70.124          11.686 
        1.65059         69.6311         11.5835 
        1.65673         69.4147         11.4825 
        1.66285         69.0433         11.3829 
        1.66898         68.6919         11.2844 
        1.67512         68.2464          11.187 
        1.68127          67.913         11.0906 
         1.6874         67.6575         10.9956 
        1.69353         67.3431         10.9018 
        1.69967         66.9211         10.8088 
        1.70581         66.7735          10.717 
        1.71193         66.5327         10.6266 
        1.71806         65.8824          10.537 
        1.72421          65.747         10.4483 
        1.73035         65.3629         10.3608 
        1.73649         64.9601         10.2743 
        1.74262         64.7827         10.1888 
        1.74876         64.4428         10.1043 
        1.75489         64.0332         10.0209 
        1.76101         63.8316         9.93842 
        1.76715           63.39         9.85681 
        1.77329         63.1876         9.77602 
        1.77943           62.74         9.69611 
        1.78557         62.5911         9.61722 
        1.79171         62.2183         9.53919 
        1.79785         62.0056         9.46202 
        1.80399         61.6586         9.38573 
        1.81012         61.4668         9.31039 
        1.81625         60.8814         9.23591 
        1.82239         60.6902         9.16214 
        1.82853         60.3209         9.08922 
        1.83466          60.126         9.01717 
        1.84078         59.7427         8.94598 
        1.84692         59.4227         8.87544 
        1.85306         59.2074         8.80559 
         1.8592         58.7873         8.73661 
        1.86533         58.6263          8.6684 
        1.87147         58.2925         8.60085 
        1.87761         58.0727           8.534 
        1.88375         57.8055         8.46794 
        1.88988         57.6883         8.40265 
        1.89601         57.2001         8.33802 
        1.90215         56.9669         8.27402 
        1.90829         56.8096         8.21073 
        1.91442         56.4374          8.1481 
        1.92056         56.0818         8.08618 
         1.9267          55.837         8.02484 
        1.93284         55.5779         7.96411 
        1.93897         55.2835         7.90413 
        1.94509         54.9394          7.8449 
        1.95123         54.8317         7.78613 
        1.95737         54.5927         7.72792 
        1.96349         54.2515         7.67046 
        1.96964         54.1508         7.61342 
        1.97578         53.7701         7.55694 
        1.98192         53.5439         7.50116 
        1.98805         53.3721         7.44593 
        1.99419         52.9715         7.39126 
        2.00033         52.7523         7.33711 
        2.00647          52.546         7.28353 
         2.0126         52.1958         7.23058 
        2.01874         51.9954         7.17807 
        2.02488         51.8626         7.12604 
        2.03101         51.5103         7.07463 
        2.03714         51.2492         7.02377 
        2.04328         51.0285         6.97336 
        2.04941         50.7061         6.92349 
        2.05554         50.4059         6.87415 
        2.06167         50.3508         6.82522 
        2.06781         50.1141         6.77676 
        2.07396         49.7885         6.72871 
        2.08009         49.6312         6.68121 
        2.08622         49.2901         6.63423 
        2.09237         49.0801         6.58761 
        2.09851         48.9046         6.54143 
        2.10464         48.6313         6.49577 
        2.11077         48.4614         6.45061 
        2.11691         48.1687         6.40578 
        2.12305         47.9049         6.36138 
        2.12918         47.6557          6.3175 
        2.13531         47.4531         6.27404 
        2.14145         47.2507         6.23089 
         2.1476         47.0795          6.1881 
        2.15372         46.7825         6.14592 
        2.15985         46.5805          6.1041 
        2.16599         46.4396         6.06256 
        2.17213         46.2733         6.02144 
        2.17827         45.9694         5.98072 
         2.1844         45.7075         5.94041 
        2.19054          45.459         5.90046 
        2.19666         45.3045         5.86094 
         2.2028         45.1188         5.82175 
        2.20893         44.9645         5.78289 
        2.21508         44.7647         5.74436 
        2.22122           44.49         5.70616 
        2.22736         44.2861         5.66839 
        2.23349         44.1588         5.63097 
        2.23962         43.7806         5.59387 
        2.24577          43.612         5.55708 
         2.2519         43.3998         5.52067 
        2.25802         43.3373         5.48464 
        2.26417         43.0657         5.44884 
        2.27031         42.9172         5.41333 
        2.27644         42.5677         5.37824 
        2.28257         42.4653         5.34347 
        2.28872         42.1564         5.30893 
        2.29486         42.0524         5.27472 
        2.30099         41.8874         5.24087 
        2.30712         41.6802         5.20731 
        2.31326         41.4995         5.17399 
         2.3194         41.2486         5.14098 
        2.32553         41.1162         5.10831 
        2.33166         40.9184         5.07595 
         2.3378         40.6432         5.04382 
        2.34394         40.3873         5.01196 
        2.35007         40.2615         4.98042 
        2.35619         40.1876          4.9492 
        2.36233         40.0377         4.91817 
        2.36848         39.6863         4.88734 
        2.37462         39.6304         4.85684 
        2.38075         39.4161         4.82664 
        2.38689         39.3312         4.79666 
        2.39303         39.0849         4.76695 
        2.39916         38.8632         4.73752 
        2.40529         38.6294         4.70835 
        2.41143         38.5398          4.6794 
        2.41757         38.4008         4.65068 
         2.4237         38.2159         4.62226 
        2.42983         38.0405         4.59408 
        2.43598         37.7842         4.56606 
        2.44211         37.6467         4.53832 
        2.44823         37.4886         4.51087 
        2.45437         37.3804         4.48358 
        2.46052         37.0885         4.45649 
        2.46665         36.9983         4.42968 
        2.47279         36.8354          4.4031 
        2.47892         36.6214         4.37672 
        2.48507          36.486         4.35053 
         2.4912         36.3316          4.3246 
