# k  (h/Mpc)    Pcb(k)  (Mpc/h)^3    Pcb_linear(k)  (Mpc/h)^3
     0.00783031         16607.2         16670.8 
       0.013688           21165         21792.4 
       0.019231           22675         23108.2 
      0.0249154         22264.7         22337.2 
      0.0312784         19878.7         20267.1 
      0.0375637         17437.2         17968.4 
      0.0433917         15805.7           16106 
      0.0492413         14218.2         14653.9 
      0.0555754         13158.3         13504.1 
      0.0619321         11864.3         12622.2 
       0.067871         11311.2         11873.8 
      0.0738098         10657.3         11083.1 
      0.0800417         9775.86         10167.1 
      0.0862327         8828.39         9206.52 
      0.0921407         8038.09         8318.23 
      0.0982031          7389.7          7511.2 
       0.104506         6650.36         6833.65 
       0.110769         6198.29         6329.33 
       0.116806         5955.24         5972.32 
       0.122832         5621.77         5692.93 
       0.129052          5325.8         5430.84 
       0.135211         5180.71         5155.92 
       0.141259          4810.7         4853.57 
       0.147318         4475.72         4524.75 
       0.153489         4235.46         4185.77 
       0.159709         4086.34          3867.9 
       0.165845         3748.47         3598.63 
       0.171974         3649.05         3382.14 
       0.178125         3555.31         3213.26 
       0.184229         3283.67         3080.27 
        0.19034         3250.79         2964.42 
       0.196428         3170.75         2850.62 
       0.202534         3003.95         2728.16 
       0.208729         2936.98         2592.94 
       0.214876         2817.05         2452.26 
       0.220989         2701.02         2314.11 
       0.227147         2628.41         2185.17 
        0.23329         2528.88         2072.58 
       0.239377         2522.69         1978.61 
       0.245482         2419.04         1899.87 
       0.251667         2333.02         1831.25 
       0.257832         2295.42         1768.41 
       0.263955         2207.95         1706.67 
       0.270079         2166.78         1642.86 
        0.27624         2077.68          1576.2 
       0.282372         2064.88         1508.88 
        0.28843         2016.79         1444.01 
       0.294538         1941.94         1382.65 
       0.300721         1916.21         1326.49 
        0.30691         1862.59         1276.62 
       0.313033         1806.17         1232.88 
       0.319153         1793.19         1193.19 
       0.325316         1770.53         1155.59 
        0.33145         1734.48         1119.01 
       0.337538         1687.52         1082.74 
       0.343633         1653.65         1046.27 
       0.349808          1632.5         1009.66 
       0.355968         1595.07         974.175 
       0.362074         1562.21         940.803 
       0.368217         1556.17         909.517 
       0.374374         1529.39         880.577 
       0.380519         1485.81         853.922 
       0.386598         1485.63         829.241 
       0.392688         1445.34         805.715 
        0.39888         1427.24         782.539 
       0.405048         1398.85         759.881 
       0.411186         1388.87         737.725 
       0.417313         1387.34         716.057 
       0.423458         1348.31         694.975 
       0.429607         1317.44         674.769 
       0.435692         1308.54         655.762 
       0.441815         1283.97         637.658 
       0.447964         1277.44         620.479 
       0.454126         1260.05         604.106 
       0.460267         1246.76         588.449 
       0.466387         1227.77         573.372 
        0.47254         1206.48         558.637 
       0.478662         1195.36         544.331 
       0.484765         1184.43         530.442 
       0.490885         1171.05         516.945 
       0.497035         1151.38         503.854 
       0.503198         1151.88         491.239 
       0.509342         1129.54         479.175 
       0.515458         1108.93         467.671 
       0.521598         1114.04         456.571 
       0.527764          1086.1         445.816 
       0.533884         1074.59         435.479 
           0.54         1068.75         425.459 
       0.546137         1057.55         415.689 
       0.552299         1046.79         406.153 
       0.558452         1039.39         396.904 
       0.564573         1035.63         387.985 
       0.570708         1021.99         379.338 
       0.576825         1003.65         371.009 
       0.582926         1000.84          362.98 
       0.589034         992.518         355.197 
       0.595184         978.703         347.603 
       0.601379         964.585         340.184 
       0.607522         955.236         333.043 
       0.613639         952.701         326.132 
       0.619772         940.489         319.394 
       0.625918         934.989         312.825 
       0.632068         926.385         306.434 
       0.638161         912.699         300.282 
         0.6443         905.724         294.261 
       0.650464         900.169         288.395 
       0.656582         894.593          282.74 
       0.662703         881.154         277.242 
       0.668861         873.116         271.862 
       0.675024          867.94          266.62 
       0.681124         853.777         261.569 
       0.687237         854.415         256.637 
       0.693381         837.806          251.81 
       0.699536         841.922           247.1 
       0.705665         829.316         242.533 
       0.711789         825.874         238.089 
       0.717957         817.811         233.728 
        0.72409         810.674         229.504 
       0.730186         807.037         225.411 
       0.736317         798.721         221.398 
       0.742472          787.96         217.469 
       0.748622         786.872          213.64 
        0.75476         774.934         209.913 
       0.760888         772.093         206.281 
       0.767043          768.93         202.722 
       0.773185          763.17         199.255 
       0.779291         754.646         195.891 
       0.785407         748.397         192.601 
       0.791564         744.207         189.367 
       0.797719         732.455          186.21 
       0.803834         732.604         183.146 
       0.809972          723.48         180.141 
       0.816124         719.779         177.198 
       0.822261         713.975          174.33 
       0.828378         712.456         171.535 
       0.834502         700.838         168.799 
       0.840667         698.686         166.106 
       0.846816         694.807          163.48 
       0.852925         689.004         160.928 
       0.859047         682.818         158.426 
       0.865192         678.634          155.97 
       0.871341         673.064         153.565 
       0.877463          671.82         151.222 
       0.883569         665.116         148.935 
       0.889708         656.745         146.684 
       0.895864         651.632         144.474 
       0.902008         649.541         142.315 
       0.908149         643.384         140.203 
       0.914301          640.28          138.13 
       0.920448          634.12         136.102 
       0.926574         630.035         134.122 
       0.932687         626.076         132.186 
       0.938823         620.352         130.282 
       0.944975         616.705         128.411 
       0.951105         612.903         126.585 
       0.957225         605.035         124.797 
       0.963368         604.971         123.039 
       0.969511         598.715         121.314 
       0.975621         594.655         119.633 
       0.981748           590.4         117.979 
       0.987916          587.36         116.347 
        0.99406         582.021         114.752 
        1.00019         576.995         113.191 
        1.00632         572.684          111.66 
        1.01246         569.019         110.156 
        1.01859         565.352         108.682 
        1.02471         563.534         107.237 
        1.03085         556.965         105.814 
        1.03698         555.524          104.42 
        1.04314         549.232         103.046 
        1.04929         547.776           101.7 
        1.05541         540.634         100.383 
        1.06154         538.486         99.0873 
        1.06769         534.836         97.8123 
        1.07382         529.863         96.5642 
        1.07993         529.681          95.341 
        1.08607         525.387         94.1341 
        1.09222         521.062         92.9471 
        1.09836         515.869         91.7823 
        1.10449         511.098          90.639 
        1.11063         509.372         89.5141 
        1.11677         504.857         88.4089 
         1.1229         501.687         87.3246 
        1.12903         496.693         86.2576 
        1.13518         496.786         85.2078 
        1.14131         492.463         84.1763 
        1.14745          487.61         83.1626 
        1.15359         484.854         82.1656 
        1.15973         482.242         81.1847 
        1.16584         479.814         80.2245 
        1.17197         476.018         79.2785 
        1.17811          470.44         78.3451 
        1.18424          468.83         77.4296 
        1.19038          466.02         76.5262 
        1.19652         461.291         75.6378 
        1.20267         458.814         74.7636 
        1.20881         456.129         73.9036 
        1.21495         451.102         73.0585 
        1.22108         451.809          72.227 
         1.2272         445.691         71.4105 
        1.23334          443.94         70.6049 
        1.23949          439.88           69.81 
        1.24562         438.428         69.0296 
        1.25174         435.071         68.2624 
        1.25789         431.996         67.5047 
        1.26402         429.244           66.76 
        1.27014         426.777         66.0284 
        1.27628         422.942         65.3057 
        1.28244         420.296         64.5925 
        1.28858         417.462         63.8911 
        1.29471         415.849         63.2017 
        1.30084         412.922         62.5233 
        1.30697         409.266         61.8539 
        1.31312          406.86         61.1933 
        1.31925         404.075         60.5446 
        1.32537         402.424         59.9061 
        1.33151         398.172         59.2745 
        1.33765         395.227         58.6525 
        1.34378         393.957         58.0407 
        1.34992         390.135         57.4373 
        1.35606         387.802         56.8413 
         1.3622         385.448         56.2548 
        1.36833         384.129         55.6782 
        1.37445         381.508           55.11 
        1.38059         377.551          54.548 
        1.38675         375.315         53.9926 
        1.39288         373.055         53.4473 
        1.39901         370.663         52.9098 
        1.40515         369.015         52.3785 
         1.4113         366.421         51.8549 
        1.41742         363.651         51.3404 
        1.42355         361.836          50.832 
         1.4297         360.087         50.3291 
        1.43585         356.113         49.8332 
        1.44198         354.842          49.346 
        1.44809         352.331         48.8662 
        1.45423         349.381         48.3912 
        1.46036         348.255         47.9233 
        1.46649         345.692         47.4616 
        1.47263         342.654         47.0056 
        1.47877         341.753         46.5558 
        1.48491         338.126         46.1113 
        1.49104         335.619         45.6736 
        1.49718         333.679         45.2413 
        1.50333         332.261         44.8139 
        1.50947         329.778          44.393 
         1.5156         326.913         43.9781 
        1.52172         325.325         43.5686 
        1.52787         322.906         43.1635 
          1.534         322.078         42.7641 
        1.54013         319.016         42.3702 
        1.54627         316.936         41.9806 
        1.55241         315.845         41.5959 
        1.55855         312.619         41.2166 
        1.56467         310.796         40.8431 
         1.5708         309.177         40.4732 
        1.57695         307.544         40.1073 
        1.58308         305.854         39.7469 
        1.58922         303.268         39.3907 
        1.59535         300.433          39.039 
         1.6015         299.775         38.6912 
        1.60764           297.8         38.3478 
        1.61376         295.548         38.0096 
        1.61989         293.731         37.6752 
        1.62604          292.39         37.3441 
        1.63218         289.923         37.0172 
        1.63831         288.441          36.695 
        1.64444         286.638         36.3766 
        1.65059         285.054         36.0612 
        1.65673          283.05           35.75 
        1.66285         281.241         35.4433 
        1.66898         279.265         35.1401 
        1.67512         276.902         34.8399 
        1.68127         275.464          34.543 
         1.6874         273.785         34.2503 
        1.69353         273.475         33.9611 
        1.69967         270.873         33.6746 
        1.70581         268.454         33.3916 
        1.71193         267.454         33.1129 
        1.71806         265.663         32.8369 
        1.72421         264.059         32.5634 
        1.73035         262.303         32.2934 
        1.73649         260.892         32.0266 
        1.74262         259.118          31.763 
        1.74876         257.177         31.5022 
        1.75489         256.066         31.2449 
        1.76101         254.097         30.9906 
        1.76715         252.633         30.7387 
        1.77329         250.795         30.4894 
        1.77943         249.248         30.2428 
        1.78557         248.114         29.9993 
        1.79171         246.424         29.7584 
        1.79785         244.036         29.5201 
        1.80399         243.608         29.2846 
        1.81012         241.863         29.0519 
        1.81625         240.681         28.8219 
        1.82239         238.586          28.594 
        1.82853         237.301         28.3688 
        1.83466         235.688         28.1462 
        1.84078         234.347         27.9262 
        1.84692         233.115         27.7083 
        1.85306         231.545         27.4924 
         1.8592         230.433         27.2792 
        1.86533         228.513         27.0684 
        1.87147          228.06         26.8596 
        1.87761         226.073         26.6529 
        1.88375         224.699         26.4487 
        1.88988         223.662         26.2468 
        1.89601         222.037         26.0469 
        1.90215         220.791          25.849 
        1.90829         219.017         25.6533 
        1.91442         217.748         25.4595 
        1.92056         216.556          25.268 
         1.9267         215.872         25.0782 
        1.93284         214.333         24.8903 
        1.93897         212.672         24.7047 
        1.94509         211.283         24.5214 
        1.95123          210.36         24.3396 
        1.95737         209.118         24.1594 
        1.96349         207.495         23.9815 
        1.96964         206.448          23.805 
        1.97578         205.289         23.6301 
        1.98192         204.585         23.4574 
        1.98805         203.231         23.2864 
        1.99419         201.747         23.1171 
        2.00033         201.151         22.9494 
        2.00647         199.197         22.7834 
         2.0126           198.3         22.6194 
        2.01874          196.96         22.4567 
        2.02488         195.594         22.2955 
        2.03101          194.42         22.1362 
        2.03714          193.86         21.9786 
        2.04328         192.567         21.8224 
        2.04941         191.496         21.6678 
        2.05554         190.461         21.5148 
        2.06167         188.851         21.3632 
        2.06781         188.096         21.2129 
        2.07396         186.351          21.064 
        2.08009         185.741         20.9167 
        2.08622         184.865          20.771 
        2.09237         183.311         20.6264 
        2.09851         182.498         20.4832 
        2.10464         181.708         20.3415 
        2.11077         180.528         20.2014 
        2.11691         179.315         20.0624 
        2.12305         178.235         19.9246 
        2.12918         177.223         19.7885 
        2.13531          176.26         19.6536 
        2.14145          175.12         19.5197 
         2.1476         173.953         19.3869 
        2.15372          173.35          19.256 
        2.15985         172.355         19.1262 
        2.16599         171.258         18.9972 
        2.17213         169.965         18.8695 
        2.17827         169.538         18.7431 
         2.1844         168.174         18.6179 
        2.19054         167.202         18.4939 
        2.19666          166.36         18.3712 
         2.2028         165.534         18.2494 
        2.20893          164.63         18.1288 
        2.21508         163.463         18.0091 
        2.22122         162.628         17.8904 
        2.22736         161.838         17.7731 
        2.23349          160.83         17.6568 
        2.23962         159.853         17.5415 
        2.24577         158.599         17.4272 
         2.2519         157.874         17.3141 
        2.25802         156.891         17.2021 
        2.26417         156.212         17.0909 
        2.27031         155.297         16.9805 
        2.27644         154.454         16.8714 
        2.28257         153.766         16.7633 
        2.28872         152.692         16.6559 
        2.29486         151.803         16.5496 
        2.30099         150.907         16.4443 
        2.30712         150.395           16.34 
        2.31326         149.272         16.2363 
         2.3194         148.579         16.1337 
        2.32553         147.614         16.0321 
        2.33166         147.015         15.9314 
         2.3378         145.886         15.8315 
        2.34394         145.219         15.7324 
        2.35007         144.216         15.6342 
        2.35619         143.386         15.5371 
        2.36233           143.2         15.4405 
        2.36848         142.098         15.3446 
        2.37462         141.182         15.2497 
        2.38075         140.399         15.1557 
        2.38689         139.325         15.0624 
        2.39303         139.139         14.9699 
        2.39916         138.217         14.8783 
        2.40529         137.283         14.7875 
        2.41143         136.685         14.6974 
        2.41757         135.591          14.608 
         2.4237         135.255         14.5195 
        2.42983         134.384         14.4317 
        2.43598         133.524         14.3445 
        2.44211         132.873         14.2581 
        2.44823         132.292         14.1726 
        2.45437         131.679         14.0876 
        2.46052         130.621         14.0032 
        2.46665         130.083         13.9197 
        2.47279          129.29         13.8369 
        2.47892         128.642         13.7547 
        2.48507         128.093         13.6731 
         2.4912         127.302         13.5923 
