# k  (h/Mpc)    Pcb(k)  (Mpc/h)^3    Pcb_linear(k)  (Mpc/h)^3
     0.00783031         6883.51         6966.84 
       0.013688         8813.45         8768.97 
       0.019231          9087.6         9078.23 
      0.0249154         8491.84         8615.27 
      0.0312784         7647.08          7701.6 
      0.0375637         6763.58         6765.19 
      0.0433917         5957.97         6035.53 
      0.0492413         5443.63         5475.92 
      0.0555754         4919.28         5028.37 
      0.0619321         4674.75         4670.61 
       0.067871         4270.56         4354.96 
      0.0738098         3939.98         4021.29 
      0.0800417         3544.41         3647.32 
      0.0862327         3212.71         3273.79 
      0.0921407         2922.85         2945.17 
      0.0982031         2627.39         2659.97 
       0.104506         2454.46         2429.24 
       0.110769         2278.62         2259.82 
       0.116806         2137.21         2135.88 
       0.122832         2042.69         2030.28 
       0.129052         1904.25         1922.09 
       0.135211         1795.62         1805.49 
       0.141259         1699.53         1681.41 
       0.147318         1589.28         1554.42 
       0.153489         1457.42         1432.23 
       0.159709         1370.53         1324.99 
       0.165845         1309.91         1238.88 
       0.171974         1232.18          1171.4 
       0.178125         1176.65         1117.53 
       0.184229         1132.79         1071.35 
        0.19034         1061.76         1026.44 
       0.196428         1038.55         979.234 
       0.202534         1000.63         928.492 
       0.208729         946.721         875.181 
       0.214876         893.685         823.505 
       0.220989         863.978         776.313 
       0.227147         816.474         734.956 
        0.23329         784.283         700.261 
       0.239377         767.137          671.35 
       0.245482         718.692         645.988 
       0.251667         711.168         621.971 
       0.257832         685.904         598.089 
       0.263955          661.92          573.68 
       0.270079         638.012         548.688 
        0.27624         628.044         523.691 
       0.282372         601.183         499.934 
        0.28843          584.57         478.324 
       0.294538         557.578         458.816 
       0.300721         553.698         441.322 
        0.30691         528.474         425.633 
       0.313033         517.432         411.278 
       0.319153         500.408         397.501 
       0.325316         486.474         383.787 
        0.33145         471.937         370.163 
       0.337538         465.637         356.752 
       0.343633         450.329         343.689 
       0.349808         436.001         331.084 
       0.355968         430.868         319.357 
       0.362074         421.186          308.62 
       0.368217         409.957         298.658 
       0.374374         394.936         289.348 
       0.380519         390.032         280.528 
       0.386598          380.65         272.108 
       0.392688         377.161         263.859 
        0.39888         366.684         255.639 
       0.405048         358.939         247.655 
       0.411186         351.523         239.974 
       0.417313         345.165         232.647 
       0.423458         338.645         225.685 
       0.429607         331.191         219.102 
       0.435692         322.589         212.946 
       0.441815         320.298         207.052 
       0.447964         314.317         201.371 
       0.454126         302.662         195.866 
       0.460267         299.283         190.544 
       0.466387         295.764         185.383 
        0.47254         289.403         180.347 
       0.478662         287.782          175.51 
       0.484765         279.562         170.876 
       0.490885         275.865         166.419 
       0.497035         271.797         162.128 
       0.503198         265.367         158.011 
       0.509342         262.729         154.067 
       0.515458         259.404         150.277 
       0.521598         255.334         146.591 
       0.527764         251.107         143.002 
       0.533884         247.892         139.549 
           0.54         244.373         136.203 
       0.546137         243.044         132.951 
       0.552299         238.365         129.794 
       0.558452         235.243         126.754 
       0.564573         231.348         123.837 
       0.570708          227.48         121.013 
       0.576825         224.601         118.289 
       0.582926         221.703         115.655 
       0.589034         218.707         113.098 
       0.595184         216.583           110.6 
       0.601379         214.513         108.158 
       0.607522         209.965         105.808 
       0.613639         209.142         103.536 
       0.619772         204.426         101.326 
       0.625918         202.762          99.177 
       0.632068         200.364         97.0925 
       0.638161         199.117         95.0893 
         0.6443         195.948         93.1305 
       0.650464          194.04         91.2208 
       0.656582         192.327         89.3783 
       0.662703         189.713         87.5854 
       0.668861         187.091         85.8306 
       0.675024         184.978         84.1221 
       0.681124         184.016         82.4774 
       0.687237          180.91          80.874 
       0.693381          178.54         79.3065 
       0.699536         177.243         77.7789 
       0.705665         177.172          76.299 
       0.711789         173.323         74.8595 
       0.717957         172.629         73.4476 
        0.72409         170.338         72.0802 
       0.730186         167.753         70.7559 
       0.736317         166.924         69.4576 
       0.742472         165.795         68.1872 
       0.748622         164.424         66.9499 
        0.75476         162.915         65.7461 
       0.760888         160.664          64.574 
       0.767043         159.691         63.4261 
       0.773185         158.048         62.3088 
       0.779291         155.856          61.225 
       0.785407         155.018         60.1657 
       0.791564         153.488         59.1251 
       0.797719         151.526         58.1097 
       0.803834         150.862         57.1248 
       0.809972         148.898         56.1593 
       0.816124         148.724         55.2142 
       0.822261         146.873         54.2935 
       0.828378         145.516         53.3966 
       0.834502         145.075         52.5194 
       0.840667         143.027         51.6563 
       0.846816         141.869         50.8152 
       0.852925         140.724         49.9983 
       0.859047         139.179         49.1977 
       0.865192         138.521         48.4122 
       0.871341         137.085         47.6434 
       0.877463         135.941         46.8949 
       0.883569           134.9         46.1645 
       0.889708         134.009          45.446 
       0.895864          132.74         44.7411 
       0.902008         131.849         44.0527 
       0.908149         131.085         43.3793 
       0.914301         129.631          42.719 
       0.920448         128.833         42.0731 
       0.926574         128.051         41.4429 
       0.932687         127.357          40.827 
       0.938823         125.621         40.2215 
       0.944975         124.738          39.627 
       0.951105         123.994         39.0466 
       0.957225         122.462          38.479 
       0.963368         121.839         37.9208 
       0.969511          121.34         37.3736 
       0.975621         120.785         36.8403 
       0.981748          119.81         36.3161 
       0.987916         118.539         35.7988 
        0.99406         117.974         35.2935 
        1.00019         116.965         34.7991 
        1.00632          116.32         34.3146 
        1.01246         115.357         33.8387 
        1.01859         113.955         33.3726 
        1.02471          114.22         32.9159 
        1.03085         112.989         32.4662 
        1.03698         112.057         32.0259 
        1.04314           111.1         31.5919 
        1.04929         110.522          31.167 
        1.05541         109.779         30.7517 
        1.06154         109.125         30.3429 
        1.06769         108.678          29.941 
        1.07382         108.139         29.5478 
        1.07993         107.345         29.1625 
        1.08607         106.415         28.7825 
        1.09222         105.862         28.4089 
        1.09836         105.037         28.0425 
        1.10449         104.404         27.6829 
        1.11063         103.767         27.3293 
        1.11677         103.212         26.9821 
         1.1229         102.207         26.6415 
        1.12903         101.304         26.3065 
        1.13518         101.536          25.977 
        1.14131         100.643         25.6534 
        1.14745          99.652         25.3354 
        1.15359         99.2082         25.0229 
        1.15973         98.8129         24.7155 
        1.16584         98.0175         24.4146 
        1.17197         97.4248         24.1184 
        1.17811         96.8442         23.8262 
        1.18424         96.0774         23.5397 
        1.19038         95.5685         23.2571 
        1.19652         95.1323         22.9792 
        1.20267         94.3752         22.7059 
        1.20881          93.862         22.4371 
        1.21495         93.1584         22.1731 
        1.22108         92.6304         21.9134 
         1.2272         92.0169         21.6585 
        1.23334         91.5853         21.4071 
        1.23949         90.9083         21.1591 
        1.24562         90.6636         20.9157 
        1.25174         90.0033         20.6765 
        1.25789         89.5123         20.4403 
        1.26402         89.0833         20.2082 
        1.27014         88.1851         19.9804 
        1.27628         88.0437         19.7553 
        1.28244         87.2292         19.5333 
        1.28858         86.8803         19.3151 
        1.29471         86.4333         19.1006 
        1.30084         85.8291         18.8896 
        1.30697         85.2936         18.6815 
        1.31312         84.9022         18.4763 
        1.31925         84.5708         18.2747 
        1.32537         84.1021         18.0764 
        1.33151          83.309         17.8803 
        1.33765         82.9006         17.6873 
        1.34378         82.3655         17.4975 
        1.34992         82.0959         17.3104 
        1.35606         81.6246         17.1256 
         1.3622         80.8801         16.9438 
        1.36833         80.7382         16.7651 
        1.37445         80.1673         16.5891 
        1.38059         79.6207         16.4151 
        1.38675         79.2183         16.2432 
        1.39288         78.6742         16.0744 
        1.39901         78.5867         15.9081 
        1.40515          78.137         15.7438 
         1.4113         77.4866         15.5819 
        1.41742         77.2889         15.4228 
        1.42355         76.6509         15.2658 
         1.4297         76.3019         15.1104 
        1.43585         75.7677         14.9572 
        1.44198         75.5266         14.8068 
        1.44809         75.0386         14.6587 
        1.45423         74.7067         14.5121 
        1.46036         74.3572         14.3678 
        1.46649         73.8789         14.2254 
        1.47263         73.4968         14.0848 
        1.47877         73.2569         13.9462 
        1.48491         72.8087         13.8092 
        1.49104         72.3155         13.6744 
        1.49718         71.9013         13.5412 
        1.50333         71.5663         13.4096 
        1.50947         71.0823         13.2801 
         1.5156         70.8601         13.1524 
        1.52172         70.4555         13.0264 
        1.52787         70.2269         12.9018 
          1.534         69.8458          12.779 
        1.54013         69.3654          12.658 
        1.54627          69.068         12.5383 
        1.55241         68.6216         12.4201 
        1.55855         68.2023         12.3036 
        1.56467         67.7365         12.1889 
         1.5708         67.6492         12.0754 
        1.57695         67.3363         11.9631 
        1.58308          66.875         11.8525 
        1.58922         66.7044         11.7433 
        1.59535         66.3996         11.6355 
         1.6015         65.8209         11.5288 
        1.60764         65.6919         11.4236 
        1.61376         65.2287           11.32 
        1.61989         64.8218         11.2175 
        1.62604         64.6337         11.1162 
        1.63218         64.4153         11.0161 
        1.63831          63.985         10.9175 
        1.64444         63.6981         10.8201 
        1.65059          63.149         10.7236 
        1.65673         63.0007         10.6284 
        1.66285         62.6785         10.5346 
        1.66898         62.3463          10.442 
        1.67512          61.936         10.3503 
        1.68127         61.5997         10.2595 
         1.6874         61.4134         10.1701 
        1.69353         61.0547         10.0818 
        1.69967          60.765         9.99437 
        1.70581         60.6103         9.90799 
        1.71193         60.2916         9.82295 
        1.71806         59.7678         9.73873 
        1.72421         59.6656         9.65533 
        1.73035         59.2436         9.57301 
        1.73649           58.87         9.49166 
        1.74262         58.7316         9.41132 
        1.74876         58.4849         9.33185 
        1.75489         58.0868         9.25347 
        1.76101          57.904         9.17602 
        1.76715         57.4944         9.09934 
        1.77329         57.2658         9.02345 
        1.77943          57.026         8.94838 
        1.78557         56.8116         8.87429 
        1.79171         56.4355         8.80102 
        1.79785         56.2129         8.72857 
        1.80399         55.8633         8.65694 
        1.81012         55.7577         8.58622 
        1.81625         55.1851         8.51632 
        1.82239         55.0364         8.44709 
        1.82853         54.6334         8.37867 
        1.83466         54.5397         8.31107 
        1.84078         54.0722         8.24428 
        1.84692         53.8967         8.17813 
        1.85306         53.6683         8.11262 
         1.8592         53.3411         8.04793 
        1.86533         53.1097         7.98398 
        1.87147         52.8687         7.92065 
        1.87761         52.6742         7.85798 
        1.88375         52.4494         7.79607 
        1.88988         52.3393         7.73489 
        1.89601         51.8595         7.67433 
        1.90215         51.6599         7.61437 
        1.90829         51.4896         7.55509 
        1.91442         51.2088         7.49642 
        1.92056         50.9419         7.43844 
         1.9267         50.5904         7.38101 
        1.93284         50.3682         7.32415 
        1.93897         50.1967           7.268 
        1.94509         49.8736         7.21256 
        1.95123         49.7366         7.15755 
        1.95737         49.5019         7.10309 
        1.96349         49.2226         7.04932 
        1.96964         49.0305         6.99596 
        1.97578         48.7592         6.94313 
        1.98192         48.5555         6.89095 
        1.98805         48.3556          6.8393 
        1.99419         47.9998         6.78817 
        2.00033          47.812         6.73754 
        2.00647         47.6461         6.68745 
         2.0126         47.3656         6.63794 
        2.01874         47.1441         6.58886 
        2.02488         47.0031         6.54024 
        2.03101         46.6703          6.4922 
        2.03714         46.4666         6.44468 
        2.04328         46.2103         6.39758 
        2.04941         45.9644           6.351 
        2.05554         45.7119         6.30491 
        2.06167         45.6676         6.25922 
        2.06781         45.3832         6.21397 
        2.07396         45.1207          6.1691 
        2.08009         44.9654         6.12476 
        2.08622         44.6635          6.0809 
        2.09237         44.4822         6.03739 
        2.09851         44.2272         5.99429 
        2.10464         44.0611         5.95169 
        2.11077         43.9083         5.90955 
        2.11691         43.6424         5.86773 
        2.12305          43.366          5.8263 
        2.12918         43.2309         5.78538 
        2.13531         43.0234         5.74485 
        2.14145         42.8634         5.70461 
         2.1476         42.6314         5.66471 
        2.15372         42.3744         5.62539 
        2.15985         42.2684         5.58641 
        2.16599         42.1193         5.54768 
        2.17213         42.0191         5.50936 
        2.17827          41.635         5.47141 
         2.1844         41.4139         5.43386 
        2.19054          41.225         5.39664 
        2.19666         41.0775         5.35982 
         2.2028         40.9057         5.32332 
        2.20893         40.7492         5.28713 
        2.21508         40.5553         5.25125 
        2.22122         40.3131         5.21568 
        2.22736         40.1011         5.18052 
        2.23349         39.9812         5.14569 
        2.23962         39.7224         5.11116 
        2.24577          39.528         5.07692 
         2.2519         39.3466         5.04304 
        2.25802         39.2927         5.00952 
        2.26417         39.0219         4.97621 
        2.27031         38.8921         4.94318 
        2.27644         38.5851         4.91054 
        2.28257          38.485          4.8782 
        2.28872          38.252         4.84609 
        2.29486          38.138         4.81427 
        2.30099         37.9892          4.7828 
        2.30712         37.7797          4.7516 
        2.31326         37.6419         4.72063 
         2.3194         37.4454         4.68995 
        2.32553         37.2646         4.65959 
        2.33166         37.0711         4.62952 
         2.3378         36.9343         4.59966 
        2.34394         36.6624         4.57007 
        2.35007         36.5414         4.54077 
        2.35619         36.4926         4.51177 
        2.36233            36.3         4.48295 
        2.36848         36.0304         4.45432 
        2.37462         35.9884         4.42601 
        2.38075         35.7312         4.39797 
        2.38689         35.6451         4.37014 
        2.39303         35.4627         4.34257 
        2.39916         35.2667         4.31525 
        2.40529         35.0247         4.28818 
        2.41143         34.9498         4.26132 
        2.41757         34.8057         4.23467 
         2.4237         34.6393         4.20831 
        2.42983         34.5097         4.18217 
        2.43598         34.2917         4.15618 
        2.44211         34.1831         4.13046 
        2.44823         34.0075         4.10501 
        2.45437         33.9062          4.0797 
        2.46052         33.6961         4.05459 
        2.46665         33.5697         4.02973 
        2.47279         33.4395         4.00509 
        2.47892         33.2131         3.98064 
        2.48507         33.0844         3.95637 
         2.4912         32.9397         3.93235 
