# k  (h/Mpc)    Pcb(k)  (Mpc/h)^3    Pcb_linear(k)  (Mpc/h)^3
     0.00783031         1174.13          1185.3 
       0.013688         1491.43         1492.52 
       0.019231         1545.56         1545.42 
      0.0249154         1457.95         1466.74 
      0.0312784         1309.33         1311.27 
      0.0375637         1154.16         1151.88 
      0.0433917         1025.04         1027.66 
      0.0492413         932.614         932.394 
      0.0555754         851.502           856.2 
      0.0619321         798.332         795.291 
       0.067871          738.41         741.548 
      0.0738098          681.26         684.736 
      0.0800417           616.1         621.059 
      0.0862327         555.209         557.457 
      0.0921407         501.045         501.501 
      0.0982031         451.314          452.94 
       0.104506         415.801         413.652 
       0.110769         386.354         384.804 
       0.116806         362.949         363.699 
       0.122832         346.567         345.718 
       0.129052         326.084         327.295 
       0.135211         306.226         307.441 
       0.141259         286.883         286.313 
       0.147318         266.589         264.689 
       0.153489         244.934         243.883 
       0.159709         227.309         225.623 
       0.165845         214.619         210.959 
       0.171974         201.338         199.469 
       0.178125         192.433         190.295 
       0.184229         185.048         182.432 
        0.19034         175.325         174.785 
       0.196428          168.81         166.746 
       0.202534         161.622         158.106 
       0.208729         151.881         149.028 
       0.214876         142.329         140.229 
       0.220989         136.063         132.193 
       0.227147         127.593          125.15 
        0.23329         121.874         119.242 
       0.239377         117.489         114.319 
       0.245482         112.024         110.001 
       0.251667         109.121         105.911 
       0.257832         104.948         101.844 
       0.263955         100.796         97.6879 
       0.270079         96.7139         93.4322 
        0.27624         93.3963         89.1757 
       0.282372         89.3212         85.1303 
        0.28843         85.2743         81.4505 
       0.294538         81.9015         78.1286 
       0.300721         79.6454         75.1497 
        0.30691         76.3058         72.4781 
       0.313033         73.9227         70.0338 
       0.319153         70.6258         67.6877 
       0.325316         69.4033         65.3524 
        0.33145         66.7901         63.0324 
       0.337538         64.7903         60.7489 
       0.343633         62.3875         58.5244 
       0.349808         60.4353          56.378 
       0.355968          58.536         54.3812 
       0.362074         56.6206         52.5528 
       0.368217         54.9602         50.8564 
       0.374374         53.1926         49.2711 
       0.380519         51.8593         47.7692 
       0.386598         50.4467         46.3354 
       0.392688         49.2764         44.9308 
        0.39888         47.7594          43.531 
       0.405048         46.5502         42.1715 
       0.411186          45.367         40.8635 
       0.417313         43.8089         39.6158 
       0.423458         42.6937         38.4304 
       0.429607         41.4798         37.3094 
       0.435692         40.2553         36.2612 
       0.441815         39.4787         35.2576 
       0.447964          38.773         34.2901 
       0.454126         37.3244         33.3528 
       0.460267         36.5699         32.4464 
       0.466387         35.4755         31.5677 
        0.47254         34.8806         30.7101 
       0.478662         34.1915         29.8865 
       0.484765         33.2043         29.0974 
       0.490885         32.4116         28.3383 
       0.497035          31.959         27.6077 
       0.503198         31.1174         26.9066 
       0.509342         30.3429          26.235 
       0.515458         29.6597         25.5896 
       0.521598         29.1255          24.962 
       0.527764         28.4656         24.3509 
       0.533884         27.9574         23.7628 
           0.54         27.3576         23.1931 
       0.546137          26.861         22.6393 
       0.552299         26.3868         22.1018 
       0.558452         25.5699         21.5842 
       0.564573         25.2239         21.0874 
       0.570708         24.7697         20.6065 
       0.576825         24.1289         20.1426 
       0.582926         23.7122         19.6942 
       0.589034          23.055         19.2587 
       0.595184         22.7337         18.8333 
       0.601379         22.2848         18.4175 
       0.607522         21.9251         18.0173 
       0.613639         21.6688         17.6304 
       0.619772         21.0945         17.2541 
       0.625918         20.9399         16.8882 
       0.632068         20.5885         16.5332 
       0.638161         20.1161         16.1921 
         0.6443         19.7061         15.8586 
       0.650464         19.3344         15.5334 
       0.656582         19.1898         15.2196 
       0.662703         18.8321         14.9143 
       0.668861         18.4831         14.6155 
       0.675024         18.1323         14.3246 
       0.681124         17.8211         14.0445 
       0.687237         17.5403         13.7715 
       0.693381         17.3365         13.5046 
       0.699536         16.8719         13.2445 
       0.705665         16.7319         12.9924 
       0.711789         16.4287         12.7473 
       0.717957         16.1783         12.5069 
        0.72409         15.9145         12.2741 
       0.730186         15.7063         12.0486 
       0.736317         15.5301         11.8275 
       0.742472         15.2773         11.6112 
       0.748622         15.0583         11.4005 
        0.75476         14.7483         11.1955 
       0.760888         14.5777         10.9959 
       0.767043            14.4         10.8004 
       0.773185         14.1128         10.6102 
       0.779291         14.0106         10.4256 
       0.785407         13.8006         10.2452 
       0.791564         13.5674          10.068 
       0.797719         13.3278         9.89512 
       0.803834         13.2494         9.72741 
       0.809972         13.1214         9.56301 
       0.816124         12.8259         9.40206 
       0.822261         12.6705         9.24528 
       0.828378         12.5205         9.09256 
       0.834502         12.4025         8.94319 
       0.840667         12.1995         8.79622 
       0.846816         11.9884           8.653 
       0.852925         11.8806         8.51389 
       0.859047         11.7359         8.37756 
       0.865192         11.6303          8.2438 
       0.871341         11.5082         8.11289 
       0.877463         11.3211         7.98543 
       0.883569         11.1453         7.86106 
       0.889708          10.967         7.73871 
       0.895864         10.8927         7.61867 
       0.902008         10.7806         7.50145 
       0.908149         10.6582         7.38678 
       0.914301         10.5203         7.27434 
       0.920448         10.3527         7.16435 
       0.926574         10.2389         7.05704 
       0.932687         10.1469         6.95217 
       0.938823         10.0079         6.84906 
       0.944975         9.87723         6.74782 
       0.951105         9.79217           6.649 
       0.957225         9.73225         6.55234 
       0.963368         9.60006         6.45728 
       0.969511         9.50023         6.36412 
       0.975621         9.38295          6.2733 
       0.981748         9.28313         6.18403 
       0.987916         9.19955         6.09594 
        0.99406         9.05749          6.0099 
        1.00019         8.92335         5.92571 
        1.00632         8.90469         5.84321 
        1.01246         8.80007         5.76217 
        1.01859         8.67549          5.6828 
        1.02471         8.60502         5.60503 
        1.03085         8.51907         5.52846 
        1.03698           8.399         5.45348 
        1.04314         8.33976         5.37958 
        1.04929         8.23038         5.30723 
        1.05541         8.14003         5.23651 
        1.06154         8.07473          5.1669 
        1.06769         8.03425         5.09846 
        1.07382         7.90583          5.0315 
        1.07993         7.83234         4.96589 
        1.08607         7.77677         4.90118 
        1.09222         7.69936         4.83757 
        1.09836         7.61902         4.77517 
        1.10449         7.54397         4.71395 
        1.11063         7.47527         4.65374 
        1.11677         7.41968          4.5946 
         1.1229         7.35325         4.53661 
        1.12903         7.27321         4.47956 
        1.13518         7.19303         4.42346 
        1.14131         7.11475         4.36835 
        1.14745         7.03939         4.31421 
        1.15359         7.00156         4.26099 
        1.15973         6.93305         4.20864 
        1.16584         6.84694         4.15741 
        1.17197         6.79507         4.10697 
        1.17811         6.75533         4.05721 
        1.18424         6.70001         4.00842 
        1.19038          6.6556          3.9603 
        1.19652         6.58479         3.91299 
        1.20267         6.50964         3.86645 
        1.20881         6.47835         3.82068 
        1.21495         6.42138         3.77572 
        1.22108         6.34931          3.7315 
         1.2272         6.31808         3.68809 
        1.23334         6.23491         3.64528 
        1.23949         6.18415         3.60304 
        1.24562         6.15484         3.56159 
        1.25174         6.08657         3.52086 
        1.25789         6.04518         3.48065 
        1.26402         6.00052         3.44113 
        1.27014         5.94509         3.40233 
        1.27628         5.89567         3.36401 
        1.28244         5.82789         3.32621 
        1.28858         5.81427         3.28904 
        1.29471         5.74986         3.25252 
        1.30084          5.6959          3.2166 
        1.30697         5.69471         3.18116 
        1.31312         5.58686          3.1462 
        1.31925         5.56561         3.11189 
        1.32537         5.51943         3.07812 
        1.33151         5.49846         3.04473 
        1.33765         5.42712         3.01186 
        1.34378         5.38904         2.97954 
        1.34992         5.36531         2.94767 
        1.35606         5.30351          2.9162 
         1.3622         5.28024         2.88525 
        1.36833         5.23784         2.85483 
        1.37445         5.20001         2.82485 
        1.38059         5.17846         2.79522 
        1.38675         5.13577         2.76595 
        1.39288         5.09312         2.73721 
        1.39901         5.04051         2.70889 
        1.40515         5.01241         2.68091 
         1.4113         4.97906         2.65334 
        1.41742         4.94584         2.62626 
        1.42355         4.90323         2.59951 
         1.4297         4.86362         2.57305 
        1.43585          4.8461         2.54697 
        1.44198           4.822         2.52136 
        1.44809         4.76746         2.49614 
        1.45423         4.73255         2.47118 
        1.46036         4.69825          2.4466 
        1.46649         4.66237         2.42235 
        1.47263         4.62852         2.39841 
        1.47877         4.59304         2.37481 
        1.48491         4.56608         2.35148 
        1.49104         4.54142         2.32852 
        1.49718         4.50897         2.30585 
        1.50333         4.48317         2.28344 
        1.50947         4.44864         2.26138 
         1.5156         4.41963         2.23964 
        1.52172         4.39493         2.21819 
        1.52787         4.36805         2.19697 
          1.534         4.33075         2.17606 
        1.54013         4.31155         2.15545 
        1.54627         4.26912         2.13506 
        1.55241         4.24275         2.11494 
        1.55855         4.22656          2.0951 
        1.56467         4.19658         2.07557 
         1.5708         4.16712         2.05624 
        1.57695         4.13404         2.03712 
        1.58308         4.10512         2.01829 
        1.58922         4.09402         1.99969 
        1.59535         4.06688         1.98133 
         1.6015         4.03749         1.96317 
        1.60764           4.012         1.94525 
        1.61376         3.98895         1.92761 
        1.61989         3.96434         1.91017 
        1.62604         3.93511          1.8929 
        1.63218         3.92452         1.87586 
        1.63831          3.8942         1.85907 
        1.64444         3.86943         1.84248 
        1.65059         3.83776         1.82605 
        1.65673         3.82631         1.80984 
        1.66285         3.79206         1.79388 
        1.66898         3.77611          1.7781 
        1.67512         3.74732         1.76248 
        1.68127         3.72773         1.74703 
         1.6874         3.71512         1.73181 
        1.69353         3.67694         1.71677 
        1.69967         3.66274         1.70188 
        1.70581         3.64687         1.68717 
        1.71193         3.62394         1.67269 
        1.71806         3.60601         1.65835 
        1.72421         3.58292         1.64415 
        1.73035         3.56596         1.63013 
        1.73649          3.5399         1.61628 
        1.74262         3.51731         1.60259 
        1.74876         3.50934         1.58906 
        1.75489         3.48608         1.57572 
        1.76101         3.45745         1.56253 
        1.76715         3.44545         1.54947 
        1.77329         3.42935         1.53655 
        1.77943         3.39653         1.52376 
        1.78557         3.38897         1.51115 
        1.79171          3.3694         1.49867 
        1.79785         3.34731         1.48633 
        1.80399         3.33022         1.47414 
        1.81012         3.31738         1.46209 
        1.81625         3.29396         1.45019 
        1.82239         3.27535          1.4384 
        1.82853         3.25547         1.42675 
        1.83466         3.24827         1.41524 
        1.84078         3.22887         1.40387 
        1.84692         3.21468          1.3926 
        1.85306         3.18792         1.38145 
         1.8592         3.17074         1.37043 
        1.86533         3.15612         1.35954 
        1.87147         3.14542         1.34876 
        1.87761         3.12585         1.33809 
        1.88375         3.10637         1.32754 
        1.88988         3.09055         1.31713 
        1.89601         3.07693         1.30681 
        1.90215         3.05821          1.2966 
        1.90829         3.03914         1.28651 
        1.91442         3.03067         1.27652 
        1.92056           3.009         1.26665 
         1.9267         2.99972         1.25687 
        1.93284         2.98529         1.24718 
        1.93897         2.96943         1.23762 
        1.94509         2.94813         1.22818 
        1.95123         2.93347         1.21882 
        1.95737         2.91771         1.20954 
        1.96349          2.9085         1.20039 
        1.96964          2.9003          1.1913 
        1.97578         2.87739          1.1823 
        1.98192         2.86701         1.17342 
        1.98805         2.85333         1.16462 
        1.99419         2.83944         1.15592 
        2.00033         2.83133         1.14729 
        2.00647         2.81143         1.13876 
         2.0126         2.80194         1.13033 
        2.01874         2.77958         1.12198 
        2.02488         2.77239          1.1137 
        2.03101         2.75197         1.10552 
        2.03714         2.74153         1.09742 
        2.04328          2.7305         1.08941 
        2.04941         2.71003         1.08147 
        2.05554         2.70545         1.07362 
        2.06167          2.6924         1.06584 
        2.06781         2.68201         1.05814 
        2.07396         2.67038          1.0505 
        2.08009         2.65575         1.04295 
        2.08622         2.63897         1.03548 
        2.09237         2.63325         1.02807 
        2.09851          2.6187         1.02073 
        2.10464         2.61061         1.01348 
        2.11077         2.59509          1.0063 
        2.11691         2.58368        0.999179 
        2.12305          2.5747        0.992126 
        2.12918         2.56521        0.985157 
        2.13531         2.55251        0.978255 
        2.14145         2.53932        0.971403 
         2.1476         2.52474        0.964609 
        2.15372         2.51448        0.957914 
        2.15985          2.5037        0.951275 
        2.16599         2.49421         0.94468 
        2.17213         2.47877        0.938156 
        2.17827         2.47169        0.931694 
         2.1844         2.46073        0.925298 
        2.19054         2.45234        0.918961 
        2.19666         2.43838        0.912692 
         2.2028         2.42762        0.906476 
        2.20893         2.41813        0.900314 
        2.21508         2.40672        0.894203 
        2.22122         2.39471        0.888147 
        2.22736         2.38384        0.882159 
        2.23349         2.37865        0.876228 
        2.23962         2.36426        0.870349 
        2.24577         2.35602        0.864518 
         2.2519         2.34494        0.858749 
        2.25802         2.33912        0.853041 
        2.26417         2.32826         0.84737 
        2.27031          2.3172        0.841744 
        2.27644         2.30915        0.836186 
        2.28257         2.29655        0.830679 
        2.28872          2.2893        0.825211 
        2.29486         2.27911        0.819793 
        2.30099         2.26877        0.814435 
        2.30712         2.25688        0.809122 
        2.31326          2.2523        0.803847 
         2.3194         2.24104        0.798623 
        2.32553         2.23239        0.793454 
        2.33166         2.22373        0.788332 
         2.3378         2.21472        0.783249 
        2.34394         2.20555        0.778209 
        2.35007         2.19499        0.773221 
        2.35619         2.19128        0.768282 
        2.36233         2.17913        0.763375 
        2.36848            2.17          0.7585 
        2.37462         2.16361        0.753679 
        2.38075         2.15299        0.748904 
        2.38689         2.14618        0.744166 
        2.39303         2.13711         0.73947 
        2.39916         2.12831        0.734819 
        2.40529         2.11971        0.730209 
        2.41143         2.11059        0.725635 
        2.41757         2.10213        0.721098 
         2.4237         2.09703        0.716608 
        2.42983         2.08176        0.712157 
        2.43598         2.08301        0.707731 
        2.44211         2.06943        0.703351 
        2.44823         2.06454        0.699017 
        2.45437         2.05436        0.694708 
        2.46052         2.04793        0.690432 
        2.46665         2.04123        0.686199 
        2.47279         2.03169        0.682003 
        2.47892         2.02495         0.67784 
        2.48507         2.01852        0.673707 
         2.4912         2.00651        0.669616 
