# k  (h/Mpc)    P(k)  (Mpc/h)^3    P_linear(k)  (Mpc/h)^3
     0.00783031         6858.83         6932.05 
       0.013688         7457.65         7603.78 
       0.019231         6858.05         6923.09 
      0.0249154         5787.56         5757.39 
      0.0312784         4491.55         4488.97 
      0.0375637         3542.49         3555.51 
      0.0433917         3015.11         3002.79 
      0.0492413         2670.84         2673.72 
      0.0555754         2465.45         2452.71 
      0.0619321          2226.1         2259.65 
       0.067871         2040.29         2045.48 
      0.0738098         1798.15         1792.62 
      0.0800417         1535.18         1518.45 
      0.0862327         1292.39         1279.89 
      0.0921407          1125.6         1108.74 
      0.0982031         1018.68          993.83 
       0.104506         932.601         924.911 
       0.110769         892.149         883.063 
       0.116806         861.268         844.819 
       0.122832         802.519         793.948 
       0.129052         738.507         725.031 
       0.135211         672.308         648.009 
       0.141259         596.442         575.635 
       0.147318          533.48         515.815 
       0.153489         492.607         471.955 
       0.159709         468.644         443.506 
       0.165845         439.001         425.427 
       0.171974         433.059         410.551 
       0.178125          414.04         393.288 
       0.184229         385.985         371.299 
        0.19034         366.114         345.174 
       0.196428         342.284         317.948 
       0.202534         311.226         292.757 
       0.208729         298.274          271.71 
       0.214876         283.415         255.962 
       0.220989         265.722         244.503 
       0.227147         260.088         235.414 
        0.23329         250.555         226.882 
       0.239377         243.875          217.62 
       0.245482         230.428         207.077 
       0.251667         218.018         195.511 
       0.257832         211.971         184.005 
       0.263955          197.79         173.523 
       0.270079         188.143         164.525 
        0.27624         179.932         157.084 
       0.282372         174.347         150.945 
        0.28843         172.122           145.6 
       0.294538         164.054         140.412 
       0.300721         157.331         135.012 
        0.30691         153.779         129.366 
       0.313033          146.31          123.67 
       0.319153         142.809         118.126 
       0.325316          137.36         112.933 
        0.33145         132.417         108.296 
       0.337538         127.416         104.226 
       0.343633         123.494          100.58 
       0.349808         119.469         97.1706 
       0.355968         116.341         93.8919 
       0.362074          113.43         90.6793 
       0.368217         110.548         87.4494 
       0.374374         107.335         84.2545 
       0.380519         102.678         81.1781 
       0.386598         100.197         78.2992 
       0.392688         96.8313         75.6215 
        0.39888         95.0857         73.1075 
       0.405048         92.6049         70.7762 
       0.411186         90.6443         68.5877 
       0.417313         88.2292         66.4887 
       0.423458         85.7859         64.4353 
       0.429607         83.7092           62.43 
       0.435692         82.4137         60.5007 
       0.441815         79.6404         58.6258 
       0.447964         77.0413         56.8272 
       0.454126         75.5691         55.1214 
       0.460267         74.7882         53.5121 
       0.466387         72.6687         51.9878 
        0.47254         71.7208         50.5239 
       0.478662         69.1578         49.1238 
       0.484765         67.8975         47.7726 
       0.490885          66.108         46.4566 
       0.497035         65.4595         45.1761 
       0.503198         63.9948         43.9391 
       0.509342         62.2384         42.7536 
       0.515458         61.1527         41.6205 
       0.521598          59.576          40.529 
       0.527764         58.8477         39.4779 
       0.533884         58.1904          38.475 
           0.54         56.5689         37.5084 
       0.546137         55.0909         36.5693 
       0.552299         53.9837         35.6555 
       0.558452          52.964         34.7724 
       0.564573         52.6123          33.923 
       0.570708         51.0766         33.1008 
       0.576825         50.5103         32.3095 
       0.582926         49.8029         31.5472 
       0.589034         48.7884         30.8094 
       0.595184         48.0696          30.091 
       0.601379         46.9321         29.3911 
       0.607522         45.9109         28.7192 
       0.613639         45.5164         28.0712 
       0.619772         44.5103         27.4413 
       0.625918         44.0425         26.8292 
       0.632068         43.2989         26.2353 
       0.638161         42.4983         25.6646 
         0.6443         42.1129         25.1069 
       0.650464         41.0259          24.564 
       0.656582         40.8639         24.0415 
       0.662703         40.1919         23.5344 
       0.668861         39.2515         23.0392 
       0.675024         38.9906         22.5581 
       0.681124         38.4917         22.0955 
       0.687237         37.7642         21.6451 
       0.693381         37.1956          21.205 
       0.699536         36.8169         20.7764 
       0.705665         36.2349         20.3615 
       0.711789         35.6614         19.9583 
       0.717957         35.0799         19.5634 
        0.72409         34.6655         19.1814 
       0.730186         34.4272          18.812 
       0.736317         33.7866         18.4504 
       0.742472         33.3327          18.097 
       0.748622         32.8373         17.7533 
        0.75476         32.3421         17.4193 
       0.760888         32.2297         17.0944 
       0.767043         31.5327         16.7766 
       0.773185         31.0902         16.4675 
       0.779291         30.7255          16.168 
       0.785407         30.3936         15.8755 
       0.791564         30.2822         15.5885 
       0.797719         29.5838         15.3087 
       0.803834         29.4421         15.0376 
       0.809972         29.0022         14.7721 
       0.816124         28.6705         14.5125 
       0.822261         28.2509         14.2598 
       0.828378         28.1106         14.0139 
       0.834502         27.7532         13.7737 
       0.840667         27.4718         13.5375 
       0.846816         27.0632         13.3076 
       0.852925         26.8102         13.0845 
       0.859047         26.6588          12.866 
       0.865192         26.2298         12.6519 
       0.871341         25.9319         12.4424 
       0.877463         25.6066         12.2388 
       0.883569          25.506         12.0401 
       0.889708         25.1553          11.845 
       0.895864         24.8799         11.6536 
       0.902008         24.6499         11.4669 
       0.908149         24.2983         11.2844 
       0.914301         24.0939         11.1056 
       0.920448         23.9402         10.9309 
       0.926574         23.6211         10.7605 
       0.932687         23.3529         10.5942 
       0.938823         23.0398         10.4308 
       0.944975         22.8505         10.2704 
       0.951105         22.6879          10.114 
       0.957225         22.4708          9.9612 
       0.963368         22.2333           9.811 
       0.969511         22.0184         9.66389 
       0.975621         21.8562         9.52061 
       0.981748         21.5992         9.37986 
       0.987916         21.4183         9.24108 
        0.99406          21.174         9.10563 
        1.00019         21.0151         8.97317 
        1.00632         20.8659         8.84346 
        1.01246         20.6275         8.71613 
        1.01859          20.449         8.59152 
        1.02471         20.2637          8.4695 
        1.03085         20.1266         8.34943 
        1.03698         19.9953         8.23196 
        1.04314         19.7739         8.11624 
        1.04929         19.5122         8.00303 
        1.05541         19.4703         7.89243 
        1.06154         19.2793         7.78366 
        1.06769         19.0274         7.67677 
        1.07382         18.9156         7.57225 
        1.07993          18.775         7.46991 
        1.08607         18.5901         7.36905 
        1.09222         18.4456         7.26995 
        1.09836         18.2641         7.17279 
        1.10449         18.1917         7.07753 
        1.11063         18.0129         6.98389 
        1.11677         17.9527         6.89199 
         1.1229         17.7411         6.80191 
        1.12903         17.5807         6.71336 
        1.13518         17.5269         6.62631 
        1.14131         17.3656         6.54086 
        1.14745         17.1804         6.45697 
        1.15359         16.9847         6.37454 
        1.15973         16.9441         6.29352 
        1.16584         16.7722         6.21427 
        1.17197         16.6022         6.13627 
        1.17811          16.508         6.05938 
        1.18424         16.3283         5.98403 
        1.19038         16.2741         5.90974 
        1.19652         16.0963         5.83674 
        1.20267         16.0427         5.76498 
        1.20881         15.8845         5.69444 
        1.21495          15.822         5.62519 
        1.22108         15.7227         5.55711 
         1.2272         15.5586          5.4903 
        1.23334         15.4916         5.42445 
        1.23949         15.3574         5.35951 
        1.24562         15.2204         5.29582 
        1.25174         15.1583         5.23326 
        1.25789         15.0564         5.17152 
        1.26402         14.9514         5.11088 
        1.27014         14.8513         5.05137 
        1.27628         14.7194         4.99263 
        1.28244         14.7159         4.93471 
        1.28858         14.5382         4.87778 
        1.29471         14.4221         4.82188 
        1.30084         14.3211         4.76691 
        1.30697         14.2359         4.71271 
        1.31312          14.155         4.65928 
        1.31925         14.0526         4.60685 
        1.32537         13.9293         4.55527 
        1.33151         13.8255          4.5043 
        1.33765          13.815         4.45414 
        1.34378          13.716         4.40485 
        1.34992         13.5987         4.35627 
        1.35606         13.4738         4.30831 
         1.3622         13.4245         4.26116 
        1.36833         13.3655         4.21484 
        1.37445         13.2554         4.16922 
        1.38059         13.1628         4.12414 
        1.38675         13.1206         4.07962 
        1.39288          12.995         4.03594 
        1.39901         12.9049         3.99291 
        1.40515          12.856         3.95041 
         1.4113         12.7787         3.90855 
        1.41742          12.705         3.86746 
        1.42355         12.6034         3.82687 
         1.4297         12.5349         3.78675 
        1.43585         12.4585         3.74722 
        1.44198         12.4355          3.7084 
        1.44809         12.3318         3.67021 
        1.45423         12.2534         3.63241 
        1.46036         12.1906         3.59522 
        1.46649          12.108         3.55853 
        1.47263          12.045         3.52232 
        1.47877         11.9378         3.48663 
        1.48491         11.9102         3.45139 
        1.49104         11.8341          3.4167 
        1.49718         11.7984         3.38246 
        1.50333         11.7257         3.34864 
        1.50947         11.6256         3.31535 
         1.5156          11.597         3.28256 
        1.52172         11.5211         3.25021 
        1.52787         11.4932         3.21823 
          1.534         11.4017         3.18672 
        1.54013          11.356         3.15567 
        1.54627         11.2617         3.12497 
        1.55241         11.1878         3.09468 
        1.55855         11.1428         3.06483 
        1.56467          11.082         3.03545 
         1.5708         11.0493         3.00638 
        1.57695         10.9814         2.97764 
        1.58308         10.9067         2.94935 
        1.58922         10.8531          2.9214 
        1.59535         10.7986         2.89383 
         1.6015         10.7326         2.86657 
        1.60764         10.6796         2.83968 
        1.61376         10.6321         2.81321 
        1.61989          10.542         2.78705 
        1.62604          10.515         2.76116 
        1.63218         10.4513         2.73562 
        1.63831         10.3948         2.71047 
        1.64444         10.3508         2.68561 
        1.65059          10.294         2.66102 
        1.65673         10.2407         2.63675 
        1.66285         10.1804         2.61286 
        1.66898         10.1401         2.58925 
        1.67512         10.1196         2.56589 
        1.68127         10.0508         2.54279 
         1.6874         10.0224         2.52003 
        1.69353         9.92752         2.49757 
        1.69967         9.87653         2.47532 
        1.70581         9.85213         2.45336 
        1.71193         9.78632         2.43174 
        1.71806         9.73915         2.41034 
        1.72421         9.69805         2.38915 
        1.73035         9.65829         2.36824 
        1.73649         9.60455         2.34758 
        1.74262         9.57463         2.32719 
        1.74876         9.52185         2.30703 
        1.75489         9.47298         2.28714 
        1.76101         9.40569          2.2675 
        1.76715         9.39107         2.24806 
        1.77329         9.33596         2.22882 
        1.77943         9.29132          2.2098 
        1.78557         9.27775         2.19103 
        1.79171         9.20345         2.17247 
        1.79785         9.14677         2.15413 
        1.80399         9.11212         2.13599 
        1.81012         9.07277          2.1181 
        1.81625         9.03631         2.10041 
        1.82239         8.98472          2.0829 
        1.82853         8.94918          2.0656 
        1.83466         8.89997         2.04851 
        1.84078         8.85355         2.03163 
        1.84692         8.84728         2.01492 
        1.85306         8.80457         1.99837 
         1.8592         8.76403         1.98203 
        1.86533          8.7125         1.96589 
        1.87147         8.67691          1.9499 
        1.87761          8.6481         1.93409 
        1.88375         8.60664         1.91847 
        1.88988         8.55333         1.90304 
        1.89601         8.52485         1.88777 
        1.90215         8.47638         1.87265 
        1.90829         8.44095         1.85771 
        1.91442         8.40792         1.84293 
        1.92056         8.36639         1.82832 
         1.9267         8.35087         1.81386 
        1.93284         8.33118         1.79954 
        1.93897         8.25739         1.78541 
        1.94509         8.23616         1.77145 
        1.95123         8.19167         1.75761 
        1.95737         8.14662         1.74391 
        1.96349         8.12177         1.73039 
        1.96964          8.1062         1.71697 
        1.97578          8.0662         1.70369 
        1.98192         8.04037         1.69058 
        1.98805         7.97686          1.6776 
        1.99419         7.97353         1.66476 
        2.00033         7.91831         1.65205 
        2.00647         7.88336         1.63947 
         2.0126         7.85088         1.62704 
        2.01874         7.82634         1.61473 
        2.02488         7.78751         1.60253 
        2.03101         7.77282         1.59048 
        2.03714         7.72192         1.57856 
        2.04328         7.69724         1.56675 
        2.04941         7.65634         1.55507 
        2.05554          7.6414         1.54352 
        2.06167         7.60947         1.53207 
        2.06781         7.59635         1.52074 
        2.07396         7.55524          1.5095 
        2.08009         7.50462          1.4984 
        2.08622         7.48023         1.48742 
        2.09237         7.47117         1.47652 
        2.09851         7.41446         1.46574 
        2.10464         7.40125         1.45508 
        2.11077         7.36055         1.44454 
        2.11691         7.33427         1.43408 
        2.12305         7.30285         1.42372 
        2.12918         7.26247         1.41349 
        2.13531         7.25676         1.40336 
        2.14145         7.21237         1.39331 
         2.1476         7.18427         1.38334 
        2.15372         7.17748         1.37352 
        2.15985         7.12562         1.36378 
        2.16599         7.11908         1.35412 
        2.17213         7.09629         1.34455 
        2.17827         7.06741         1.33508 
         2.1844         7.03935         1.32571 
        2.19054         7.00677         1.31642 
        2.19666         6.98368         1.30724 
         2.2028          6.9565         1.29814 
        2.20893         6.92997         1.28911 
        2.21508         6.89455         1.28017 
        2.22122         6.87227          1.2713 
        2.22736         6.84351         1.26254 
        2.23349         6.81765         1.25386 
        2.23962         6.79374         1.24526 
        2.24577         6.79026         1.23673 
         2.2519         6.74991          1.2283 
        2.25802         6.72326         1.21995 
        2.26417         6.70563         1.21166 
        2.27031         6.67561         1.20344 
        2.27644         6.66448         1.19532 
        2.28257         6.61562         1.18727 
        2.28872         6.61021         1.17929 
        2.29486         6.58654         1.17137 
        2.30099         6.55337         1.16355 
        2.30712         6.51903          1.1558 
        2.31326         6.50629          1.1481 
         2.3194          6.4738         1.14047 
        2.32553         6.45264         1.13293 
        2.33166         6.41877         1.12546 
         2.3378         6.41728         1.11805 
        2.34394          6.3825          1.1107 
        2.35007         6.36651         1.10342 
        2.35619         6.34263         1.09622 
        2.36233         6.31531         1.08907 
        2.36848         6.28506         1.08197 
        2.37462         6.26868         1.07494 
        2.38075         6.23525         1.06799 
        2.38689         6.23041         1.06108 
        2.39303         6.20413         1.05425 
        2.39916         6.18816         1.04747 
        2.40529         6.17317         1.04076 
        2.41143         6.14295          1.0341 
        2.41757         6.11452          1.0275 
         2.4237         6.09385         1.02097 
        2.42983         6.08122         1.01449 
        2.43598         6.05382         1.00806 
        2.44211         6.02861         1.00169 
        2.44823         6.00874        0.995385 
        2.45437         5.99693        0.989121 
        2.46052         5.97474        0.982905 
        2.46665         5.96007        0.976753 
        2.47279         5.93492        0.970657 
        2.47892         5.90858        0.964607 
        2.48507         5.89041        0.958604 
         2.4912         5.86583        0.952663 
