# k  (h/Mpc)    P(k)  (Mpc/h)^3    P_linear(k)  (Mpc/h)^3
     0.00783031         1319.22         1334.39 
       0.013688         1617.55         1620.34 
       0.019231         1614.69         1614.89 
      0.0249154         1456.57         1465.34 
      0.0312784         1238.99         1239.85 
      0.0375637         1036.42         1033.08 
      0.0433917         884.822         885.586 
      0.0492413         784.485          783.04 
      0.0555754          708.05         711.089 
      0.0619321         664.196         660.873 
       0.067871         615.938         618.121 
      0.0738098         567.661          570.03 
      0.0800417         508.255         511.663 
      0.0862327         449.189         450.077 
      0.0921407         395.388         394.701 
      0.0982031         346.888         347.086 
       0.104506         313.192         310.342 
       0.110769         288.319         286.012 
       0.116806         271.407         270.927 
       0.122832         261.363         259.939 
       0.129052         248.427         248.762 
       0.135211         234.721         235.113 
       0.141259         219.474          218.54 
       0.147318         201.854         199.922 
       0.153489         182.496         181.038 
       0.159709         166.245         164.232 
       0.165845         154.497         151.126 
       0.171974         143.799         141.697 
       0.178125         137.555         135.223 
       0.184229         132.982         130.544 
        0.19034         127.133         126.278 
       0.196428         123.219         121.414 
       0.202534         118.219         115.438 
       0.208729         110.654          108.39 
       0.214876         102.875         101.005 
       0.220989         96.9716         94.0025 
       0.227147         90.1192         87.8857 
        0.23329         85.3522         83.0046 
       0.239377          82.027         79.3279 
       0.245482         78.3322         76.5015 
       0.251667         76.6422         74.0793 
       0.257832         74.0761         71.6877 
       0.263955         71.4094         69.0525 
       0.270079          68.447         66.0666 
        0.27624         65.8308          62.817 
       0.282372         62.6323         59.5461 
        0.28843         59.3503         56.5085 
       0.294538         56.6349         53.8077 
       0.300721         54.8268         51.5123 
        0.30691         52.4593         49.6203 
       0.313033         50.8654         48.0287 
       0.319153         48.7402         46.5753 
       0.325316         47.9914         45.1165 
        0.33145         46.2269         43.5922 
       0.337538         44.7754         41.9896 
       0.343633         42.9733         40.3369 
       0.349808         41.5022         38.6848 
       0.355968         40.0304         37.1296 
       0.362074         38.5717         35.7359 
       0.368217         37.3435         34.4922 
       0.374374         36.1084         33.3943 
       0.380519         35.2202         32.4024 
       0.386598         34.2917         31.4757 
       0.392688         33.5099         30.5647 
        0.39888         32.4625         29.6263 
       0.405048         31.5949         28.6791 
       0.411186         30.7111         27.7376 
       0.417313         29.6243         26.8184 
       0.423458         28.7918         25.9423 
       0.429607         27.9275         25.1279 
       0.435692         27.0749         24.3838 
       0.441815         26.4923         23.6938 
       0.447964         25.9982          23.047 
       0.454126         25.0415         22.4268 
       0.460267         24.5409         21.8233 
       0.466387         23.7827         21.2309 
        0.47254         23.3453         20.6405 
       0.478662         22.8662         20.0613 
       0.484765         22.1465         19.5004 
       0.490885         21.6004         18.9618 
       0.497035         21.2853         18.4475 
       0.503198         20.6901         17.9597 
       0.509342          20.167         17.5004 
       0.515458         19.6943         17.0659 
       0.521598         19.3157         16.6462 
       0.527764         18.8554         16.2359 
       0.533884         18.5234         15.8375 
           0.54         18.0903         15.4487 
       0.546137         17.7487         15.0681 
       0.552299         17.4107         14.6965 
       0.558452         16.8703         14.3376 
       0.564573         16.6165         13.9941 
       0.570708         16.2907         13.6647 
       0.576825         15.8682         13.3502 
       0.582926         15.5777         13.0483 
       0.589034         15.1475         12.7556 
       0.595184         14.9239          12.469 
       0.601379         14.5994          12.188 
       0.607522         14.3689          11.917 
       0.613639         14.1757         11.6545 
       0.619772         13.7873         11.3988 
       0.625918         13.6687         11.1501 
       0.632068         13.4397         10.9088 
       0.638161         13.1108         10.6772 
         0.6443         12.8394         10.4514 
       0.650464         12.5816         10.2322 
       0.656582         12.4779         10.0215 
       0.662703         12.2379         9.81684 
       0.668861         12.0051         9.61664 
       0.675024         11.7657         9.42143 
       0.681124         11.5577         9.23306 
       0.687237         11.3733          9.0491 
       0.693381         11.2222         8.86912 
       0.699536         10.9153         8.69374 
       0.705665         10.8065         8.52407 
       0.711789          10.609         8.35943 
       0.717957         10.4316         8.19831 
        0.72409         10.2564         8.04254 
       0.730186          10.113         7.89187 
       0.736317         9.99655         7.74427 
       0.742472         9.83204         7.59984 
       0.748622         9.67438          7.4591 
        0.75476          9.4763         7.32211 
       0.760888         9.34893         7.18869 
       0.767043         9.23181         7.05803 
       0.773185         9.04352         6.93089 
       0.779291         8.97078         6.80762 
       0.785407         8.82882         6.68723 
       0.791564         8.68621         6.56907 
       0.797719         8.52212         6.45388 
       0.803834         8.46806         6.34224 
       0.809972         8.37213         6.23288 
       0.816124         8.19124         6.12589 
       0.822261          8.0649         6.02172 
       0.828378         7.96736         5.92029 
       0.834502         7.89808         5.82111 
       0.840667         7.74987         5.72356 
       0.846816         7.61478         5.62852 
       0.852925         7.54615         5.53623 
       0.859047         7.44673         5.44583 
       0.865192         7.37413         5.35715 
       0.871341         7.29178          5.2704 
       0.877463         7.17037         5.18597 
       0.883569         7.05529         5.10361 
       0.889708         6.94039         5.02262 
       0.895864         6.87344          4.9432 
       0.902008         6.79846         4.86567 
       0.908149         6.72377         4.78986 
       0.914301         6.62399         4.71555 
       0.920448         6.52567         4.64289 
       0.926574         6.44262         4.57203 
       0.932687          6.3769         4.50279 
       0.938823         6.29163         4.43475 
       0.944975          6.2094         4.36797 
       0.951105         6.14611          4.3028 
       0.957225         6.11278         4.23908 
       0.963368         6.02598         4.17644 
       0.969511         5.94997         4.11506 
       0.975621         5.87159         4.05526 
       0.981748         5.80832         3.99649 
       0.987916         5.75077         3.93852 
        0.99406         5.65491         3.88192 
        1.00019          5.5775         3.82655 
        1.00632         5.55134         3.77231 
        1.01246         5.48448         3.71905 
        1.01859         5.40756          3.6669 
        1.02471         5.35724         3.61582 
        1.03085         5.29544         3.56554 
        1.03698         5.22381         3.51632 
        1.04314         5.18295         3.46783 
        1.04929         5.11687         3.42037 
        1.05541         5.05643         3.37399 
        1.06154         5.01323         3.32835 
        1.06769         4.98413          3.2835 
        1.07382         4.90103         3.23962 
        1.07993         4.84669         3.19665 
        1.08607         4.81806         3.15427 
        1.09222         4.76172         3.11263 
        1.09836         4.71278         3.07179 
        1.10449         4.66475         3.03173 
        1.11063         4.61214         2.99235 
        1.11677         4.57774         2.95368 
         1.1229         4.53384         2.91576 
        1.12903         4.47712         2.87847 
        1.13518         4.43139         2.84181 
        1.14131         4.37826         2.80581 
        1.14745         4.32534         2.77046 
        1.15359         4.30143         2.73571 
        1.15973         4.25051         2.70154 
        1.16584         4.20635         2.66811 
        1.17197         4.16878          2.6352 
        1.17811         4.14272         2.60274 
        1.18424         4.10249         2.57093 
        1.19038         4.07338         2.53956 
        1.19652         4.02765         2.50872 
        1.20267         3.98513          2.4784 
        1.20881         3.95681         2.44858 
        1.21495         3.92037         2.41931 
        1.22108         3.87946         2.39051 
         1.2272         3.85453         2.36226 
        1.23334         3.80395         2.33439 
        1.23949         3.76766         2.30691 
        1.24562         3.74703         2.27995 
        1.25174         3.70341         2.25346 
        1.25789         3.67777         2.22731 
        1.26402         3.64425         2.20162 
        1.27014         3.61025          2.1764 
        1.27628         3.58298          2.1515 
        1.28244          3.5385         2.12694 
        1.28858         3.52484          2.1028 
        1.29471         3.48182         2.07908 
        1.30084         3.44898         2.05576 
        1.30697         3.44465         2.03276 
        1.31312         3.38086         2.01008 
        1.31925         3.36415         1.98781 
        1.32537         3.33431         1.96591 
        1.33151         3.31906         1.94426 
        1.33765         3.27503         1.92294 
        1.34378         3.25403         1.90199 
        1.34992         3.23764         1.88134 
        1.35606         3.19145         1.86095 
         1.3622         3.17958          1.8409 
        1.36833         3.15116         1.82119 
        1.37445         3.12476         1.80178 
        1.38059         3.11172         1.78259 
        1.38675         3.08825         1.76364 
        1.39288         3.05818         1.74504 
        1.39901         3.02435         1.72672 
        1.40515         3.00432         1.70862 
         1.4113         2.98387         1.69078 
        1.41742         2.96216         1.67327 
        1.42355         2.93886         1.65597 
         1.4297         2.91212         1.63887 
        1.43585         2.89883         1.62201 
        1.44198          2.8808         1.60546 
        1.44809         2.84899         1.58916 
        1.45423         2.82638         1.57304 
        1.46036         2.80178         1.55716 
        1.46649         2.78342          1.5415 
        1.47263         2.76045         1.52604 
        1.47877         2.73695          1.5108 
        1.48491         2.71865         1.49575 
        1.49104         2.70344         1.48093 
        1.49718         2.68342          1.4663 
        1.50333         2.66537         1.45185 
        1.50947         2.64403         1.43762 
         1.5156         2.62436          1.4236 
        1.52172         2.60691         1.40977 
        1.52787         2.58918          1.3961 
          1.534         2.56712         1.38262 
        1.54013         2.55254         1.36933 
        1.54627         2.52895          1.3562 
        1.55241         2.51014         1.34323 
        1.55855         2.49877         1.33046 
        1.56467         2.48219         1.31788 
         1.5708         2.46017         1.30543 
        1.57695         2.44246         1.29313 
        1.58308         2.42372         1.28101 
        1.58922         2.41413         1.26903 
        1.59535         2.39657         1.25722 
         1.6015         2.37819         1.24554 
        1.60764         2.36405         1.23401 
        1.61376         2.35004         1.22266 
        1.61989         2.33136         1.21144 
        1.62604         2.31395         1.20034 
        1.63218         2.30771         1.18939 
        1.63831         2.28476          1.1786 
        1.64444         2.27016         1.16793 
        1.65059          2.2557         1.15738 
        1.65673         2.24366         1.14696 
        1.66285         2.22481          1.1367 
        1.66898         2.21347         1.12657 
        1.67512         2.19385         1.11654 
        1.68127         2.18156         1.10662 
         1.6874         2.17512         1.09684 
        1.69353         2.14839         1.08719 
        1.69967         2.13861         1.07763 
        1.70581         2.13206         1.06819 
        1.71193          2.1139          1.0589 
        1.71806         2.10468          1.0497 
        1.72421         2.09033         1.04059 
        1.73035         2.07749          1.0316 
        1.73649         2.06293         1.02271 
        1.74262         2.04997         1.01394 
        1.74876         2.04215         1.00527 
        1.75489         2.02397         0.99671 
        1.76101          2.0099        0.988257 
        1.76715         2.00173         0.97989 
        1.77329         1.99191        0.971609 
        1.77943          1.9723        0.963421 
        1.78557          1.9639        0.955338 
        1.79171          1.9565        0.947347 
        1.79785         1.93955        0.939446 
        1.80399          1.9295        0.931636 
        1.81012         1.92081        0.923925 
        1.81625         1.90772        0.916305 
        1.82239         1.89438         0.90876 
        1.82853         1.87969        0.901303 
        1.83466         1.87523        0.893937 
        1.84078         1.86359        0.886661 
        1.84692         1.85485        0.879454 
        1.85306         1.83938        0.872318 
         1.8592         1.82857        0.865272 
        1.86533         1.81839        0.858309 
        1.87147          1.8118        0.851413 
        1.87761         1.79915        0.844591 
        1.88375         1.78717        0.837851 
        1.88988         1.77981        0.831191 
        1.89601         1.76787        0.824601 
        1.90215         1.75424        0.818076 
        1.90829           1.744        0.811625 
        1.91442         1.73961        0.805243 
        1.92056         1.72722        0.798935 
         1.9267         1.71836        0.792688 
        1.93284         1.71312        0.786504 
        1.93897         1.70178        0.780398 
        1.94509         1.68989         0.77437 
        1.95123         1.67915        0.768389 
        1.95737         1.67018        0.762468 
        1.96349          1.6634        0.756624 
        1.96964         1.65667        0.750824 
        1.97578         1.64366        0.745083 
        1.98192         1.63668        0.739413 
        1.98805         1.62724        0.733802 
        1.99419         1.62102        0.728248 
        2.00033         1.61515        0.722749 
        2.00647         1.60137        0.717308 
         2.0126         1.59607        0.711933 
        2.01874          1.5833        0.706604 
        2.02488         1.57877        0.701325 
        2.03101         1.56529        0.696109 
        2.03714         1.55842        0.690952 
        2.04328         1.55273         0.68584 
        2.04941         1.54065        0.680785 
        2.05554          1.5361        0.675784 
        2.06167         1.52755        0.670826 
        2.06781         1.52217        0.665918 
        2.07396         1.51334        0.661051 
        2.08009         1.50528        0.656241 
        2.08622         1.49607        0.651485 
        2.09237         1.48988        0.646766 
        2.09851          1.4818        0.642093 
        2.10464         1.47833        0.637474 
        2.11077         1.46759        0.632906 
        2.11691         1.45981        0.628373 
        2.12305         1.45454        0.623883 
        2.12918          1.4472        0.619449 
        2.13531         1.43947        0.615057 
        2.14145         1.43165        0.610697 
         2.1476         1.42282        0.606374 
        2.15372         1.41677        0.602115 
        2.15985         1.40934        0.597893 
        2.16599          1.4044        0.593699 
        2.17213         1.39369        0.589549 
        2.17827         1.39013         0.58544 
         2.1844         1.38433        0.581374 
        2.19054         1.37858        0.577345 
        2.19666         1.37038         0.57336 
         2.2028         1.36337        0.569409 
        2.20893          1.3576        0.565492 
        2.21508         1.35224        0.561609 
        2.22122          1.3416         0.55776 
        2.22736         1.33648        0.553956 
        2.23349         1.33382        0.550187 
        2.23962         1.32385        0.546452 
        2.24577         1.31989        0.542748 
         2.2519         1.31197        0.539083 
        2.25802          1.3082        0.535458 
        2.26417         1.30133        0.531857 
        2.27031         1.29574        0.528284 
        2.27644         1.28928        0.524756 
        2.28257         1.28268        0.521259 
        2.28872         1.27757        0.517788 
        2.29486         1.27068        0.514349 
        2.30099         1.26467        0.510948 
        2.30712         1.25825        0.507576 
        2.31326         1.25581        0.504229 
         2.3194         1.24943        0.500914 
        2.32553         1.24462        0.497635 
        2.33166         1.23618        0.494386 
         2.3378         1.23079        0.491161 
        2.34394         1.22474        0.487965 
        2.35007         1.21977        0.484801 
        2.35619         1.21707        0.481669 
        2.36233         1.20846        0.478557 
        2.36848         1.20422        0.475466 
        2.37462         1.19979        0.472409 
        2.38075         1.19399        0.469382 
        2.38689         1.18976        0.466378 
        2.39303         1.18316        0.463402 
        2.39916         1.17822        0.460454 
        2.40529         1.17366        0.457532 
        2.41143         1.16739        0.454634 
        2.41757         1.16313        0.451759 
         2.4237         1.16034        0.448914 
        2.42983         1.15236        0.446094 
        2.43598         1.15018         0.44329 
        2.44211         1.14439        0.440516 
        2.44823         1.13901        0.437771 
        2.45437         1.13464        0.435042 
        2.46052          1.1309        0.432334 
        2.46665         1.12524        0.429654 
        2.47279         1.11996        0.426997 
        2.47892           1.115        0.424361 
        2.48507         1.11174        0.421745 
         2.4912         1.10542        0.419156 
