# k  (h/Mpc)    P(k)  (Mpc/h)^3    P_linear(k)  (Mpc/h)^3
     0.00783031         15269.5         15493.1 
       0.013688           18962         18793.7 
       0.019231         18760.2         18720.7 
      0.0249154         16635.5         16981.8 
      0.0312784         14218.5         14365.3 
      0.0375637         11985.5         11967.9 
      0.0433917           10103         10258.2 
      0.0492413         9028.24         9069.71 
      0.0555754         8006.43         8235.83 
      0.0619321         7681.37         7653.89 
       0.067871         6975.95         7158.52 
      0.0738098         6435.46          6601.4 
      0.0800417         5723.47         5925.32 
      0.0862327         5116.66         5212.03 
      0.0921407         4592.07         4570.68 
      0.0982031         4033.48         4019.25 
       0.104506         3736.41          3593.7 
       0.110769         3441.45         3311.93 
       0.116806         3245.77         3137.23 
       0.122832         3108.48         3009.97 
       0.129052         2901.95         2880.53 
       0.135211          2752.7         2722.46 
       0.141259         2619.62         2530.54 
       0.147318         2443.53         2314.96 
       0.153489         2217.02         2096.28 
       0.159709         2073.89         1901.67 
       0.165845         1976.08         1749.91 
       0.171974         1862.54         1640.73 
       0.178125         1774.36         1565.76 
       0.184229          1702.4         1511.57 
        0.19034         1610.81         1462.18 
       0.196428         1579.64         1405.85 
       0.202534         1519.86         1336.66 
       0.208729         1442.42         1255.04 
       0.214876         1372.86         1169.53 
       0.220989         1318.92         1088.45 
       0.227147         1257.41         1017.62 
        0.23329         1204.38           961.1 
       0.239377         1181.64         918.527 
       0.245482         1106.71           885.8 
       0.251667         1100.76         857.753 
       0.257832         1057.53          830.06 
       0.263955         1022.85         799.547 
       0.270079         984.934         764.973 
        0.27624          972.64         727.346 
       0.282372         931.248         689.473 
        0.28843          918.22           654.3 
       0.294538         870.722         623.027 
       0.300721         865.608         596.449 
        0.30691         829.487         574.542 
       0.313033         813.177         556.113 
       0.319153           794.9         539.284 
       0.325316         770.046         522.392 
        0.33145         750.649         504.742 
       0.337538         737.776         486.186 
       0.343633         718.376          467.05 
       0.349808         692.807          447.92 
       0.355968          687.75         429.913 
       0.362074         679.028         413.776 
       0.368217         658.423         399.376 
       0.374374         631.194         386.663 
       0.380519          630.68         375.178 
       0.386598         613.019         364.448 
       0.392688         610.617           353.9 
        0.39888         592.292         343.034 
       0.405048         582.468         332.067 
       0.411186         573.799         321.165 
       0.417313             562         310.521 
       0.423458         551.209         300.378 
       0.429607         543.367         290.948 
       0.435692          530.57         282.332 
       0.441815         525.769         274.343 
       0.447964         514.656         266.853 
       0.454126         506.554         259.673 
       0.460267           495.6         252.685 
       0.466387         489.841         245.825 
        0.47254         483.128          238.99 
       0.478662         480.312         232.283 
       0.484765         464.085         225.788 
       0.490885         460.487         219.552 
       0.497035         451.471         213.597 
       0.503198         447.016         207.949 
       0.509342         443.373         202.631 
       0.515458         439.184           197.6 
       0.521598         427.843         192.741 
       0.527764         420.944          187.99 
       0.533884         418.601         183.377 
           0.54         413.045         178.875 
       0.546137         410.872         174.468 
       0.552299         403.263         170.165 
       0.558452         401.007          166.01 
       0.564573          395.43         162.033 
       0.570708         389.306         158.219 
       0.576825         380.268         154.577 
       0.582926         379.474         151.081 
       0.589034         376.026         147.692 
       0.595184         372.758         144.374 
       0.601379         366.899         141.121 
       0.607522         361.835         137.982 
       0.613639          360.57         134.944 
       0.619772         352.773         131.983 
       0.625918          351.45         129.103 
       0.632068         345.764         126.309 
       0.638161         344.397         123.627 
         0.6443         338.667         121.013 
       0.650464         335.885         118.475 
       0.656582         333.173         116.035 
       0.662703          332.29         113.666 
       0.668861         326.535         111.347 
       0.675024         323.308         109.087 
       0.681124         320.823         106.906 
       0.687237         317.805         104.776 
       0.693381         313.127         102.692 
       0.699536          309.67         100.662 
       0.705665         307.592          98.697 
       0.711789         305.988         96.7906 
       0.717957         303.559         94.9251 
        0.72409         300.926         93.1215 
       0.730186         297.149         91.3769 
       0.736317         294.335         89.6679 
       0.742472         292.616         87.9956 
       0.748622         289.862          86.366 
        0.75476         286.672         84.7799 
       0.760888         283.578         83.2351 
       0.767043         283.836         81.7222 
       0.773185          280.39           80.25 
       0.779291         276.045         78.8228 
       0.785407         275.462         77.4288 
       0.791564         272.075         76.0606 
       0.797719         269.638         74.7269 
       0.803834         267.311         73.4343 
       0.809972         266.586          72.168 
       0.816124         265.782         70.9293 
       0.822261         262.533         69.7231 
       0.828378         260.307         68.5487 
       0.834502         258.405         67.4003 
       0.840667         255.991         66.2708 
       0.846816         254.495         65.1704 
       0.852925         253.048         64.1018 
       0.859047          250.98         63.0551 
       0.865192         247.904         62.0283 
       0.871341         246.114         61.0238 
       0.877463         245.102         60.0462 
       0.883569         243.888         59.0926 
       0.889708         241.135          58.155 
       0.895864         239.162         57.2354 
       0.902008          237.64         56.3377 
       0.908149         236.315         55.4599 
       0.914301         233.442         54.5995 
       0.920448         232.236         53.7582 
       0.926574         230.029         52.9376 
       0.932687         230.141          52.136 
       0.938823         227.362         51.3482 
       0.944975         226.363         50.5749 
       0.951105         224.901         49.8204 
       0.957225          223.27         49.0826 
       0.963368         220.273         48.3573 
       0.969511         219.471         47.6467 
       0.975621         217.468         46.9542 
       0.981748         217.248         46.2737 
       0.987916         215.467         45.6025 
        0.99406         212.911         44.9472 
        1.00019         212.679         44.3061 
        1.00632         211.066         43.6781 
        1.01246         209.398         43.0614 
        1.01859         209.565         42.4575 
        1.02471         206.211         41.8661 
        1.03085         204.848         41.2839 
        1.03698         203.945         40.7141 
        1.04314         202.008         40.1526 
        1.04929          200.91          39.603 
        1.05541         201.062          39.066 
        1.06154         198.232         38.5376 
        1.06769         197.952         38.0183 
        1.07382         196.312         37.5102 
        1.07993         194.846         37.0126 
        1.08607         194.378         36.5221 
        1.09222         192.923         36.0399 
        1.09836          191.43          35.567 
        1.10449         189.486         35.1032 
        1.11063         188.018         34.6471 
        1.11677         187.636         34.1994 
         1.1229         186.147         33.7604 
        1.12903         185.331         33.3287 
        1.13518         184.108         32.9042 
        1.14131         182.462         32.4874 
        1.14745         182.443          32.078 
        1.15359         180.836         31.6756 
        1.15973         179.477           31.28 
        1.16584         178.216         30.8929 
        1.17197         177.989         30.5119 
        1.17811         176.103         30.1361 
        1.18424         175.275         29.7677 
        1.19038         174.854         29.4045 
        1.19652         173.314         29.0474 
        1.20267         172.761         28.6963 
        1.20881         171.281         28.3511 
        1.21495         170.329         28.0121 
        1.22108         169.248         27.6787 
         1.2272         168.009         27.3516 
        1.23334         167.561         27.0289 
        1.23949         166.132         26.7107 
        1.24562          165.33         26.3986 
        1.25174         164.273         26.0918 
        1.25789         163.162          25.789 
        1.26402         161.776         25.4916 
        1.27014         160.672         25.1996 
        1.27628         160.238         24.9113 
        1.28244         160.034         24.6269 
        1.28858         158.309         24.3474 
        1.29471         157.064         24.0728 
        1.30084         156.739         23.8028 
        1.30697         155.246         23.5364 
        1.31312         154.386         23.2738 
        1.31925         153.575          23.016 
        1.32537         153.064         22.7624 
        1.33151         151.569         22.5117 
        1.33765         150.731         22.2649 
        1.34378         150.205         22.0223 
        1.34992         149.521         21.7832 
        1.35606         149.285         21.5471 
         1.3622         147.613         21.3149 
        1.36833         146.435         21.0868 
        1.37445         145.932          20.862 
        1.38059         144.845         20.6399 
        1.38675         144.343         20.4205 
        1.39288         143.588         20.2051 
        1.39901         143.301         19.9929 
        1.40515         141.654         19.7833 
         1.4113         141.067         19.5768 
        1.41742         140.064         19.3741 
        1.42355         139.398         19.1738 
         1.4297         138.594         18.9758 
        1.43585         137.765         18.7806 
        1.44198         137.088         18.5889 
        1.44809           136.5         18.4002 
        1.45423         135.795         18.2135 
        1.46036         134.726         18.0297 
        1.46649         133.852         17.8484 
        1.47263         133.108         17.6694 
        1.47877         132.429          17.493 
        1.48491         131.163         17.3186 
        1.49104         131.156         17.1471 
        1.49718         129.964         16.9777 
        1.50333         129.378         16.8103 
        1.50947         128.781         16.6456 
         1.5156         128.016         16.4833 
        1.52172         127.269         16.3231 
        1.52787         126.336         16.1648 
          1.534         125.913         16.0087 
        1.54013         125.189         15.8549 
        1.54627         124.538         15.7028 
        1.55241         123.609         15.5527 
        1.55855         122.891         15.4048 
        1.56467         122.341         15.2592 
         1.5708         121.431          15.115 
        1.57695         121.072         14.9725 
        1.58308         120.433         14.8322 
        1.58922         119.983         14.6936 
        1.59535         119.052         14.5568 
         1.6015         118.633         14.4215 
        1.60764          117.94         14.2881 
        1.61376         117.218         14.1567 
        1.61989         116.512         14.0268 
        1.62604         115.766         13.8983 
        1.63218         115.554         13.7714 
        1.63831         114.599         13.6465 
        1.64444         114.077          13.523 
        1.65059         113.527         13.4008 
        1.65673         112.585         13.2802 
        1.66285         112.273         13.1614 
        1.66898         111.658         13.0441 
        1.67512         111.161         12.9279 
        1.68127         110.396          12.813 
         1.6874         109.558         12.6999 
        1.69353         109.301         12.5881 
        1.69967         108.779         12.4774 
        1.70581         108.017         12.3681 
        1.71193         107.517         12.2605 
        1.71806         107.011          12.154 
        1.72421         106.286         12.0485 
        1.73035         106.103         11.9444 
        1.73649         105.328         11.8415 
        1.74262         104.576           11.74 
        1.74876         104.294         11.6395 
        1.75489         103.501         11.5405 
        1.76101         102.852         11.4426 
        1.76715         102.368         11.3457 
        1.77329         102.067         11.2498 
        1.77943         101.207          11.155 
        1.78557         100.921         11.0614 
        1.79171         100.057         10.9689 
        1.79785         99.6333         10.8774 
        1.80399         98.9848          10.787 
        1.81012         98.6007         10.6977 
        1.81625         98.1391         10.6095 
        1.82239         97.7586         10.5221 
        1.82853         97.0761         10.4358 
        1.83466         96.4516         10.3505 
        1.84078         96.1109         10.2662 
        1.84692         95.4425         10.1828 
        1.85306          95.086         10.1002 
         1.8592         94.5929         10.0186 
        1.86533         93.8439         9.93797 
        1.87147         93.4931         9.85813 
        1.87761         92.9479         9.77914 
        1.88375         92.3375          9.7011 
        1.88988         92.0378         9.62399 
        1.89601         91.4354         9.54768 
        1.90215         90.9244         9.47214 
        1.90829         90.5442         9.39744 
        1.91442         90.0834         9.32355 
        1.92056         89.4613         9.25051 
         1.9267         89.1892         9.17818 
        1.93284         88.6842         9.10658 
        1.93897         88.1816         9.03588 
        1.94509         87.8256         8.96608 
        1.95123          87.326         8.89683 
        1.95737         86.7858         8.82827 
        1.96349         86.3388         8.76061 
        1.96964         85.7079         8.69346 
        1.97578         85.3353         8.62698 
        1.98192         85.2186         8.56133 
        1.98805         84.4583         8.49636 
        1.99419         84.2275         8.43205 
        2.00033          83.755         8.36838 
        2.00647         83.3298         8.30539 
         2.0126         82.8703         8.24314 
        2.01874          82.227         8.18144 
        2.02488         81.9866         8.12032 
        2.03101         81.3838         8.05993 
        2.03714         80.8651         8.00021 
        2.04328          80.663         7.94103 
        2.04941         80.2717          7.8825 
        2.05554         79.8434         7.82459 
        2.06167         79.4485         7.76719 
        2.06781         78.8895         7.71036 
        2.07396         78.5549         7.65401 
        2.08009         78.2873         7.59832 
        2.08622         77.7602         7.54324 
        2.09237          77.407         7.48861 
        2.09851         77.0826          7.4345 
        2.10464          76.578         7.38102 
        2.11077         76.2528         7.32813 
        2.11691         75.9388         7.27564 
        2.12305          75.335         7.22366 
        2.12918         74.9744         7.17231 
        2.13531         74.7088         7.12146 
        2.14145         74.1157         7.07098 
         2.1476         73.7312         7.02093 
        2.15372         73.5257         6.97162 
        2.15985         73.1026         6.92272 
        2.16599         72.6737         6.87416 
        2.17213         72.3638         6.82612 
        2.17827         71.9407         6.77854 
         2.1844         71.5489         6.73146 
        2.19054         71.3877         6.68481 
        2.19666         70.9089         6.63867 
         2.2028         70.6697         6.59292 
        2.20893          70.179         6.54757 
        2.21508         69.8674         6.50261 
        2.22122         69.4766         6.45804 
        2.22736         69.1698         6.41399 
        2.23349         68.7693         6.37036 
        2.23962         68.4524         6.32711 
        2.24577         68.1338         6.28422 
         2.2519         67.8236         6.24179 
        2.25802         67.4825         6.19982 
        2.26417         67.0388         6.15812 
        2.27031         66.8031         6.11676 
        2.27644         66.3581          6.0759 
        2.28257         66.0418         6.03541 
        2.28872         65.7451         5.99522 
        2.29486         65.2431          5.9554 
        2.30099         64.8486         5.91602 
        2.30712         64.7427         5.87699 
        2.31326         64.4261         5.83823 
         2.3194          64.082         5.79985 
        2.32553         63.7425         5.76188 
        2.33166         63.4404         5.72426 
         2.3378          63.011         5.68693 
        2.34394         62.7195         5.64991 
        2.35007         62.4487         5.61328 
        2.35619         62.1854         5.57702 
        2.36233         61.8394         5.54099 
        2.36848         61.5683          5.5052 
        2.37462         61.1053          5.4698 
        2.38075         60.9941         5.43475 
        2.38689          60.606         5.39997 
        2.39303         60.2464         5.36551 
        2.39916         59.9695         5.33138 
        2.40529         59.8003         5.29755 
        2.41143         59.4069         5.26399 
        2.41757         59.1086          5.2307 
         2.4237         58.8979         5.19776 
        2.42983         58.5305         5.16511 
        2.43598         58.1875         5.13265 
        2.44211         57.9493         5.10052 
        2.44823         57.6879         5.06874 
        2.45437         57.3062         5.03714 
        2.46052          57.111         5.00579 
        2.46665         56.8893         4.97476 
        2.47279         56.4468           4.944 
        2.47892         56.2916         4.91347 
        2.48507         55.9419         4.88318 
         2.4912         55.6587          4.8532 
