# k  (h/Mpc)    P(k)  (Mpc/h)^3    P_linear(k)  (Mpc/h)^3
     0.00783031         3280.94         3324.48 
       0.013688         3909.76         3907.43 
       0.019231         3790.78         3787.52 
      0.0249154         3329.52          3356.8 
      0.0312784         2790.99         2794.18 
      0.0375637         2332.44          2322.8 
      0.0433917         2003.26         2008.89 
      0.0492413         1800.88         1799.17 
      0.0555754         1632.57         1646.81 
      0.0619321         1530.72         1521.51 
       0.067871         1388.64         1397.17 
      0.0738098         1248.58         1256.04 
      0.0800417          1089.4         1099.27 
      0.0862327         952.197         953.569 
      0.0921407         843.251         838.828 
      0.0982031         752.617         751.997 
       0.104506         701.922         691.763 
       0.110769          659.53         652.218 
       0.116806         623.667         621.626 
       0.122832         594.161         589.037 
       0.129052         548.492         548.382 
       0.135211         503.677         501.913 
       0.141259         462.237         454.945 
       0.147318         422.388         412.026 
       0.153489           384.7         376.455 
       0.159709          359.77         350.036 
       0.165845         344.405         331.711 
       0.171974         326.583         317.985 
       0.178125         314.176         305.394 
       0.184229         300.929         291.553 
        0.19034         280.233         275.389 
       0.196428          266.93         257.578 
       0.202534         252.427          239.55 
       0.208729         234.704         222.798 
       0.214876         219.517         208.839 
       0.220989         210.866         197.854 
       0.227147         199.761          189.21 
        0.23329          192.28         182.037 
       0.239377         186.677         175.341 
       0.245482         176.173         168.303 
       0.251667         171.371         160.568 
       0.257832         163.697         152.425 
       0.263955         155.856         144.383 
       0.270079         148.584          136.88 
        0.27624         143.959         130.221 
       0.282372         138.195         124.582 
        0.28843         132.531         119.825 
       0.294538         127.399         115.577 
       0.300721         124.811         111.514 
        0.30691         119.208         107.453 
       0.313033         115.352         103.331 
       0.319153         109.717         99.1549 
       0.325316         107.336         95.0118 
        0.33145          102.86         91.1051 
       0.337538         100.197         87.5381 
       0.343633         96.4562         84.3239 
       0.349808         93.5213         81.3862 
       0.355968         91.1174         78.6978 
       0.362074         88.2369         76.1741 
       0.368217         85.5665         73.6963 
       0.374374         82.9178          71.242 
       0.380519         80.7937         68.8143 
       0.386598         78.4312         66.4705 
       0.392688         76.6892         64.2195 
        0.39888         74.3473         62.0582 
       0.405048         72.4282          60.054 
       0.411186         70.6731         58.1956 
       0.417313         68.5096         56.4511 
       0.423458         66.7764          54.787 
       0.429607         65.0242         53.1804 
       0.435692         62.8538         51.6293 
       0.441815         61.9591         50.1073 
       0.447964         60.8222         48.6234 
       0.454126         58.1725         47.1881 
       0.460267         57.2879         45.8192 
       0.466387         55.7772         44.5233 
        0.47254         54.7894         43.2852 
       0.478662         53.9075         42.1101 
       0.484765         52.2559         40.9876 
       0.490885         51.1304         39.9037 
       0.497035          50.452         38.8492 
       0.503198         49.0245         37.8226 
       0.509342          47.773         36.8301 
       0.515458         46.8464         35.8754 
       0.521598         46.0791         34.9522 
       0.527764         45.1495         34.0603 
       0.533884         44.3866          33.209 
           0.54         43.3734         32.3909 
       0.546137         42.7657         31.6006 
       0.552299         42.0807         30.8347 
       0.558452         40.8178         30.0947 
       0.564573         40.1308         29.3804 
       0.570708         39.5248         28.6857 
       0.576825         38.6654         28.0147 
       0.582926         37.8526          27.367 
       0.589034         36.9441         26.7401 
       0.595184          36.479         26.1298 
       0.601379         35.8293         25.5352 
       0.607522         35.0577         24.9644 
       0.613639         34.7986         24.4137 
       0.619772         33.9101         23.8783 
       0.625918         33.6841         23.3581 
       0.632068         33.1581          22.853 
       0.638161         32.5094         22.3673 
         0.6443         31.8935         21.8922 
       0.650464         31.3589         21.4291 
       0.656582         31.1196         20.9827 
       0.662703         30.4883          20.549 
       0.668861         29.9689         20.1253 
       0.675024         29.4757         19.7135 
       0.681124         28.9594         19.3175 
       0.687237         28.4525         18.9319 
       0.693381         28.2276          18.555 
       0.699536         27.5384         18.1879 
       0.705665         27.5321         17.8323 
       0.711789         26.8487         17.4865 
       0.717957          26.502         17.1475 
        0.72409         26.1392         16.8194 
       0.730186         25.7377          16.502 
       0.736317         25.4968          16.191 
       0.742472         25.0393         15.8869 
       0.748622         24.8116          15.591 
        0.75476         24.3996         15.3033 
       0.760888          24.014         15.0233 
       0.767043         23.7309         14.7493 
       0.773185         23.3434         14.4828 
       0.779291         23.2222         14.2244 
       0.785407         22.9654         13.9719 
       0.791564         22.5487          13.724 
       0.797719         22.0421         13.4823 
       0.803834          22.017          13.248 
       0.809972         21.7864         13.0185 
       0.816124         21.3132         12.7939 
       0.822261         21.1192         12.5753 
       0.828378         20.9392         12.3624 
       0.834502         20.7137         12.1543 
       0.840667          20.437         11.9497 
       0.846816         20.0794         11.7504 
       0.852925         19.8941          11.557 
       0.859047         19.6701         11.3675 
       0.865192         19.4673         11.1816 
       0.871341         19.3369         10.9998 
       0.877463         18.9756         10.8229 
       0.883569           18.76         10.6504 
       0.889708         18.5099         10.4808 
       0.895864         18.3462         10.3144 
       0.902008         18.2061          10.152 
       0.908149          18.005         9.99325 
       0.914301         17.9229         9.83763 
       0.920448         17.5729         9.68549 
       0.926574          17.422         9.53711 
       0.932687         17.2266         9.39217 
       0.938823         16.9999         9.24973 
       0.944975          16.843         9.10994 
       0.951105         16.6848         8.97354 
       0.957225         16.5063         8.84017 
       0.963368         16.4007         8.70908 
       0.969511         16.2369         8.58064 
       0.975621         16.0949          8.4555 
       0.981748         15.8589         8.33253 
       0.987916         15.7706         8.21125 
        0.99406         15.5709         8.09284 
        1.00019         15.3698         7.97702 
        1.00632         15.3009         7.86356 
        1.01246         15.1785         7.75216 
        1.01859         14.9271          7.6431 
        1.02471         14.8833         7.53627 
        1.03085         14.7365         7.43113 
        1.03698         14.4956         7.32822 
        1.04314         14.4175         7.22682 
        1.04929         14.2483         7.12759 
        1.05541         14.0939         7.03063 
        1.06154         14.0181         6.93524 
        1.06769         13.9383         6.84148 
        1.07382         13.7589         6.74977 
        1.07993         13.6667         6.65995 
        1.08607         13.5102         6.57141 
        1.09222          13.431         6.48439 
        1.09836         13.2614         6.39906 
        1.10449          13.175         6.31536 
        1.11063         13.0208         6.23308 
        1.11677         12.9748          6.1523 
         1.1229          12.896         6.07309 
        1.12903          12.723         5.99522 
        1.13518         12.5776         5.91865 
        1.14131         12.5413         5.84346 
        1.14745         12.4276         5.76963 
        1.15359         12.3485         5.69706 
        1.15973          12.219         5.62571 
        1.16584         12.0559         5.55591 
        1.17197         12.0276         5.48719 
        1.17811         11.9167         5.41943 
        1.18424         11.8151         5.35301 
        1.19038         11.7656         5.28751 
        1.19652         11.6512         5.22314 
        1.20267         11.5474         5.15983 
        1.20881         11.4925          5.0976 
        1.21495          11.412         5.03648 
        1.22108         11.2832         4.97639 
         1.2272         11.1919         4.91741 
        1.23334          11.115         4.85926 
        1.23949         11.0068         4.80191 
        1.24562         10.9661         4.74565 
        1.25174         10.8924         4.69037 
        1.25789         10.7963         4.63581 
        1.26402          10.758         4.58221 
        1.27014         10.6472         4.52959 
        1.27628         10.5227         4.47765 
        1.28244         10.4674         4.42641 
        1.28858         10.4515         4.37605 
        1.29471         10.3387         4.32659 
        1.30084         10.2414         4.27794 
        1.30697         10.2001         4.22996 
        1.31312         10.0796         4.18265 
        1.31925          10.008         4.13622 
        1.32537         9.97442         4.09054 
        1.33151         9.90249         4.04539 
        1.33765         9.83184         4.00094 
        1.34378         9.76466         3.95725 
        1.34992         9.66757         3.91419 
        1.35606         9.64235         3.87168 
         1.3622         9.58078         3.82987 
        1.36833         9.48209         3.78878 
        1.37445         9.44712         3.74832 
        1.38059          9.3855         3.70832 
        1.38675         9.28674         3.66881 
        1.39288         9.26726         3.63004 
        1.39901         9.17631         3.59185 
        1.40515         9.13606         3.55412 
         1.4113         9.06959         3.51694 
        1.41742         9.00461         3.48044 
        1.42355          8.9424         3.44439 
         1.4297         8.90955         3.40875 
        1.43585         8.86364         3.37362 
        1.44198         8.80253         3.33912 
        1.44809         8.74223         3.30517 
        1.45423         8.67974         3.27157 
        1.46036         8.62249         3.23849 
        1.46649         8.58956         3.20586 
        1.47263         8.50594         3.17365 
        1.47877         8.45988          3.1419 
        1.48491         8.42607         3.11053 
        1.49104         8.37201         3.07966 
        1.49718         8.32058         3.04918 
        1.50333         8.27539         3.01907 
        1.50947         8.21474         2.98942 
         1.5156         8.16622         2.96022 
        1.52172          8.1346         2.93141 
        1.52787         8.07368         2.90292 
          1.534         8.01613         2.87485 
        1.54013          7.9696         2.84718 
        1.54627         7.91284         2.81982 
        1.55241         7.88173         2.79281 
        1.55855         7.84205          2.7662 
        1.56467         7.78495         2.74001 
         1.5708         7.77461         2.71409 
        1.57695         7.70417         2.68846 
        1.58308         7.65345         2.66322 
        1.58922         7.62811         2.63829 
        1.59535         7.59106         2.61369 
         1.6015         7.52584         2.58936 
        1.60764         7.47942         2.56536 
        1.61376         7.46309         2.54173 
        1.61989         7.40685         2.51838 
        1.62604         7.38061         2.49527 
        1.63218         7.34409         2.47246 
        1.63831         7.30216         2.44999 
        1.64444         7.25123         2.42779 
        1.65059         7.19622         2.40582 
        1.65673         7.19581         2.38414 
        1.66285         7.11835         2.36279 
        1.66898         7.09542         2.34169 
        1.67512         7.06589         2.32081 
        1.68127         7.02215         2.30016 
         1.6874         6.99178         2.27981 
        1.69353         6.93515         2.25972 
        1.69967         6.91549         2.23982 
        1.70581          6.8869         2.22018 
        1.71193         6.83211         2.20084 
        1.71806         6.81195         2.18169 
        1.72421          6.7681         2.16273 
        1.73035         6.74386         2.14401 
        1.73649         6.71024         2.12552 
        1.74262          6.6714         2.10727 
        1.74876         6.65073         2.08922 
        1.75489         6.61043         2.07141 
        1.76101         6.56214         2.05382 
        1.76715         6.55121         2.03641 
        1.77329         6.49647         2.01918 
        1.77943          6.4655         2.00214 
        1.78557         6.45602         1.98532 
        1.79171         6.42136         1.96869 
        1.79785         6.37256         1.95225 
        1.80399         6.34604           1.936 
        1.81012         6.32419         1.91996 
        1.81625         6.28685          1.9041 
        1.82239         6.25972         1.88841 
        1.82853         6.22066         1.87289 
        1.83466          6.1929         1.85757 
        1.84078         6.16373         1.84243 
        1.84692         6.15013         1.82744 
        1.85306         6.10803         1.81259 
         1.8592         6.07533         1.79793 
        1.86533         6.05468         1.78345 
        1.87147         6.02723          1.7691 
        1.87761         6.00291         1.75491 
        1.88375         5.95569         1.74089 
        1.88988         5.95461         1.72704 
        1.89601         5.91861         1.71333 
        1.90215         5.88635         1.69976 
        1.90829         5.85689         1.68634 
        1.91442         5.83072         1.67307 
        1.92056         5.81485         1.65995 
         1.9267         5.77946         1.64696 
        1.93284         5.74881          1.6341 
        1.93897          5.7202          1.6214 
        1.94509           5.705         1.60886 
        1.95123         5.67931         1.59643 
        1.95737         5.64787         1.58411 
        1.96349         5.63053         1.57196 
        1.96964         5.59609          1.5599 
        1.97578         5.57048         1.54796 
        1.98192         5.55235         1.53617 
        1.98805         5.53216          1.5245 
        1.99419         5.49911         1.51295 
        2.00033         5.48917         1.50152 
        2.00647         5.45774          1.4902 
         2.0126         5.43536         1.47903 
        2.01874         5.41357         1.46794 
        2.02488         5.38668         1.45697 
        2.03101         5.36359         1.44612 
        2.03714         5.33027          1.4354 
        2.04328         5.31845         1.42477 
        2.04941         5.28428         1.41426 
        2.05554         5.27525         1.40386 
        2.06167         5.24179         1.39356 
        2.06781         5.23117         1.38335 
        2.07396         5.21545         1.37323 
        2.08009         5.18853         1.36323 
        2.08622         5.15616         1.35334 
        2.09237         5.14354         1.34353 
        2.09851         5.13075         1.33382 
        2.10464         5.10203         1.32422 
        2.11077          5.0689         1.31472 
        2.11691         5.05055          1.3053 
        2.12305         5.03537         1.29596 
        2.12918         5.02346         1.28674 
        2.13531         4.99761         1.27761 
        2.14145         4.97742         1.26855 
         2.1476          4.9566         1.25956 
        2.15372         4.93721         1.25071 
        2.15985          4.9295         1.24193 
        2.16599         4.89569         1.23321 
        2.17213          4.8812         1.22459 
        2.17827         4.86735         1.21605 
         2.1844         4.84488          1.2076 
        2.19054         4.80965         1.19922 
        2.19666         4.80205         1.19094 
         2.2028         4.78445         1.18273 
        2.20893         4.76844         1.17459 
        2.21508         4.74437         1.16651 
        2.22122         4.72322         1.15851 
        2.22736         4.70917         1.15061 
        2.23349         4.69459         1.14278 
        2.23962          4.6803         1.13501 
        2.24577         4.65587         1.12731 
         2.2519         4.64515          1.1197 
        2.25802         4.61805         1.11217 
        2.26417         4.60464         1.10468 
        2.27031         4.58188         1.09726 
        2.27644         4.56484         1.08992 
        2.28257         4.54464         1.08266 
        2.28872         4.53783         1.07544 
        2.29486         4.52135          1.0683 
        2.30099         4.50244         1.06123 
        2.30712         4.48335         1.05422 
        2.31326         4.45933         1.04727 
         2.3194         4.44739         1.04038 
        2.32553         4.43781         1.03356 
        2.33166         4.42154         1.02681 
         2.3378         4.39915         1.02011 
        2.34394         4.38514         1.01347 
        2.35007         4.36513         1.00689 
        2.35619         4.35069         1.00039 
        2.36233         4.33554         0.99392 
        2.36848         4.32092        0.987498 
        2.37462         4.30994        0.981146 
        2.38075         4.29349        0.974855 
        2.38689         4.27903        0.968615 
        2.39303         4.25506        0.962431 
        2.39916         4.24309        0.956306 
        2.40529         4.22888        0.950236 
        2.41143         4.21095        0.944213 
        2.41757         4.21188         0.93824 
         2.4237         4.18869        0.932329 
        2.42983         4.17024         0.92647 
        2.43598         4.15815        0.920646 
        2.44211         4.13989        0.914881 
        2.44823         4.12738        0.909178 
        2.45437         4.11623        0.903509 
        2.46052         4.09984        0.897882 
        2.46665         4.08623        0.892314 
        2.47279         4.06434        0.886795 
        2.47892         4.05125        0.881318 
        2.48507         4.04248        0.875883 
         2.4912         4.02421        0.870503 
