# k  (h/Mpc)    P(k)  (Mpc/h)^3    P_linear(k)  (Mpc/h)^3
     0.00783031         326.857         329.541 
       0.013688          417.17         420.758 
       0.019231         436.575         437.992 
      0.0249154          416.22         416.457 
      0.0312784         372.085         372.249 
      0.0375637         326.444         326.718 
      0.0433917         291.951         291.415 
      0.0492413          264.66         264.648 
      0.0555754         244.111         243.592 
      0.0619321         226.042         226.956 
       0.067871         212.016         212.183 
      0.0738098         196.239         196.289 
      0.0800417          178.41         178.171 
      0.0862327         159.906         159.877 
      0.0921407         143.707         143.712 
      0.0982031         130.017           129.7 
       0.104506         118.274         118.448 
       0.110769         110.179         110.303 
       0.116806         104.687         104.449 
       0.122832         99.3711          99.511 
       0.129052         94.4816         94.4151 
       0.135211          89.052         88.8286 
       0.141259         82.8124         82.7892 
       0.147318         76.3675         76.5432 
       0.153489         70.5477         70.5008 
       0.159709         65.3846         65.1955 
       0.165845         60.7841         60.9547 
       0.171974         57.9188         57.6648 
       0.178125         55.2781         55.0735 
       0.184229         52.8911         52.8759 
        0.19034         50.9818         50.7393 
       0.196428         48.6505          48.473 
       0.202534         45.9211         46.0087 
       0.208729         43.5541         43.3941 
       0.214876         41.1783         40.8426 
       0.220989         38.5406         38.5048 
       0.227147         36.8221         36.4564 
        0.23329          35.134         34.7444 
       0.239377         33.7386         33.3273 
       0.245482         32.4518         32.0932 
       0.251667         31.1582         30.9301 
       0.257832          30.169         29.7727 
       0.263955         28.8527         28.5845 
       0.270079         27.6355         27.3609 
        0.27624          26.312         26.1301 
       0.282372         25.1769         24.9555 
        0.28843         24.2832         23.8845 
       0.294538         23.2802         22.9173 
       0.300721         22.3122         22.0516 
        0.30691         21.6669         21.2775 
       0.313033          20.914         20.5718 
       0.319153         20.3924         19.8958 
       0.325316         19.5021         19.2232 
        0.33145         18.8342         18.5537 
       0.337538         18.2166          17.893 
       0.343633         17.6222         17.2474 
       0.349808         16.9659         16.6228 
       0.355968         16.3652         16.0407 
       0.362074         15.9062         15.5071 
       0.368217          15.391         15.0125 
       0.374374           15.02         14.5505 
       0.380519         14.4762         14.1137 
       0.386598         14.0273         13.6972 
       0.392688         13.6015         13.2891 
        0.39888         13.2442         12.8824 
       0.405048         12.8632         12.4868 
       0.411186         12.4684         12.1055 
       0.417313         12.1121         11.7413 
       0.423458         11.7163         11.3946 
       0.429607         11.4573         11.0666 
       0.435692          11.175         10.7598 
       0.441815         10.8233         10.4661 
       0.447964         10.4965         10.1832 
       0.454126         10.2796         9.90923 
       0.460267         10.0727         9.64437 
       0.466387         9.78013         9.38743 
        0.47254          9.5561         9.13662 
       0.478662          9.2921         8.89551 
       0.484765         9.06643          8.6642 
       0.490885         8.81561         8.44148 
       0.497035         8.57507         8.22699 
       0.503198         8.40266         8.02115 
       0.509342         8.16929         7.82386 
       0.515458         8.01554         7.63428 
       0.521598         7.83113         7.44996 
       0.527764         7.68517         7.27053 
       0.533884         7.45117          7.0978 
           0.54         7.30339         6.93034 
       0.546137         7.10642         6.76749 
       0.552299         6.96673         6.60935 
       0.558452           6.814         6.45697 
       0.564573         6.68036         6.31065 
       0.570708          6.5335         6.16889 
       0.576825         6.39614         6.03212 
       0.582926         6.24996         5.89993 
       0.589034         6.14245         5.77154 
       0.595184          6.0334          5.6461 
       0.601379         5.88074         5.52346 
       0.607522         5.75948         5.40534 
       0.613639         5.62394         5.29111 
       0.619772         5.53901         5.17994 
       0.625918         5.42387         5.07183 
       0.632068         5.32884         4.96693 
       0.638161         5.22007         4.86608 
         0.6443          5.1149         4.76742 
       0.650464         5.01029         4.67119 
       0.656582         4.94374         4.57832 
       0.662703         4.85071         4.48792 
       0.668861         4.72799         4.39943 
       0.675024         4.65038         4.31326 
       0.681124         4.61754         4.23029 
       0.687237         4.50635         4.14938 
       0.693381         4.39647         4.07026 
       0.699536         4.35187         3.99312 
       0.705665         4.27137         3.91835 
       0.711789         4.17655         3.84559 
       0.717957         4.10395         3.77421 
        0.72409         4.04037         3.70506 
       0.730186         3.99295         3.63807 
       0.736317         3.90619         3.57239 
       0.742472         3.85286         3.50811 
       0.748622         3.79236         3.44548 
        0.75476         3.70783         3.38454 
       0.760888         3.66647         3.32518 
       0.767043         3.57165         3.26704 
       0.773185         3.52952         3.21042 
       0.779291         3.49832         3.15549 
       0.785407         3.42883         3.10178 
       0.791564         3.37634           3.049 
       0.797719         3.31892         2.99749 
       0.803834         3.26861         2.94751 
       0.809972         3.21639         2.89851 
       0.816124           3.168         2.85052 
       0.822261         3.12423         2.80375 
       0.828378         3.07046          2.7582 
       0.834502         3.02691         2.71362 
       0.840667         2.99053         2.66975 
       0.846816         2.93962         2.62699 
       0.852925          2.8911         2.58545 
       0.859047         2.85061         2.54473 
       0.865192         2.81085         2.50476 
       0.871341         2.77321         2.46563 
       0.877463         2.72574         2.42753 
       0.883569         2.69006         2.39034 
       0.889708         2.65793         2.35374 
       0.895864          2.6203         2.31783 
       0.902008         2.57515         2.28275 
       0.908149         2.54509         2.24843 
       0.914301         2.51566         2.21476 
       0.920448         2.48159         2.18182 
       0.926574          2.4573         2.14968 
       0.932687         2.41832         2.11826 
       0.938823         2.37508         2.08736 
       0.944975         2.35311         2.05701 
       0.951105          2.3091         2.02738 
       0.957225         2.28434         1.99839 
       0.963368         2.26149         1.96988 
       0.969511         2.23489         1.94192 
       0.975621         2.19922         1.91467 
       0.981748         2.15998         1.88787 
       0.987916         2.13798         1.86143 
        0.99406         2.11944         1.83559 
        1.00019         2.09044          1.8103 
        1.00632         2.07128         1.78552 
        1.01246         2.04102         1.76116 
        1.01859         2.01626         1.73731 
        1.02471         1.98311         1.71393 
        1.03085         1.96124          1.6909 
        1.03698         1.94196         1.66835 
        1.04314         1.91951         1.64612 
        1.04929         1.89936         1.62435 
        1.05541         1.86776         1.60306 
        1.06154         1.85283         1.58211 
        1.06769         1.83441          1.5615 
        1.07382         1.80849         1.54133 
        1.07993          1.7866         1.52156 
        1.08607         1.76901         1.50207 
        1.09222         1.74323          1.4829 
        1.09836         1.73093         1.46409 
        1.10449         1.70186         1.44563 
        1.11063         1.68421         1.42747 
        1.11677         1.66938         1.40963 
         1.1229         1.64363         1.39214 
        1.12903         1.63269         1.37492 
        1.13518         1.60942         1.35799 
        1.14131         1.59482         1.34135 
        1.14745          1.5794           1.325 
        1.15359         1.56009         1.30893 
        1.15973         1.54431         1.29312 
        1.16584         1.52502         1.27764 
        1.17197         1.50736         1.26239 
        1.17811          1.4914         1.24735 
        1.18424         1.47575         1.23261 
        1.19038         1.45808         1.21805 
        1.19652         1.44876         1.20375 
        1.20267          1.4354         1.18967 
        1.20881         1.41369         1.17582 
        1.21495         1.40221         1.16222 
        1.22108          1.3889         1.14884 
         1.2272         1.36905          1.1357 
        1.23334          1.3589         1.12273 
        1.23949         1.34716         1.10994 
        1.24562         1.33251         1.09739 
        1.25174         1.31947         1.08505 
        1.25789          1.3025         1.07287 
        1.26402         1.29017         1.06089 
        1.27014         1.27485         1.04913 
        1.27628         1.26649         1.03751 
        1.28244         1.25478         1.02605 
        1.28858         1.23909         1.01478 
        1.29471         1.22625          1.0037 
        1.30084         1.21641          0.9928 
        1.30697         1.20814        0.982046 
        1.31312         1.19485        0.971437 
        1.31925         1.18333        0.961019 
        1.32537         1.17293        0.950766 
        1.33151         1.16017        0.940626 
        1.33765         1.14976        0.930642 
        1.34378         1.13678        0.920823 
        1.34992         1.13076        0.911141 
        1.35606         1.11773        0.901578 
         1.3622         1.10837         0.89217 
        1.36833         1.09833         0.88292 
        1.37445         1.08831        0.873807 
        1.38059         1.07803        0.864795 
        1.38675         1.06823         0.85589 
        1.39288         1.05801        0.847147 
        1.39901         1.04934        0.838531 
        1.40515          1.0387        0.830016 
         1.4113         1.03392        0.821624 
        1.41742         1.02124         0.81338 
        1.42355         1.00948        0.805236 
         1.4297         1.00536        0.797178 
        1.43585        0.993721        0.789236 
        1.44198        0.986249        0.781432 
        1.44809        0.976705         0.77375 
        1.45423        0.969899        0.766143 
        1.46036        0.961189        0.758652 
        1.46649         0.95101         0.75126 
        1.47263        0.943395        0.743961 
        1.47877        0.940026        0.736763 
        1.48491         0.92584        0.729649 
        1.49104        0.922887        0.722644 
        1.49718        0.911707        0.715727 
        1.50333        0.906222         0.70889 
        1.50947        0.899658        0.702157 
         1.5156        0.891231        0.695522 
        1.52172        0.884837        0.688973 
        1.52787        0.875277        0.682495 
          1.534        0.871001         0.67611 
        1.54013        0.862952        0.669813 
        1.54627        0.855597        0.663586 
        1.55241        0.847447        0.657437 
        1.55855        0.841677        0.651375 
        1.56467         0.83529        0.645408 
         1.5708        0.827755        0.639498 
        1.57695        0.820459        0.633654 
        1.58308         0.81244        0.627897 
        1.58922        0.809128        0.622208 
        1.59535        0.800771        0.616592 
         1.6015        0.794381        0.611038 
        1.60764        0.789014        0.605555 
        1.61376        0.782461        0.600155 
        1.61989        0.776923        0.594817 
        1.62604        0.769374        0.589533 
        1.63218        0.765996        0.584316 
        1.63831        0.758279        0.579175 
        1.64444        0.753175        0.574094 
        1.65059        0.747159        0.569063 
        1.65673        0.741389        0.564097 
        1.66285        0.736629        0.559205 
        1.66898        0.731196         0.55437 
        1.67512        0.723761        0.549583 
        1.68127        0.717937        0.544849 
         1.6874        0.714874        0.540181 
        1.69353         0.70873        0.535571 
        1.69967        0.703744        0.531004 
        1.70581        0.699422        0.526492 
        1.71193          0.6942        0.522051 
        1.71806        0.689075        0.517651 
        1.72421        0.683552        0.513294 
        1.73035        0.676802        0.508992 
        1.73649        0.675752         0.50474 
        1.74262          0.6679        0.500541 
        1.74876        0.664367        0.496387 
        1.75489        0.660109        0.492288 
        1.76101        0.653913        0.488238 
        1.76715        0.650044        0.484228 
        1.77329        0.645632        0.480258 
        1.77943        0.640737        0.476332 
        1.78557        0.638274        0.472455 
        1.79171        0.633389        0.468621 
        1.79785        0.627951        0.464829 
        1.80399        0.622237         0.46108 
        1.81012        0.619376        0.457378 
        1.81625        0.615839        0.453718 
        1.82239        0.611715        0.450093 
        1.82853        0.606804        0.446509 
        1.83466        0.602277        0.442969 
        1.84078        0.597447         0.43947 
        1.84692        0.594472        0.436004 
        1.85306        0.591077        0.432571 
         1.8592        0.586319        0.429181 
        1.86533        0.583454        0.425829 
        1.87147        0.577572        0.422509 
        1.87761        0.574537        0.419224 
        1.88375        0.571168        0.415977 
        1.88988        0.566379        0.412769 
        1.89601        0.561965        0.409592 
        1.90215        0.559638        0.406447 
        1.90829        0.555127        0.403337 
        1.91442         0.55233        0.400259 
        1.92056        0.549987        0.397216 
         1.9267        0.544877        0.394202 
        1.93284        0.540996        0.391217 
        1.93897        0.538522        0.388269 
        1.94509        0.535556        0.385358 
        1.95123        0.530457         0.38247 
        1.95737        0.527458        0.379609 
        1.96349        0.524123        0.376785 
        1.96964        0.521019        0.373982 
        1.97578          0.5171        0.371206 
        1.98192        0.514731        0.368464 
        1.98805        0.511868        0.365749 
        1.99419        0.509066        0.363062 
        2.00033        0.505553        0.360401 
        2.00647        0.502036        0.357767 
         2.0126        0.499246        0.355164 
        2.01874        0.496548        0.352583 
        2.02488        0.492894        0.350025 
        2.03101        0.489643        0.347498 
        2.03714        0.488093        0.344999 
        2.04328        0.483412        0.342521 
        2.04941        0.481528        0.340069 
        2.05554        0.478639        0.337644 
        2.06167        0.475609        0.335239 
        2.06781        0.471199        0.332857 
        2.07396        0.470188        0.330495 
        2.08009        0.466858        0.328161 
        2.08622        0.464374        0.325851 
        2.09237        0.461539        0.323559 
        2.09851        0.458047        0.321289 
        2.10464        0.455961        0.319045 
        2.11077        0.452378        0.316825 
        2.11691        0.450582        0.314621 
        2.12305        0.448118        0.312439 
        2.12918        0.445096        0.310282 
        2.13531        0.443123        0.308145 
        2.14145        0.440011        0.306024 
         2.1476        0.437951        0.303921 
        2.15372        0.435395        0.301847 
        2.15985         0.43225        0.299791 
        2.16599        0.430347        0.297749 
        2.17213        0.427997        0.295728 
        2.17827        0.424796        0.293726 
         2.1844        0.423616        0.291745 
        2.19054        0.421166        0.289781 
        2.19666        0.418661        0.287838 
         2.2028        0.415329        0.285911 
        2.20893        0.413913        0.284002 
        2.21508        0.411577        0.282107 
        2.22122        0.409734        0.280229 
        2.22736        0.406107        0.278373 
        2.23349        0.403624        0.276534 
        2.23962        0.401976         0.27471 
        2.24577        0.400077        0.272901 
         2.2519        0.398028        0.271112 
        2.25802        0.395897        0.269341 
        2.26417        0.393437        0.267581 
        2.27031        0.391345        0.265835 
        2.27644        0.390572         0.26411 
        2.28257        0.387326        0.262401 
        2.28872        0.385726        0.260703 
        2.29486        0.383208        0.259021 
        2.30099        0.381151        0.257357 
        2.30712         0.37923        0.255707 
        2.31326        0.376982        0.254069 
         2.3194        0.375718        0.252446 
        2.32553        0.373401        0.250841 
        2.33166        0.371643        0.249249 
         2.3378        0.369454         0.24767 
        2.34394        0.367543        0.246104 
        2.35007        0.365558        0.244554 
        2.35619        0.363071        0.243019 
        2.36233        0.361426        0.241493 
        2.36848        0.360012        0.239978 
        2.37462        0.358732        0.238479 
        2.38075        0.356503        0.236994 
        2.38689        0.354907         0.23552 
        2.39303        0.352766         0.23406 
        2.39916        0.350895        0.232613 
        2.40529        0.349771        0.231179 
        2.41143        0.347026        0.229756 
        2.41757        0.345624        0.228344 
         2.4237        0.343889        0.226947 
        2.42983        0.342852        0.225561 
        2.43598        0.340736        0.224184 
        2.44211        0.338032         0.22282 
        2.44823         0.33771        0.221471 
        2.45437        0.336066         0.22013 
        2.46052        0.334201        0.218798 
        2.46665        0.332205         0.21748 
        2.47279        0.330593        0.216173 
        2.47892        0.329464        0.214876 
        2.48507        0.327695        0.213588 
         2.4912        0.326286        0.212314 
