# k  (h/Mpc)    Pcb(k)  (Mpc/h)^3    Pcb_linear(k)  (Mpc/h)^3
     0.00783031         4120.52         4150.79 
       0.013688         4828.78         4904.63 
       0.019231         4690.25         4724.76 
      0.0249154         4126.33         4113.35 
      0.0312784         3308.97         3309.38 
      0.0375637         2624.99         2633.37 
      0.0433917         2197.75         2188.93 
      0.0492413         1907.26         1907.88 
      0.0555754         1744.51         1734.29 
      0.0619321         1606.36         1626.21 
       0.067871         1525.78         1529.93 
      0.0738098         1406.75         1407.26 
      0.0800417         1250.99         1245.93 
      0.0862327         1073.62          1071.4 
      0.0921407         922.037         916.621 
      0.0982031         802.414         789.003 
       0.104506         702.683          697.67 
       0.110769         651.168         644.499 
       0.116806         629.335         617.427 
       0.122832         605.086         600.255 
       0.129052         585.252         579.591 
       0.135211         557.724         547.887 
       0.141259         511.097         504.844 
       0.147318         459.137         454.849 
       0.153489         413.131         404.645 
       0.159709         375.576         361.769 
       0.165845         339.196         330.665 
       0.171974          326.54         310.701 
       0.178125         313.511         299.106 
       0.184229          301.03         291.831 
        0.19034         295.785         284.543 
       0.196428         285.242         274.217 
       0.202534         265.513         259.687 
       0.208729         253.215         241.619 
       0.214876         236.904         222.632 
       0.220989         216.517         205.131 
       0.227147         206.553         190.638 
        0.23329         196.378         179.962 
       0.239377         190.431         172.708 
       0.245482         182.717         167.631 
       0.251667         176.169         163.307 
       0.257832           174.1         158.543 
       0.263955         164.778         152.607 
       0.270079         157.332         145.409 
        0.27624         149.205         137.388 
       0.282372         142.584         129.395 
        0.28843         138.798         122.214 
       0.294538         131.594         116.132 
       0.300721         125.668         111.286 
        0.30691         123.316         107.515 
       0.313033          118.48         104.445 
       0.319153         116.625         101.552 
       0.325316         112.234          98.461 
        0.33145         108.366         95.0099 
       0.337538         104.475         91.2622 
       0.343633         100.977         87.3505 
       0.349808         97.1239         83.4944 
       0.355968         93.9362         79.9659 
       0.362074         91.7659         76.9111 
       0.368217         89.1471         74.2993 
       0.374374         86.8732         72.0441 
       0.380519         83.3457         70.0236 
       0.386598         81.2994         68.0931 
       0.392688         78.7528         66.1198 
        0.39888         77.3205         64.0335 
       0.405048         75.3149         61.8773 
       0.411186         73.3504         59.7294 
       0.417313         71.1703         57.6604 
       0.423458         69.1031         55.7186 
       0.429607         67.6651         53.9543 
       0.435692         66.5563         52.3818 
       0.441815         64.1269         50.9335 
       0.447964         62.1324         49.5725 
       0.454126         61.0339         48.2579 
       0.460267         60.4125         46.9532 
       0.466387         58.7055         45.6456 
        0.47254         57.8761         44.3359 
       0.478662         55.8095         43.0538 
       0.484765          54.722         41.8155 
       0.490885         53.1417         40.6364 
       0.497035         52.4937         39.5286 
       0.503198         51.3023          38.492 
       0.509342         49.8756          37.516 
       0.515458         49.1511         36.5887 
       0.521598         47.9214         35.6897 
       0.527764          47.271         34.8075 
       0.533884         46.5176         33.9434 
           0.54         45.3758         33.0916 
       0.546137         44.0781         32.2575 
       0.552299         43.2547         31.4489 
       0.558452         42.3457         30.6753 
       0.564573         42.0249         29.9388 
       0.570708         40.8273          29.232 
       0.576825           40.36          28.557 
       0.582926         39.7151         27.9102 
       0.589034          38.884         27.2842 
       0.595184         38.3769         26.6706 
       0.601379         37.3611         26.0661 
       0.607522         36.6739         25.4791 
       0.613639         36.2347         24.9093 
       0.619772         35.5003         24.3552 
       0.625918         34.9409         23.8191 
       0.632068         34.5455         23.3023 
       0.638161         33.8313         22.8082 
         0.6443         33.4114         22.3263 
       0.650464         32.5691         21.8571 
       0.656582         32.3877         21.4043 
       0.662703         31.9013         20.9634 
       0.668861         31.1156         20.5319 
       0.675024         30.8041         20.1118 
       0.681124         30.5393         19.7075 
       0.687237         29.9135         19.3136 
       0.693381         29.3824         18.9287 
       0.699536         29.1622         18.5538 
       0.705665         28.6354         18.1908 
       0.711789         28.1803          17.838 
       0.717957         27.6461         17.4923 
        0.72409         27.3531         17.1579 
       0.730186          27.199         16.8344 
       0.736317         26.6405         16.5176 
       0.742472         26.3306         16.2079 
       0.748622         25.9213         15.9066 
        0.75476         25.3539         15.6136 
       0.760888         25.3072         15.3285 
       0.767043         24.8056         15.0494 
       0.773185         24.5056         14.7778 
       0.779291         24.2059         14.5146 
       0.785407         23.8801         14.2574 
       0.791564          23.771         14.0049 
       0.797719         23.2144         13.7586 
       0.803834         23.1197         13.5198 
       0.809972          22.697         13.2858 
       0.816124         22.4629         13.0569 
       0.822261         22.1857          12.834 
       0.828378         21.9938         12.6171 
       0.834502         21.7495          12.405 
       0.840667         21.5078         12.1964 
       0.846816         21.0865         11.9933 
       0.852925         20.9947         11.7962 
       0.859047         20.7988         11.6031 
       0.865192         20.4809         11.4137 
       0.871341         20.2332         11.2285 
       0.877463         19.9972         11.0483 
       0.883569         19.8773         10.8725 
       0.889708         19.5822         10.6997 
       0.895864         19.3335         10.5302 
       0.902008         19.1448         10.3648 
       0.908149         18.8892          10.203 
       0.914301         18.7611         10.0445 
       0.920448         18.5293         9.88945 
       0.926574         18.3671         9.73827 
       0.932687         18.1208         9.59059 
       0.938823         17.8745         9.44546 
       0.944975         17.7619         9.30302 
       0.951105         17.6019         9.16404 
       0.957225         17.4494         9.02816 
       0.963368          17.202         8.89458 
       0.969511         17.0403         8.76373 
       0.975621         16.9047         8.63622 
       0.981748         16.6838         8.51093 
       0.987916         16.5829         8.38736 
        0.99406          16.349         8.26672 
        1.00019         16.2513          8.1487 
        1.00632         16.1324         8.03311 
        1.01246         15.9341          7.9196 
        1.01859         15.7808         7.80848 
        1.02471         15.6316         7.69963 
        1.03085          15.544          7.5925 
        1.03698          15.424         7.48764 
        1.04314         15.2188         7.38432 
        1.04929         15.0367         7.28321 
        1.05541         14.9694          7.1844 
        1.06154         14.8401         7.08719 
        1.06769         14.6691         6.99165 
        1.07382          14.525         6.89819 
        1.07993         14.4058         6.80665 
        1.08607         14.3047         6.71641 
        1.09222         14.1539         6.62773 
        1.09836         14.0273         6.54075 
        1.10449         13.9473         6.45545 
        1.11063         13.8431         6.37158 
        1.11677          13.766         6.28924 
         1.1229          13.611          6.2085 
        1.12903         13.4831         6.12912 
        1.13518         13.3847         6.05107 
        1.14131         13.2921         5.97443 
        1.14745         13.1114         5.89916 
        1.15359         12.9879         5.82518 
        1.15973         12.9216         5.75245 
        1.16584          12.793         5.68129 
        1.17197         12.6662         5.61124 
        1.17811         12.6035         5.54216 
        1.18424         12.4974         5.47445 
        1.19038         12.4491         5.40768 
        1.19652         12.2907         5.34206 
        1.20267         12.2477         5.27753 
        1.20881         12.0911         5.21408 
        1.21495         12.0272         5.15178 
        1.22108         11.9577         5.09051 
         1.2272          11.854         5.03038 
        1.23334         11.7921         4.97109 
        1.23949         11.6829         4.91262 
        1.24562          11.566         4.85526 
        1.25174         11.5311          4.7989 
        1.25789          11.434         4.74327 
        1.26402         11.3517         4.68862 
        1.27014         11.2975         4.63497 
        1.27628          11.169           4.582 
        1.28244         11.1512         4.52976 
        1.28858         11.0213          4.4784 
        1.29471          10.913         4.42796 
        1.30084          10.843         4.37834 
        1.30697          10.796         4.32941 
        1.31312         10.7168         4.28116 
        1.31925         10.6588          4.2338 
        1.32537          10.555         4.18721 
        1.33151         10.4877         4.14115 
        1.33765         10.4391         4.09582 
        1.34378         10.3882         4.05125 
        1.34992         10.2915         4.00732 
        1.35606         10.1876         3.96395 
         1.3622         10.1278         3.92131 
        1.36833         10.1024         3.87939 
        1.37445         10.0257         3.83811 
        1.38059          9.9464          3.7973 
        1.38675         9.90271           3.757 
        1.39288         9.81332         3.71744 
        1.39901          9.7414         3.67847 
        1.40515         9.69166         3.63997 
         1.4113         9.62595         3.60205 
        1.41742         9.58002          3.5648 
        1.42355         9.49472         3.52802 
         1.4297         9.43811         3.49165 
        1.43585         9.38894          3.4558 
        1.44198         9.35901          3.4206 
        1.44809         9.28299         3.38596 
        1.45423         9.21733         3.35167 
        1.46036         9.15446         3.31791 
        1.46649         9.10123         3.28461 
        1.47263         9.05329         3.25174 
        1.47877         8.98082         3.21934 
        1.48491         8.95161         3.18733 
        1.49104         8.88797         3.15582 
        1.49718         8.84452         3.12471 
        1.50333         8.79602         3.09397 
        1.50947         8.74048         3.06372 
         1.5156         8.69861         3.03391 
        1.52172         8.62051          3.0045 
        1.52787         8.61777         2.97542 
          1.534         8.54062         2.94676 
        1.54013         8.50336         2.91851 
        1.54627         8.43822         2.89058 
        1.55241         8.36975         2.86302 
        1.55855         8.34891         2.83585 
        1.56467         8.32005         2.80911 
         1.5708         8.25894         2.78264 
        1.57695          8.2106         2.75647 
        1.58308         8.16187          2.7307 
        1.58922         8.12304         2.70524 
        1.59535         8.08667         2.68012 
         1.6015         7.99757         2.65528 
        1.60764         7.96764         2.63077 
        1.61376         7.94256         2.60664 
        1.61989         7.88378         2.58279 
        1.62604         7.86659         2.55919 
        1.63218         7.81907         2.53589 
        1.63831         7.76589         2.51294 
        1.64444          7.7113         2.49027 
        1.65059         7.66987         2.46783 
        1.65673         7.65048         2.44568 
        1.66285         7.59297         2.42387 
        1.66898         7.58021         2.40232 
        1.67512         7.54643         2.38099 
        1.68127         7.46956          2.3599 
         1.6874         7.46289         2.33911 
        1.69353         7.38452         2.31859 
        1.69967         7.36995         2.29826 
        1.70581          7.3284         2.27819 
        1.71193         7.28748         2.25843 
        1.71806         7.25235         2.23886 
        1.72421         7.21483         2.21949 
        1.73035         7.19543         2.20037 
        1.73649         7.16198         2.18148 
        1.74262         7.09123         2.16283 
        1.74876         7.08512         2.14438 
        1.75489          7.0554         2.12618 
        1.76101         6.98735         2.10821 
        1.76715         6.99004         2.09041 
        1.77329         6.93422          2.0728 
        1.77943         6.89068         2.05539 
        1.78557         6.89175          2.0382 
        1.79171         6.84057         2.02121 
        1.79785         6.81419         2.00441 
        1.80399         6.77694          1.9878 
        1.81012         6.73874          1.9714 
        1.81625         6.70553          1.9552 
        1.82239         6.67533         1.93915 
        1.82853         6.62802         1.92329 
        1.83466         6.59342         1.90762 
        1.84078         6.57015         1.89215 
        1.84692         6.55606         1.87682 
        1.85306         6.52313         1.86164 
         1.8592          6.4965         1.84666 
        1.86533         6.45511         1.83185 
        1.87147         6.43219         1.81718 
        1.87761         6.40459         1.80267 
        1.88375         6.37676         1.78834 
        1.88988         6.34259         1.77417 
        1.89601         6.30893         1.76016 
        1.90215         6.28158         1.74628 
        1.90829         6.25627         1.73256 
        1.91442         6.22766         1.71899 
        1.92056         6.21742         1.70557 
         1.9267         6.17954         1.69228 
        1.93284         6.15302         1.67913 
        1.93897         6.11061         1.66614 
        1.94509         6.07542         1.65332 
        1.95123         6.06911          1.6406 
        1.95737         6.04883           1.628 
        1.96349         6.00288         1.61557 
        1.96964         5.97362         1.60324 
        1.97578         5.95836         1.59102 
        1.98192         5.93864         1.57896 
        1.98805          5.9044         1.56702 
        1.99419         5.88612         1.55521 
        2.00033         5.85384         1.54351 
        2.00647         5.83484         1.53194 
         2.0126         5.81026          1.5205 
        2.01874         5.77513         1.50916 
        2.02488         5.76252         1.49793 
        2.03101         5.74142         1.48684 
        2.03714         5.70167         1.47586 
        2.04328         5.67518         1.46499 
        2.04941         5.65427         1.45423 
        2.05554         5.63591         1.44359 
        2.06167         5.62475         1.43304 
        2.06781         5.59233          1.4226 
        2.07396         5.56625         1.41224 
        2.08009         5.52841         1.40201 
        2.08622         5.53212         1.39189 
        2.09237         5.50449         1.38185 
        2.09851         5.47329         1.37191 
        2.10464         5.46133         1.36208 
        2.11077         5.41929         1.35236 
        2.11691          5.4124         1.34271 
        2.12305         5.39127         1.33316 
        2.12918         5.35807         1.32372 
        2.13531         5.34773         1.31437 
        2.14145         5.32087          1.3051 
         2.1476         5.30687          1.2959 
        2.15372         5.28267         1.28683 
        2.15985         5.25871         1.27785 
        2.16599         5.24531         1.26892 
        2.17213         5.23906         1.26009 
        2.17827         5.20322         1.25134 
         2.1844         5.19307         1.24269 
        2.19054         5.16952         1.23411 
        2.19666         5.14372         1.22563 
         2.2028         5.12159         1.21722 
        2.20893         5.11034         1.20889 
        2.21508         5.08179         1.20062 
        2.22122         5.05824         1.19243 
        2.22736         5.03704         1.18433 
        2.23349         5.01676         1.17631 
        2.23962         5.00441         1.16836 
        2.24577         4.99083         1.16048 
         2.2519         4.98185         1.15268 
        2.25802         4.93329         1.14496 
        2.26417         4.92529         1.13729 
        2.27031         4.90975         1.12969 
        2.27644         4.89906         1.12218 
        2.28257         4.86361         1.11473 
        2.28872         4.84967         1.10734 
        2.29486         4.83592         1.10002 
        2.30099         4.82421         1.09278 
        2.30712         4.79304          1.0856 
        2.31326         4.78271         1.07848 
         2.3194         4.75985         1.07142 
        2.32553         4.74742         1.06444 
        2.33166         4.72379         1.05752 
         2.3378         4.71271         1.05065 
        2.34394         4.68951         1.04385 
        2.35007         4.67721         1.03711 
        2.35619         4.66574         1.03044 
        2.36233         4.64093         1.02381 
        2.36848         4.62517         1.01723 
        2.37462         4.61181         1.01072 
        2.38075         4.59121         1.00428 
        2.38689         4.58349        0.997881 
        2.39303         4.55902        0.991543 
        2.39916           4.551        0.985265 
        2.40529         4.52829        0.979043 
        2.41143         4.52327         0.97287 
        2.41757         4.49469        0.966748 
         2.4237         4.48613        0.960689 
        2.42983         4.46582        0.954683 
        2.43598         4.45666        0.948713 
        2.44211         4.43233        0.942803 
        2.44823         4.41537        0.936957 
        2.45437         4.40489        0.931145 
        2.46052         4.39777        0.925377 
        2.46665         4.37725        0.919667 
        2.47279         4.35761        0.914009 
        2.47892         4.34128        0.908393 
        2.48507         4.32867         0.90282 
         2.4912         4.31442        0.897305 
