# k  (h/Mpc)    P(k)  (Mpc/h)^3    P_linear(k)  (Mpc/h)^3
     0.00783031         2472.94          2504.6 
       0.013688         3255.21         3256.07 
       0.019231         3451.62         3453.88 
      0.0249154         3320.35         3352.61 
      0.0312784            3048         3060.87 
      0.0375637         2726.55         2725.41 
      0.0433917         2426.46         2443.35 
      0.0492413         2210.03         2214.68 
      0.0555754         2004.57          2027.6 
      0.0619321         1890.57         1884.45 
       0.067871         1752.47         1769.52 
      0.0738098         1637.98         1655.91 
      0.0800417         1503.84         1528.99 
      0.0862327         1380.32         1395.64 
      0.0921407         1260.85         1268.72 
      0.0982031         1136.82         1148.15 
       0.104506         1045.53         1041.08 
       0.110769         960.543         956.591 
       0.116806         891.662         894.393 
       0.122832         849.224         846.444 
       0.129052          799.84         805.309 
       0.135211         761.404         766.778 
       0.141259         727.437         727.011 
       0.147318         688.185         683.894 
       0.153489         638.181         637.713 
       0.159709         596.489         591.626 
       0.165845         562.881         549.612 
       0.171974         522.291         513.248 
       0.178125         494.108         483.191 
       0.184229         472.494         459.206 
        0.19034         444.819         439.535 
       0.196428         433.956         422.354 
       0.202534         421.274         405.782 
       0.208729         401.294         388.418 
       0.214876          380.06          370.22 
       0.220989         367.646         351.476 
       0.227147         344.626         332.733 
        0.23329         328.665          315.07 
       0.239377         316.782         299.278 
       0.245482         297.868         285.456 
       0.251667           291.5         273.433 
       0.257832         281.265         263.034 
       0.263955          271.48          253.71 
       0.270079          262.66         244.841 
        0.27624         257.327         235.984 
       0.282372         247.396         227.044 
        0.28843         237.843          218.13 
       0.294538         228.501         209.238 
       0.300721         223.745         200.588 
        0.30691         213.438         192.497 
       0.313033         207.211         185.182 
       0.319153             198         178.562 
       0.325316          194.32         172.505 
        0.33145         187.803         166.935 
       0.337538         184.293         161.698 
       0.343633         178.431         156.611 
       0.349808         173.394         151.545 
       0.355968          169.22         146.549 
       0.362074         164.178         141.697 
       0.368217         159.805         136.968 
       0.374374         155.147         132.444 
       0.380519         151.378         128.189 
       0.386598         147.459         124.244 
       0.392688         144.823         120.546 
        0.39888         140.998         117.004 
       0.405048         138.026         113.649 
       0.411186          135.11         110.439 
       0.417313         131.258         107.327 
       0.423458         128.459         104.287 
       0.429607         125.195         101.325 
       0.435692         121.279         98.4813 
       0.441815         120.117         95.7219 
       0.447964         118.241         93.0674 
       0.454126         113.378          90.527 
       0.460267         111.789         88.1144 
       0.466387         109.378         85.8205 
        0.47254         107.786         83.6095 
       0.478662          106.14         81.4912 
       0.484765         103.407         79.4504 
       0.490885         101.401         77.4662 
       0.497035         100.137         75.5291 
       0.503198         97.5869         73.6471 
       0.509342         95.3473         71.8314 
       0.515458         93.8969         70.0855 
       0.521598         92.6795         68.3946 
       0.527764         91.0716          66.759 
       0.533884         89.5062          65.196 
           0.54         87.9653         63.6898 
       0.546137         86.9208         62.2288 
       0.552299         85.7095         60.8084 
       0.558452         83.3471         59.4342 
       0.564573         82.0043         58.1078 
       0.570708         81.1471         56.8168 
       0.576825         79.4965         55.5673 
       0.582926         78.1349         54.3584 
       0.589034         76.3502          53.185 
       0.595184         75.5532         52.0406 
       0.601379         74.6497          50.924 
       0.607522         72.9357         49.8508 
       0.613639         72.7237         48.8142 
       0.619772         70.9086         47.8054 
       0.625918         70.6039         46.8237 
       0.632068         69.5551         45.8693 
       0.638161         68.4726         44.9498 
         0.6443         67.3783         44.0486 
       0.650464         66.3956         43.1687 
       0.656582         65.9166         42.3192 
       0.662703         64.6194         41.4928 
       0.668861         63.8473         40.6845 
       0.675024         62.9445         39.8978 
       0.681124         61.9472         39.1405 
       0.687237         60.9797         38.4018 
       0.693381         60.5324          37.679 
       0.699536         59.3398         36.9737 
       0.705665         59.5237         36.2896 
       0.711789         58.0851         35.6237 
       0.717957         57.5667         34.9701 
        0.72409         56.7603         34.3367 
       0.730186         55.9533         33.7231 
       0.736317         55.6508         33.1215 
       0.742472         54.7022         32.5325 
       0.748622         54.3255         31.9586 
        0.75476         53.5865         31.4001 
       0.760888         52.8693         30.8559 
       0.767043         52.3565         30.3227 
       0.773185         51.5977         29.8034 
       0.779291         51.3761         29.2994 
       0.785407         50.8393         28.8066 
       0.791564         49.9849         28.3221 
       0.797719         49.1869         27.8492 
       0.803834         49.1253         27.3903 
       0.809972         48.5109         26.9403 
       0.816124         47.5873         26.4995 
       0.822261         47.4326         26.0699 
       0.828378         46.9857         25.6513 
       0.834502         46.4429         25.2417 
       0.840667         46.0492         24.8384 
       0.846816         45.4017         24.4453 
       0.852925         45.0348         24.0632 
       0.859047          44.474         23.6886 
       0.865192         44.2186         23.3209 
       0.871341         43.9698         22.9608 
       0.877463         43.1169         22.6101 
       0.883569         42.7907         22.2677 
       0.889708         42.4548         21.9306 
       0.895864         42.1156         21.5998 
       0.902008         41.7841         21.2766 
       0.908149         41.4063         20.9603 
       0.914301         41.2264           20.65 
       0.920448         40.4402         20.3463 
       0.926574         40.2893         20.0498 
       0.932687         39.8788           19.76 
       0.938823         39.3856         19.4749 
       0.944975         39.1531         19.1949 
       0.951105          38.858         18.9214 
       0.957225         38.4029         18.6538 
       0.963368          38.192         18.3905 
       0.969511         37.9183         18.1324 
       0.975621         37.6479         17.8807 
       0.981748         37.1561         17.6331 
       0.987916         36.9904         17.3888 
        0.99406         36.6397           17.15 
        1.00019         36.1957         16.9163 
        1.00632         36.0963         16.6872 
        1.01246         35.7752          16.462 
        1.01859         35.3553         16.2414 
        1.02471         35.3169         16.0252 
        1.03085          34.974         15.8123 
        1.03698         34.4818         15.6037 
        1.04314          34.263          15.398 
        1.04929         34.0084         15.1966 
        1.05541         33.6796         14.9996 
        1.06154         33.5305         14.8057 
        1.06769         33.3077         14.6149 
        1.07382         33.0086         14.4282 
        1.07993         32.8922         14.2452 
        1.08607          32.488         14.0647 
        1.09222         32.3321         13.8871 
        1.09836         31.9609         13.7129 
        1.10449         31.8731         13.5419 
        1.11063         31.4899         13.3736 
        1.11677         31.3953         13.2083 
         1.1229         31.2684         13.0461 
        1.12903         30.8676         12.8865 
        1.13518         30.6182         12.7295 
        1.14131          30.558         12.5752 
        1.14745         30.3353         12.4236 
        1.15359         30.1607         12.2745 
        1.15973         29.8551         12.1278 
        1.16584          29.558         11.9841 
        1.17197         29.5934         11.8426 
        1.17811         29.2218          11.703 
        1.18424         28.9861          11.566 
        1.19038         28.9249         11.4309 
        1.19652         28.7043          11.298 
        1.20267         28.4986         11.1672 
        1.20881         28.3823         11.0386 
        1.21495         28.1643         10.9122 
        1.22108         27.9429         10.7878 
         1.2272         27.6823         10.6657 
        1.23334         27.5499         10.5452 
        1.23949         27.3348         10.4263 
        1.24562         27.3013         10.3096 
        1.25174         27.1194         10.1948 
        1.25789         26.9685         10.0815 
        1.26402         26.8193         9.97013 
        1.27014         26.5767         9.86073 
        1.27628         26.3355         9.75265 
        1.28244         26.2939         9.64601 
        1.28858         26.1777         9.54112 
        1.29471         25.9317         9.43804 
        1.30084         25.7639          9.3366 
        1.30697         25.6267         9.23651 
        1.31312         25.4038         9.13776 
        1.31925         25.2774         9.04078 
        1.32537         25.2187         8.94532 
        1.33151         24.9863          8.8509 
        1.33765         24.8862         8.75792 
        1.34378         24.7892         8.66647 
        1.34992         24.4839         8.57628 
        1.35606         24.4554         8.48718 
         1.3622         24.3281         8.39952 
        1.36833         24.1601         8.31333 
        1.37445         24.0748         8.22839 
        1.38059         23.9555          8.1444 
        1.38675         23.7119         8.06138 
        1.39288         23.6437         7.97986 
        1.39901         23.4468         7.89952 
        1.40515         23.3701         7.82012 
         1.4113         23.2348         7.74184 
        1.41742         23.0696         7.66494 
        1.42355         22.9948         7.58896 
         1.4297         22.8515         7.51378 
        1.43585          22.802         7.43965 
        1.44198         22.5674         7.36682 
        1.44809         22.5164          7.2951 
        1.45423         22.3904         7.22409 
        1.46036         22.3109         7.15415 
        1.46649         22.1824         7.08513 
        1.47263         22.0093         7.01696 
        1.47877         21.9243         6.94973 
        1.48491          21.804         6.88329 
        1.49104         21.7491         6.81786 
        1.49718         21.5733         6.75324 
        1.50333         21.4864         6.68936 
        1.50947         21.4075         6.62645 
         1.5156         21.2368         6.56444 
        1.52172         21.1012         6.50324 
        1.52787         21.0331          6.4427 
          1.534         20.9312         6.38302 
        1.54013         20.7919         6.32415 
        1.54627         20.6946         6.26593 
        1.55241         20.5836         6.20845 
        1.55855          20.523         6.15177 
        1.56467         20.4181         6.09596 
         1.5708         20.3539         6.04069 
        1.57695         20.1665         5.98603 
        1.58308         20.1301         5.93218 
        1.58922         20.0272         5.87895 
        1.59535         19.9218         5.82641 
         1.6015         19.7986         5.77445 
        1.60764          19.742         5.72314 
        1.61376         19.6867         5.67261 
        1.61989         19.4919         5.62265 
        1.62604         19.4968         5.57319 
        1.63218          19.359         5.52435 
        1.63831         19.2939         5.47622 
        1.64444         19.1571         5.42865 
        1.65059         19.0867         5.38153 
        1.65673         19.0185         5.33503 
        1.66285         18.8763         5.28921 
        1.66898         18.8384         5.24392 
        1.67512         18.7484         5.19907 
        1.68127         18.6177         5.15471 
         1.6874         18.5577         5.11097 
        1.69353          18.511         5.06777 
        1.69967         18.3713         5.02496 
        1.70581         18.2614         4.98268 
        1.71193         18.2018         4.94104 
        1.71806         18.1699          4.8998 
        1.72421         18.0383         4.85895 
        1.73035         18.0048         4.81861 
        1.73649         17.9043         4.77875 
        1.74262         17.8452         4.73937 
        1.74876         17.7501         4.70041 
        1.75489         17.6813         4.66197 
        1.76101         17.5682         4.62398 
        1.76715         17.5721         4.58636 
        1.77329         17.4594         4.54912 
        1.77943         17.3459         4.51228 
        1.78557         17.2858         4.47591 
        1.79171         17.2441         4.43993 
        1.79785         17.1436         4.40434 
        1.80399         17.0818         4.36916 
        1.81012         16.9982         4.33441 
        1.81625         16.9092         4.30005 
        1.82239         16.8614         4.26602 
        1.82853         16.7277         4.23238 
        1.83466         16.7024         4.19914 
        1.84078         16.5797         4.16629 
        1.84692         16.5655         4.13374 
        1.85306         16.4877          4.1015 
         1.8592         16.4189         4.06966 
        1.86533         16.3607         4.03818 
        1.87147         16.2794           4.007 
        1.87761         16.2179         3.97613 
        1.88375          16.134         3.94563 
        1.88988          16.094         3.91549 
        1.89601         16.0278         3.88564 
        1.90215         15.9379         3.85608 
        1.90829         15.8882         3.82685 
        1.91442         15.8139         3.79792 
        1.92056         15.7729         3.76932 
         1.9267         15.6986         3.74098 
        1.93284         15.6244         3.71292 
        1.93897         15.5331          3.6852 
        1.94509         15.4969         3.65783 
        1.95123         15.4389         3.63067 
        1.95737         15.3654         3.60376 
        1.96349          15.297          3.5772 
        1.96964         15.2478         3.55083 
        1.97578         15.1828         3.52472 
        1.98192         15.1092         3.49893 
        1.98805         15.0645         3.47339 
        1.99419         14.9949         3.44811 
        2.00033         14.9511         3.42307 
        2.00647         14.9044         3.39828 
         2.0126         14.7873         3.37379 
        2.01874         14.7525          3.3495 
        2.02488          14.678         3.32543 
        2.03101          14.655         3.30164 
        2.03714         14.5921         3.27811 
        2.04328         14.5259         3.25479 
        2.04941         14.4743         3.23171 
        2.05554         14.4293         3.20887 
        2.06167         14.3607         3.18623 
        2.06781         14.3199          3.1638 
        2.07396         14.2591         3.14155 
        2.08009         14.1894         3.11957 
        2.08622         14.1219         3.09781 
        2.09237         14.0998         3.07623 
        2.09851         14.0615         3.05484 
        2.10464         13.9899          3.0337 
        2.11077          13.927         3.01279 
        2.11691         13.8547         2.99202 
        2.12305         13.8297         2.97146 
        2.12918          13.794         2.95113 
        2.13531         13.7197           2.931 
        2.14145         13.6799         2.91101 
         2.1476         13.6124         2.89119 
        2.15372         13.5745         2.87164 
        2.15985         13.5339         2.85227 
        2.16599         13.4685         2.83301 
        2.17213         13.4438         2.81396 
        2.17827         13.3857         2.79509 
         2.1844         13.3303          2.7764 
        2.19054         13.2551         2.75789 
        2.19666         13.2255         2.73957 
         2.2028         13.1635          2.7214 
        2.20893         13.1474         2.70338 
        2.21508         13.0794         2.68552 
        2.22122         13.0087          2.6678 
        2.22736          12.984         2.65029 
        2.23349          12.923         2.63293 
        2.23962         12.9066         2.61573 
        2.24577         12.8322         2.59866 
         2.2519         12.7892         2.58177 
        2.25802         12.7452         2.56506 
        2.26417          12.691         2.54845 
        2.27031         12.6623         2.53198 
        2.27644         12.6214          2.5157 
        2.28257         12.5851         2.49956 
        2.28872         12.5058         2.48354 
        2.29486         12.4833         2.46766 
        2.30099         12.4645         2.45195 
        2.30712         12.4182         2.43637 
        2.31326         12.3413         2.42091 
         2.3194          12.278         2.40558 
        2.32553         12.2787         2.39042 
        2.33166         12.2136         2.37539 
         2.3378          12.185         2.36048 
        2.34394         12.1294         2.34569 
        2.35007         12.0648         2.33104 
        2.35619         12.0333         2.31654 
        2.36233         11.9874         2.30213 
        2.36848          11.968         2.28781 
        2.37462         11.9078         2.27365 
        2.38075         11.8587         2.25962 
        2.38689          11.827          2.2457 
        2.39303         11.7857          2.2319 
        2.39916         11.7492         2.21822 
        2.40529          11.721         2.20467 
        2.41143          11.658         2.19122 
        2.41757         11.6437         2.17788 
         2.4237         11.5833         2.16467 
        2.42983         11.5652         2.15157 
        2.43598         11.5225         2.13855 
        2.44211         11.4665         2.12566 
        2.44823         11.4473          2.1129 
        2.45437         11.3961         2.10022 
        2.46052         11.3509         2.08763 
        2.46665         11.3139         2.07516 
        2.47279         11.2768         2.06281 
        2.47892         11.2312         2.05054 
        2.48507         11.1904         2.03836 
         2.4912         11.1631         2.02631 
