# k  (h/Mpc)    P(k)  (Mpc/h)^3    P_linear(k)  (Mpc/h)^3
     0.00783031         11578.6         11785.6 
       0.013688         15404.7         15328.9 
       0.019231         16227.2         16258.4 
      0.0249154         15419.9         15779.4 
      0.0312784         14184.4         14404.5 
      0.0375637         12732.2         12824.6 
      0.0433917         11202.8         11496.5 
      0.0492413         10254.6           10420 
      0.0555754         9164.97         9539.37 
      0.0619321         8778.04          8865.6 
       0.067871         8002.33         8324.63 
      0.0738098         7476.75         7789.99 
      0.0800417         6804.23         7192.77 
      0.0862327         6282.45         6565.34 
      0.0921407         5796.92         5968.23 
      0.0982031         5224.16         5400.98 
       0.104506         4887.62         4897.28 
       0.110769         4497.99         4499.79 
       0.116806         4194.78         4207.17 
       0.122832         3988.15          3981.6 
       0.129052         3714.37         3788.08 
       0.135211         3546.36         3606.82 
       0.141259         3416.04         3419.74 
       0.147318         3244.88         3216.91 
       0.153489         2996.98         2999.67 
       0.159709         2843.89         2782.88 
       0.165845         2735.09         2585.25 
       0.171974         2568.44         2414.19 
       0.178125         2437.22          2272.8 
       0.184229         2333.41         2159.98 
        0.19034         2202.66         2067.45 
       0.196428         2167.71         1986.63 
       0.202534         2093.66         1908.68 
       0.208729         2008.85            1827 
       0.214876          1928.3          1741.4 
       0.220989         1871.75         1653.23 
       0.227147         1787.96         1565.07 
        0.23329         1719.32         1481.98 
       0.239377         1693.82          1407.7 
       0.245482         1588.68         1342.69 
       0.251667         1580.31         1286.13 
       0.257832         1521.03         1237.22 
       0.263955         1473.43         1193.36 
       0.270079         1427.16         1151.65 
        0.27624         1414.27         1109.99 
       0.282372         1354.83         1067.93 
        0.28843         1347.87            1026 
       0.294538          1283.6         984.176 
       0.300721         1278.61         943.491 
        0.30691         1227.42         905.433 
       0.313033         1204.68         871.024 
       0.319153         1185.18         839.885 
       0.325316         1146.26         811.398 
        0.33145         1121.51         785.197 
       0.337538         1106.02         760.566 
       0.343633         1079.76         736.638 
       0.349808         1046.01         712.807 
       0.355968         1040.21          689.31 
       0.362074         1028.71         666.487 
       0.368217         998.537         644.241 
       0.374374         961.746         622.963 
       0.380519         961.983         602.949 
       0.386598         938.707         584.392 
       0.392688         935.588         567.001 
        0.39888         908.919         550.339 
       0.405048         897.644         534.558 
       0.411186         884.789         519.461 
       0.417313         866.971         504.824 
       0.423458         854.192         490.525 
       0.429607         841.024         476.593 
       0.435692         824.731         463.215 
       0.441815         820.046         450.236 
       0.447964         802.377          437.75 
       0.454126         792.596         425.801 
       0.460267         776.785         414.454 
       0.466387         767.897         403.663 
        0.47254         759.331         393.264 
       0.478662         754.673           383.3 
       0.484765         734.891         373.701 
       0.490885         729.962         364.368 
       0.497035         714.864         355.257 
       0.503198         709.906         346.405 
       0.509342         702.365         337.864 
       0.515458          698.57         329.652 
       0.521598         683.184         321.699 
       0.527764         668.853         314.006 
       0.533884         669.093         306.654 
           0.54         660.881          299.57 
       0.546137         657.241         292.697 
       0.552299         647.116         286.017 
       0.558452         643.571         279.553 
       0.564573         634.009         273.314 
       0.570708         627.553         267.242 
       0.576825         610.858         261.365 
       0.582926         613.342         255.678 
       0.589034         607.827         250.159 
       0.595184         601.756         244.776 
       0.601379         594.442         239.525 
       0.607522          586.24         234.477 
       0.613639         586.849         229.601 
       0.619772         571.911         224.856 
       0.625918         570.013         220.239 
       0.632068         562.845         215.749 
       0.638161         561.026         211.425 
         0.6443         550.082         207.185 
       0.650464         548.365         203.047 
       0.656582         546.282         199.051 
       0.662703         542.437         195.164 
       0.668861         532.794         191.362 
       0.675024         529.105         187.662 
       0.681124          526.08           184.1 
       0.687237         521.386         180.625 
       0.693381         515.169         177.225 
       0.699536         507.583         173.908 
       0.705665         506.932          170.69 
       0.711789         502.768         167.558 
       0.717957         498.362         164.484 
        0.72409         495.152         161.505 
       0.730186          489.21         158.619 
       0.736317         485.575         155.789 
       0.742472         483.825         153.019 
       0.748622         478.138         150.319 
        0.75476         472.117         147.692 
       0.760888         467.372         145.133 
       0.767043         467.982         142.625 
       0.773185         462.092         140.182 
       0.779291         457.423         137.812 
       0.785407         454.307         135.493 
       0.791564         449.281         133.215 
       0.797719         446.973         130.991 
       0.803834          443.47         128.832 
       0.809972         441.087         126.715 
       0.816124         440.766         124.642 
       0.822261         433.728         122.621 
       0.828378         431.631         120.652 
       0.834502         427.792         118.726 
       0.840667         423.536         116.829 
       0.846816         421.895          114.98 
       0.852925         417.801         113.183 
       0.859047         417.339         111.421 
       0.865192         412.631         109.691 
       0.871341         409.325         107.998 
       0.877463         407.544         106.348 
       0.883569         404.259         104.737 
       0.889708         401.463         103.152 
       0.895864         397.883         101.596 
       0.902008         395.796         100.076 
       0.908149         392.805         98.5879 
       0.914301         388.953         97.1282 
       0.920448         386.395         95.6998 
       0.926574         381.732         94.3055 
       0.932687          382.17         92.9423 
       0.938823         377.531         91.6014 
       0.944975         377.515         90.2842 
       0.951105         372.917         88.9979 
       0.957225         370.393         87.7392 
       0.963368         366.651         86.5009 
       0.969511         364.968         85.2867 
       0.975621         362.176         84.1026 
       0.981748         361.669         82.9383 
       0.987916         358.671         81.7889 
        0.99406         352.841          80.666 
        1.00019          352.77         79.5666 
        1.00632         350.537          78.489 
        1.01246         347.595           77.43 
        1.01859         347.969         76.3925 
        1.02471         342.957         75.3755 
        1.03085         340.652         74.3738 
        1.03698         339.724         73.3927 
        1.04314         336.428         72.4253 
        1.04929         333.457         71.4778 
        1.05541         333.432         70.5514 
        1.06154         328.635         69.6393 
        1.06769         327.271         68.7421 
        1.07382         325.567         67.8639 
        1.07993         323.271         67.0032 
        1.08607         322.294          66.154 
        1.09222         319.475         65.3189 
        1.09836         317.188         64.4994 
        1.10449         313.966          63.695 
        1.11063         311.378         62.9036 
        1.11677         311.165          62.126 
         1.1229          309.24         61.3631 
        1.12903         306.469         60.6125 
        1.13518         304.102          59.874 
        1.14131         302.505         59.1483 
        1.14745         301.131         58.4351 
        1.15359         298.617         57.7337 
        1.15973         297.151         57.0436 
        1.16584         294.685         56.3679 
        1.17197         294.193         55.7024 
        1.17811         291.218         55.0456 
        1.18424          289.03         54.4015 
        1.19038         287.765         53.7659 
        1.19652         285.565         53.1408 
        1.20267         284.848         52.5257 
        1.20881         282.744         51.9206 
        1.21495          280.35         51.3261 
        1.22108         279.044          50.741 
         1.2272         277.073         50.1666 
        1.23334         275.241         49.5998 
        1.23949         273.981         49.0406 
        1.24562         272.409         48.4916 
        1.25174         269.572         47.9519 
        1.25789         267.776         47.4189 
        1.26402         266.553          46.895 
        1.27014         264.655         46.3804 
        1.27628         263.289         45.8721 
        1.28244         262.661         45.3705 
        1.28858         259.847         44.8771 
        1.29471         257.606         44.3923 
        1.30084         256.719         43.9152 
        1.30697         254.962         43.4444 
        1.31312         252.704         42.9799 
        1.31925         252.702         42.5238 
        1.32537         251.139         42.0747 
        1.33151         248.551         41.6307 
        1.33765         246.883         41.1933 
        1.34378         246.004         40.7632 
        1.34992         244.513         40.3389 
        1.35606         244.068         39.9199 
         1.3622         242.011         39.5076 
        1.36833         239.768         39.1021 
        1.37445         238.586         38.7026 
        1.38059         236.529         38.3076 
        1.38675         235.837         37.9171 
        1.39288         233.845         37.5337 
        1.39901          233.44         37.1558 
        1.40515         231.447         36.7823 
         1.4113         229.953         36.4141 
        1.41742         228.681         36.0524 
        1.42355         226.733          35.695 
         1.4297         225.539         35.3414 
        1.43585         224.141         34.9928 
        1.44198         222.907         34.6502 
        1.44809         221.964         34.3129 
        1.45423         220.022         33.9788 
        1.46036         219.293         33.6499 
        1.46649         217.369         33.3252 
        1.47263         215.818         33.0046 
        1.47877         214.885         32.6884 
        1.48491         213.346         32.3759 
        1.49104          212.47         32.0681 
        1.49718         210.395         31.7642 
        1.50333         209.641         31.4637 
        1.50947         208.511         31.1678 
         1.5156         206.578         30.8762 
        1.52172          205.73         30.5883 
        1.52787         204.247         30.3036 
          1.534         203.615         30.0228 
        1.54013         201.717         29.7459 
        1.54627         201.112         29.4721 
        1.55241         199.384         29.2017 
        1.55855         198.257         28.9351 
        1.56467         196.948         28.6726 
         1.5708         196.616         28.4126 
        1.57695         194.564         28.1556 
        1.58308         193.898         27.9023 
        1.58922         192.073         27.6519 
        1.59535         190.826         27.4048 
         1.6015         190.486         27.1604 
        1.60764         188.917         26.9191 
        1.61376         187.367         26.6814 
        1.61989         186.627         26.4464 
        1.62604          185.66         26.2137 
        1.63218         184.551          25.984 
        1.63831         183.392         25.7576 
        1.64444         182.447         25.5339 
        1.65059         180.905         25.3123 
        1.65673         180.008         25.0935 
        1.66285         179.186          24.878 
        1.66898         177.885          24.665 
        1.67512          177.48          24.454 
        1.68127         175.379         24.2454 
         1.6874         174.438         24.0397 
        1.69353         173.818         23.8365 
        1.69967         172.487         23.6351 
        1.70581         171.541         23.4362 
        1.71193         170.306         23.2404 
        1.71806          169.84         23.0464 
        1.72421         168.488         22.8543 
        1.73035          167.88         22.6646 
        1.73649         166.915          22.477 
        1.74262         165.562         22.2918 
        1.74876         164.916         22.1086 
        1.75489         163.536         21.9278 
        1.76101         162.618         21.7491 
        1.76715         162.017         21.5722 
        1.77329         161.254          21.397 
        1.77943         160.033         21.2237 
        1.78557         159.141         21.0526 
        1.79171         158.163         20.8834 
        1.79785         157.101          20.716 
        1.80399         156.224         20.5505 
        1.81012         155.252         20.3871 
        1.81625         154.577         20.2255 
        1.82239          153.56         20.0654 
        1.82853         152.955         19.9072 
        1.83466         151.871         19.7508 
        1.84078         151.193         19.5963 
        1.84692         149.713         19.4432 
        1.85306         149.508         19.2916 
         1.8592         148.206         19.1418 
        1.86533         147.288         18.9938 
        1.87147         146.382         18.8471 
        1.87761         146.065         18.7019 
        1.88375         144.311         18.5584 
        1.88988         143.843         18.4167 
        1.89601          143.01         18.2763 
        1.90215         142.124         18.1373 
        1.90829         141.524         17.9998 
        1.91442         140.715         17.8637 
        1.92056         139.873         17.7291 
         1.9267         139.179         17.5959 
        1.93284         138.473         17.4639 
        1.93897         137.378         17.3335 
        1.94509         136.931         17.2048 
        1.95123         136.145          17.077 
        1.95737         135.486         16.9504 
        1.96349         134.622         16.8255 
        1.96964         133.482         16.7015 
        1.97578         132.718         16.5787 
        1.98192         132.223         16.4573 
        1.98805         131.121         16.3372 
        1.99419         130.613         16.2183 
        2.00033         129.837         16.1005 
        2.00647         129.361          15.984 
         2.0126         128.134         15.8687 
        2.01874          127.71         15.7545 
        2.02488           127.2         15.6413 
        2.03101         125.994         15.5294 
        2.03714          125.39         15.4187 
        2.04328         124.775          15.309 
        2.04941         123.973         15.2005 
        2.05554         123.234         15.0931 
        2.06167         122.959         14.9865 
        2.06781         122.283         14.8811 
        2.07396         121.197         14.7764 
        2.08009          120.62          14.673 
        2.08622         120.038         14.5707 
        2.09237         119.125         14.4692 
        2.09851         118.597         14.3686 
        2.10464         118.021         14.2691 
        2.11077         117.417         14.1708 
        2.11691         116.803         14.0731 
        2.12305         115.667         13.9764 
        2.12918         115.306         13.8808 
        2.13531         114.651         13.7861 
        2.14145         113.886         13.6921 
         2.1476         113.256         13.5988 
        2.15372         112.791         13.5069 
        2.15985         112.361         13.4157 
        2.16599         111.571         13.3252 
        2.17213          110.74         13.2356 
        2.17827         110.456         13.1468 
         2.1844         109.619         13.0589 
        2.19054         109.108         12.9718 
        2.19666         108.569         12.8857 
         2.2028         107.895         12.8002 
        2.20893         107.243         12.7155 
        2.21508         106.556         12.6314 
        2.22122         106.103         12.5481 
        2.22736          105.52         12.4657 
        2.23349         104.988         12.3841 
        2.23962         104.265         12.3032 
        2.24577         103.964         12.2229 
         2.2519         103.405         12.1435 
        2.25802         102.408         12.0649 
        2.26417         102.107         11.9868 
        2.27031         101.441         11.9093 
        2.27644         100.936         11.8327 
        2.28257         100.512         11.7568 
        2.28872         99.8463         11.6814 
        2.29486          99.379         11.6067 
        2.30099         98.8914         11.5328 
        2.30712          98.248         11.4596 
        2.31326         97.7001         11.3868 
         2.3194         97.0973         11.3148 
        2.32553         96.6432         11.2434 
        2.33166         96.2136         11.1728 
         2.3378         95.6659         11.1026 
        2.34394         95.2833          11.033 
        2.35007         94.6404         10.9641 
        2.35619         94.1198         10.8959 
        2.36233         93.6526         10.8282 
        2.36848         92.9912         10.7608 
        2.37462         92.6059         10.6942 
        2.38075         92.1761         10.6282 
        2.38689         91.5069         10.5627 
        2.39303         90.9033         10.4978 
        2.39916         90.5112         10.4335 
        2.40529         90.2713         10.3697 
        2.41143          89.766         10.3065 
        2.41757          89.159         10.2437 
         2.4237         88.6761         10.1816 
        2.42983         88.1883           10.12 
        2.43598          87.709         10.0588 
        2.44211         87.3917         9.99812 
        2.44823         86.9084         9.93812 
        2.45437         86.2798         9.87846 
        2.46052          85.748         9.81924 
        2.46665         85.3803         9.76061 
        2.47279         84.9301         9.70248 
        2.47892         84.5492         9.64479 
        2.48507         84.0306         9.58752 
         2.4912         83.7059         9.53082 
