# k  (h/Mpc)    Pcb(k)  (Mpc/h)^3    Pcb_linear(k)  (Mpc/h)^3
     0.00783031         225.135          227.08 
       0.013688         288.177         289.215 
       0.019231         300.324         300.602 
      0.0249154         284.332         285.374 
      0.0312784         253.984         254.138 
      0.0375637         221.804         221.463 
      0.0433917         195.663         195.669 
      0.0492413         176.136         175.896 
      0.0555754         160.347         160.553 
      0.0619321         149.573         149.178 
       0.067871         139.703         139.899 
      0.0738098         130.082         130.322 
      0.0800417         118.893         119.269 
      0.0862327         107.476         107.592 
      0.0921407         96.6696         96.6736 
      0.0982031         86.5629         86.6426 
       0.104506         78.3854         78.1439 
       0.110769         71.9998         71.8037 
       0.116806         67.3304         67.3776 
       0.122832         64.1403         64.0473 
       0.129052         60.9941         61.0871 
       0.135211         57.9522         58.0804 
       0.141259          54.769         54.7669 
       0.147318         51.2162         51.0871 
       0.153489         47.2387         47.1893 
       0.159709         43.5086         43.4326 
       0.165845         40.4442         40.1736 
       0.171974         37.5957         37.5105 
       0.178125         35.5541         35.4315 
       0.184229         34.0079         33.8358 
        0.19034         32.5274         32.5187 
       0.196428         31.3948          31.295 
       0.202534         30.2336         30.0122 
       0.208729         28.7209         28.5872 
       0.214876         27.1328         27.0673 
       0.220989         25.7451         25.5269 
       0.227147         24.1253         24.0434 
        0.23329         22.8075          22.713 
       0.239377         21.7134         21.5844 
       0.245482         20.7137         20.6401 
       0.251667         20.0121         19.8377 
       0.257832          19.268         19.1346 
       0.263955         18.6233         18.4732 
       0.270079          17.958         17.8054 
        0.27624         17.3294         17.1076 
       0.282372         16.6085         16.3908 
        0.28843         15.8486         15.6823 
       0.294538         15.1713         14.9944 
       0.300721         14.5883         14.3501 
        0.30691         13.9441         13.7706 
       0.313033         13.4513          13.263 
       0.319153         12.9118         12.8104 
       0.325316         12.6161         12.3935 
        0.33145         12.2021         11.9993 
       0.337538         11.8109         11.6156 
       0.343633         11.4016         11.2313 
       0.349808         11.0414         10.8426 
       0.355968         10.6606         10.4596 
       0.362074         10.2832          10.093 
       0.368217         9.94422         9.74371 
       0.374374         9.58335         9.41767 
       0.380519         9.31545         9.11734 
       0.386598         9.05461         8.84177 
       0.392688         8.81146         8.58323 
        0.39888         8.54621         8.33265 
       0.405048          8.3116         8.09084 
       0.411186           8.083         7.85561 
       0.417313         7.82666         7.62492 
       0.423458         7.61907         7.39885 
       0.429607         7.37967         7.17989 
       0.435692         7.16993         6.97198 
       0.441815         6.97803         6.77278 
       0.447964          6.8178         6.58358 
       0.454126         6.60324         6.40388 
       0.460267         6.43505         6.23342 
       0.466387         6.25661         6.07074 
        0.47254         6.11325         5.91288 
       0.478662         5.96974         5.76023 
       0.484765         5.80582         5.61218 
       0.490885         5.66197         5.46789 
       0.497035         5.55727         5.32722 
       0.503198         5.40255         5.19104 
       0.509342           5.277         5.06046 
       0.515458         5.14231         4.93575 
       0.521598         5.02587         4.81556 
       0.527764         4.89568         4.69947 
       0.533884         4.80522         4.58846 
           0.54          4.6904         4.48127 
       0.546137         4.59212         4.37701 
       0.552299         4.48919          4.2753 
       0.558452         4.37176         4.17664 
       0.564573         4.29012          4.0814 
       0.570708         4.19697         3.98889 
       0.576825         4.09621         3.89961 
       0.582926         4.02171         3.81344 
       0.589034         3.91175         3.72996 
       0.595184         3.83882         3.64866 
       0.601379         3.75739         3.56943 
       0.607522         3.69363         3.49329 
       0.613639         3.63266         3.41969 
       0.619772         3.53808         3.34795 
       0.625918         3.47757         3.27805 
       0.632068         3.41791         3.21006 
       0.638161         3.34046         3.14461 
         0.6443         3.27316         3.08054 
       0.650464         3.20159         3.01808 
       0.656582         3.15321         2.95786 
       0.662703         3.09383         2.89931 
       0.668861         3.04435         2.84205 
       0.675024         2.97859         2.78633 
       0.681124         2.91679          2.7327 
       0.687237          2.8748          2.6804 
       0.693381         2.82387         2.62924 
       0.699536         2.75364         2.57933 
       0.705665         2.71002         2.53093 
       0.711789         2.66755         2.48382 
       0.717957         2.61542          2.4376 
        0.72409         2.57225         2.39281 
       0.730186         2.52573         2.34945 
       0.736317         2.49674         2.30694 
       0.742472         2.45123         2.26535 
       0.748622         2.40407         2.22485 
        0.75476         2.35723         2.18545 
       0.760888         2.31874         2.14707 
       0.767043         2.29337         2.10948 
       0.773185         2.24572         2.07288 
       0.779291         2.21279         2.03736 
       0.785407         2.17704         2.00263 
       0.791564         2.14335          1.9685 
       0.797719         2.11291         1.93518 
       0.803834         2.08115         1.90287 
       0.809972         2.04715         1.87118 
       0.816124         2.01096         1.84015 
       0.822261         1.97623         1.80993 
       0.828378         1.95123         1.78048 
       0.834502         1.92691         1.75167 
       0.840667          1.8868         1.72332 
       0.846816         1.85947         1.69569 
       0.852925         1.84051         1.66884 
       0.859047         1.81245         1.64253 
       0.865192          1.7832          1.6167 
       0.871341         1.75733         1.59142 
       0.877463         1.73803          1.5668 
       0.883569         1.70659         1.54276 
       0.889708         1.68105         1.51912 
       0.895864         1.65897         1.49591 
       0.902008         1.63137         1.47324 
       0.908149         1.61046         1.45106 
       0.914301         1.58006         1.42931 
       0.920448         1.56198         1.40802 
       0.926574         1.53915         1.38725 
       0.932687         1.51852         1.36695 
       0.938823         1.50449         1.34698 
       0.944975         1.48155         1.32737 
       0.951105         1.46345         1.30823 
       0.957225         1.44782          1.2895 
       0.963368         1.42647         1.27107 
       0.969511         1.40469         1.25302 
       0.975621         1.38299         1.23541 
       0.981748         1.37126          1.2181 
       0.987916         1.35159         1.20101 
        0.99406         1.33141         1.18433 
        1.00019         1.31921         1.16799 
        1.00632         1.29728         1.15198 
        1.01246         1.28133         1.13625 
        1.01859         1.26772         1.12085 
        1.02471         1.24977         1.10575 
        1.03085          1.2387         1.09088 
        1.03698         1.21947         1.07632 
        1.04314         1.20649         1.06197 
        1.04929         1.18922         1.04791 
        1.05541         1.17738         1.03417 
        1.06154         1.16114         1.02064 
        1.06769          1.1463         1.00733 
        1.07382         1.13419        0.994315 
        1.07993         1.11699        0.981556 
        1.08607         1.10998        0.968971 
        1.09222         1.09328        0.956596 
        1.09836         1.08517        0.944453 
        1.10449         1.07157        0.932537 
        1.11063         1.05575        0.920816 
        1.11677         1.04204        0.909301 
         1.1229         1.03197        0.898005 
        1.12903         1.01865        0.886893 
        1.13518         1.01011        0.875961 
        1.14131        0.996319         0.86522 
        1.14745         0.97971        0.854668 
        1.15359        0.973945         0.84429 
        1.15973        0.959221        0.834083 
        1.16584        0.954571        0.824091 
        1.17197        0.942022         0.81425 
        1.17811        0.932509        0.804541 
        1.18424        0.925256         0.79502 
        1.19038        0.911985        0.785627 
        1.19652        0.899827        0.776391 
        1.20267        0.894297        0.767304 
        1.20881        0.881721        0.758366 
        1.21495        0.875303        0.749586 
        1.22108        0.865436        0.740947 
         1.2272        0.857915        0.732466 
        1.23334        0.847259          0.7241 
        1.23949        0.838168        0.715845 
        1.24562        0.830117        0.707744 
        1.25174        0.821997        0.699781 
        1.25789        0.814218        0.691917 
        1.26402         0.80303         0.68419 
        1.27014         0.79552          0.6766 
        1.27628        0.790226        0.669104 
        1.28244        0.778388        0.661708 
        1.28858        0.771928        0.654435 
        1.29471        0.766251        0.647288 
        1.30084        0.756646        0.640255 
        1.30697        0.749308        0.633317 
        1.31312        0.738839        0.626473 
        1.31925        0.733888        0.619752 
        1.32537        0.727904        0.613137 
        1.33151        0.721743        0.606596 
        1.33765        0.714033        0.600155 
        1.34378        0.704802        0.593821 
        1.34992        0.700504        0.587575 
        1.35606        0.692507        0.581405 
         1.3622        0.686428        0.575336 
        1.36833        0.679676        0.569369 
        1.37445        0.671173         0.56349 
        1.38059        0.665456        0.557676 
        1.38675        0.663873        0.551931 
        1.39288        0.654901         0.54629 
        1.39901        0.649146        0.540731 
        1.40515        0.643693        0.535238 
         1.4113        0.636273        0.529823 
        1.41742        0.630491        0.524504 
        1.42355        0.627683        0.519249 
         1.4297        0.619291        0.514051 
        1.43585        0.614244        0.508926 
        1.44198        0.611309        0.503892 
        1.44809        0.603242        0.498935 
        1.45423        0.598277        0.494027 
        1.46036        0.592977        0.489195 
        1.46649        0.588561        0.484426 
        1.47263        0.582465        0.479718 
        1.47877        0.576403        0.475074 
        1.48491        0.572195        0.470485 
        1.49104        0.565982        0.465967 
        1.49718        0.562229        0.461506 
        1.50333        0.557908        0.457096 
        1.50947         0.55303        0.452753 
         1.5156        0.547462        0.448473 
        1.52172        0.543279        0.444249 
        1.52787        0.538203        0.440072 
          1.534        0.534189        0.435954 
        1.54013        0.528401        0.431893 
        1.54627        0.525025        0.427877 
        1.55241        0.519861        0.423911 
        1.55855        0.514733        0.420002 
        1.56467        0.513316        0.416153 
         1.5708        0.507409        0.412342 
        1.57695        0.503818        0.408574 
        1.58308        0.499293        0.404861 
        1.58922        0.495534        0.401192 
        1.59535        0.491042         0.39757 
         1.6015        0.487144        0.393988 
        1.60764        0.483652        0.390452 
        1.61376        0.478202         0.38697 
        1.61989        0.475752        0.383527 
        1.62604        0.471847        0.380119 
        1.63218        0.468708        0.376754 
        1.63831        0.464651        0.373439 
        1.64444        0.460659        0.370162 
        1.65059        0.457336        0.366917 
        1.65673        0.453352        0.363714 
        1.66285         0.45035        0.360559 
        1.66898        0.447214        0.357441 
        1.67512        0.442662        0.354354 
        1.68127        0.438997          0.3513 
         1.6874        0.437053         0.34829 
        1.69353        0.432754        0.345317 
        1.69967        0.430169        0.342372 
        1.70581        0.426017        0.339463 
        1.71193        0.423188        0.336598 
        1.71806        0.419473        0.333761 
        1.72421        0.417079        0.330951 
        1.73035        0.413237        0.328177 
        1.73649        0.411022        0.325436 
        1.74262        0.407687        0.322728 
        1.74876        0.404316        0.320049 
        1.75489        0.401752        0.317407 
        1.76101        0.398061        0.314795 
        1.76715        0.395325        0.312209 
        1.77329        0.392247         0.30965 
        1.77943        0.389423        0.307118 
        1.78557        0.387237        0.304618 
        1.79171          0.3843        0.302146 
        1.79785        0.381308        0.299701 
        1.80399         0.37842        0.297284 
        1.81012        0.376203        0.294897 
        1.81625        0.373139        0.292537 
        1.82239        0.370983          0.2902 
        1.82853        0.367176        0.287889 
        1.83466        0.365317        0.285606 
        1.84078        0.362306        0.283351 
        1.84692        0.360114        0.281116 
        1.85306        0.357927        0.278902 
         1.8592        0.355148        0.276716 
        1.86533        0.353109        0.274555 
        1.87147        0.350433        0.272414 
        1.87761        0.348461        0.270296 
        1.88375        0.344986        0.268202 
        1.88988        0.343138        0.266134 
        1.89601        0.340537        0.264086 
        1.90215        0.338536        0.262058 
        1.90829        0.335841        0.260052 
        1.91442        0.334138        0.258067 
        1.92056        0.331395        0.256105 
         1.9267        0.328917        0.254162 
        1.93284        0.326876        0.252237 
        1.93897        0.324851        0.250337 
        1.94509         0.32306         0.24846 
        1.95123        0.320281        0.246597 
        1.95737        0.318842        0.244753 
        1.96349        0.316372        0.242932 
        1.96964        0.314012        0.241125 
        1.97578        0.311913        0.239335 
        1.98192        0.310544        0.237567 
        1.98805        0.308578        0.235817 
        1.99419        0.305964        0.234084 
        2.00033        0.304094        0.232369 
        2.00647        0.302761        0.230671 
         2.0126        0.300178        0.228993 
        2.01874        0.298655        0.227329 
        2.02488        0.296742         0.22568 
        2.03101        0.294583        0.224051 
        2.03714        0.292686        0.222439 
        2.04328        0.291085        0.220842 
        2.04941         0.28908        0.219261 
        2.05554        0.287498        0.217698 
        2.06167        0.285985        0.216147 
        2.06781        0.283179        0.214612 
        2.07396        0.281552        0.213089 
        2.08009        0.279871        0.211584 
        2.08622         0.27854        0.210095 
        2.09237        0.277225        0.208618 
        2.09851        0.275455        0.207155 
        2.10464        0.273588        0.205708 
        2.11077        0.271583        0.204277 
        2.11691        0.270037        0.202856 
        2.12305        0.268408        0.201449 
        2.12918        0.266891        0.200058 
        2.13531        0.265126        0.198681 
        2.14145        0.263447        0.197314 
         2.1476        0.262062        0.195957 
        2.15372        0.260917        0.194621 
        2.15985        0.258877        0.193296 
        2.16599        0.257063        0.191979 
        2.17213        0.256051        0.190676 
        2.17827        0.254336        0.189385 
         2.1844        0.253112        0.188108 
        2.19054        0.251479        0.186842 
        2.19666        0.249402        0.185589 
         2.2028        0.248529        0.184347 
        2.20893        0.247375        0.183116 
        2.21508        0.245225        0.181895 
        2.22122        0.243946        0.180684 
        2.22736        0.242854        0.179487 
        2.23349        0.241301        0.178301 
        2.23962        0.240225        0.177126 
        2.24577        0.238325         0.17596 
         2.2519        0.237511        0.174806 
        2.25802        0.235756        0.173664 
        2.26417        0.234539         0.17253 
        2.27031        0.233049        0.171404 
        2.27644        0.231925        0.170292 
        2.28257        0.230521         0.16919 
        2.28872        0.229352        0.168096 
        2.29486        0.228039        0.167012 
        2.30099        0.226868        0.165939 
        2.30712        0.225644        0.164875 
        2.31326        0.223836        0.163819 
         2.3194        0.223778        0.162773 
        2.32553        0.222378        0.161738 
        2.33166         0.22108        0.160712 
         2.3378        0.219766        0.159694 
        2.34394         0.21832        0.158685 
        2.35007        0.217265        0.157685 
        2.35619        0.215826        0.156696 
        2.36233        0.214491        0.155712 
        2.36848         0.21371        0.154735 
        2.37462        0.212234        0.153769 
        2.38075        0.211625        0.152812 
        2.38689        0.210255        0.151862 
        2.39303        0.209635         0.15092 
        2.39916        0.207866        0.149988 
        2.40529        0.206999        0.149063 
        2.41143        0.205922        0.148146 
        2.41757        0.204633        0.147236 
         2.4237         0.20376        0.146335 
        2.42983        0.202517        0.145442 
        2.43598        0.202016        0.144554 
        2.44211        0.200685        0.143675 
        2.44823        0.200023        0.142806 
        2.45437        0.198325        0.141941 
        2.46052         0.19767        0.141082 
        2.46665        0.196533        0.140233 
        2.47279        0.195382         0.13939 
        2.47892        0.194273        0.138554 
        2.48507        0.193296        0.137724 
         2.4912        0.192573        0.136903 
