# k  (h/Mpc)    Pcb(k)  (Mpc/h)^3    Pcb_linear(k)  (Mpc/h)^3
     0.00783031         10799.6         10944.5 
       0.013688         14023.4         13927.6 
       0.019231         14474.7         14464.2 
      0.0249154         13461.7           13722 
      0.0312784           12078         12213.6 
      0.0375637         10611.3         10639.8 
      0.0433917         9221.82         9398.69 
      0.0492413         8365.71         8447.59 
      0.0555754         7472.51         7709.75 
      0.0619321         7142.79         7162.86 
       0.067871         6519.66         6716.86 
      0.0738098         6066.69         6256.69 
      0.0800417         5487.58         5725.76 
      0.0862327         5009.49         5165.01 
      0.0921407         4570.98         4640.72 
      0.0982031         4081.42         4159.08 
       0.104506         3794.37         3751.03 
       0.110769         3488.97         3446.62 
       0.116806         3259.66         3234.12 
       0.122832         3109.25         3074.22 
       0.129052         2903.45          2932.1 
       0.135211         2767.83         2787.76 
       0.141259          2652.9         2628.69 
       0.147318         2503.01         2452.05 
       0.153489         2298.34         2264.94 
       0.159709         2165.52         2084.62 
       0.165845          2067.8         1928.19 
       0.171974         1938.93         1800.36 
       0.178125          1840.9         1700.57 
       0.184229         1765.42         1623.97 
        0.19034         1662.69         1560.75 
       0.196428         1636.33         1502.01 
       0.202534         1582.07         1440.44 
       0.208729         1510.15         1372.04 
       0.214876         1440.37         1299.09 
       0.220989         1393.61         1225.16 
       0.227147         1324.98         1153.95 
        0.23329         1270.84          1090.1 
       0.239377          1246.5         1035.93 
       0.245482         1166.39         990.611 
       0.251667         1158.66         952.096 
       0.257832         1115.75         918.352 
       0.263955         1080.59         886.607 
       0.270079         1044.27         854.556 
        0.27624         1033.73         821.064 
       0.282372         989.838         786.658 
        0.28843         976.028         752.656 
       0.294538         927.816         719.638 
       0.300721         923.738         688.715 
        0.30691         883.752         660.902 
       0.313033         867.142         636.541 
       0.319153         847.246         614.817 
       0.325316         820.736         594.807 
        0.33145         800.636         575.889 
       0.337538         789.995         557.473 
       0.343633         768.041         539.032 
       0.349808         742.681         520.376 
       0.355968         738.154         501.995 
       0.362074         727.344         484.397 
       0.368217         706.651         467.634 
       0.374374         678.312         451.986 
       0.380519         676.297         437.572 
       0.386598         659.665         424.346 
       0.392688          657.36         411.938 
        0.39888         637.978         399.911 
       0.405048         627.453         388.306 
       0.411186         617.511         377.016 
       0.417313         605.598         365.944 
       0.423458         595.741         355.095 
       0.429607         585.342         344.586 
       0.435692         572.505         334.608 
       0.441815         568.628         325.047 
       0.447964         556.815         315.967 
       0.454126         545.255         307.342 
       0.460267         536.088         299.161 
       0.466387         530.245         291.354 
        0.47254         521.099         283.777 
       0.478662         519.532         276.451 
       0.484765         503.746         269.346 
       0.490885         499.546         262.421 
       0.497035         490.126          255.67 
       0.503198          484.11         249.134 
       0.509342         480.106         242.867 
       0.515458         475.894         236.882 
       0.521598          465.49         231.113 
       0.527764         456.605         225.542 
       0.533884         454.937         220.214 
           0.54         448.812          215.07 
       0.546137         447.146         210.066 
       0.552299         438.518         205.184 
       0.558452         436.145         200.449 
       0.564573         429.432         195.878 
       0.570708         423.236         191.439 
       0.576825         414.196         187.154 
       0.582926         413.057         183.018 
       0.589034         409.319         179.012 
       0.595184         405.583          175.11 
       0.601379         400.681         171.307 
       0.607522         394.525         167.653 
       0.613639         393.425         164.121 
       0.619772         383.705         160.678 
       0.625918         382.787         157.323 
       0.632068         377.205          154.06 
       0.638161         375.808         150.919 
         0.6443         368.998         147.844 
       0.650464         366.428         144.847 
       0.656582         364.926         141.956 
       0.662703         362.517         139.146 
       0.668861         356.009         136.398 
       0.675024         352.841         133.724 
       0.681124         350.903          131.15 
       0.687237         347.249          128.64 
       0.693381         342.443         126.185 
       0.699536         339.017          123.79 
       0.705665         336.944         121.467 
       0.711789         334.075         119.206 
       0.717957         331.617         116.987 
        0.72409         328.495         114.838 
       0.730186         325.137         112.757 
       0.736317         321.906         110.716 
       0.742472         320.621         108.721 
       0.748622         317.423         106.777 
        0.75476         314.496         104.886 
       0.760888         310.665         103.044 
       0.767043         310.995          101.24 
       0.773185         306.739         99.4833 
       0.779291         302.057         97.7786 
       0.785407          301.27         96.1117 
       0.791564         297.945         94.4736 
       0.797719         295.437         92.8749 
       0.803834         293.421         91.3238 
       0.809972         291.751          89.803 
       0.816124         291.844         88.3141 
       0.822261         287.062         86.8634 
       0.828378         285.305         85.4501 
       0.834502         284.074         84.0675 
       0.840667         280.205          82.707 
       0.846816         278.902         81.3808 
       0.852925         277.071         80.0924 
       0.859047         275.233         78.8295 
       0.865192         272.543           77.59 
       0.871341         270.279         76.3766 
       0.877463         268.541         75.1949 
       0.883569         267.213         74.0415 
       0.889708         264.702         72.9066 
       0.895864         261.534         71.7929 
       0.902008          260.85          70.705 
       0.908149         259.584         69.6405 
       0.914301         256.353         68.5964 
       0.920448         254.486         67.5749 
       0.926574         252.773          66.578 
       0.932687         252.774         65.6035 
       0.938823         249.647         64.6453 
       0.944975         248.215         63.7042 
       0.951105         246.795         62.7854 
       0.957225         244.652         61.8865 
       0.963368         241.765         61.0023 
       0.969511         240.655         60.1356 
       0.975621         238.624         59.2906 
       0.981748         238.838         58.4598 
       0.987916         236.203         57.6399 
        0.99406         233.617          56.839 
        1.00019         233.721         56.0551 
        1.00632         231.668         55.2868 
        1.01246         229.854          54.532 
        1.01859          229.54         53.7926 
        1.02471         226.836          53.068 
        1.03085         224.535         52.3544 
        1.03698         223.782         51.6555 
        1.04314         221.921         50.9666 
        1.04929         220.328          50.292 
        1.05541         220.223         49.6325 
        1.06154         217.766         48.9832 
        1.06769         217.418         48.3447 
        1.07382          215.73         47.7199 
        1.07993         213.884         47.1075 
        1.08607         213.122         46.5035 
        1.09222         211.777         45.9096 
        1.09836         209.921         45.3269 
        1.10449         207.927          44.755 
        1.11063         206.251         44.1925 
        1.11677         206.057         43.6398 
         1.1229         204.303         43.0977 
        1.12903         203.195         42.5644 
        1.13518          202.16         42.0397 
        1.14131         200.381         41.5243 
        1.14745          200.05         41.0178 
        1.15359         198.301         40.5198 
        1.15973         197.582         40.0299 
        1.16584          195.44         39.5504 
        1.17197         195.004         39.0781 
        1.17811         193.542         38.6121 
        1.18424         192.429         38.1552 
        1.19038         191.858         37.7044 
        1.19652          190.39         37.2611 
        1.20267          189.62          36.825 
        1.20881         187.842          36.396 
        1.21495         186.983         35.9746 
        1.22108         186.103           35.56 
         1.2272         184.431          35.153 
        1.23334          183.63         34.7515 
        1.23949         182.287         34.3553 
        1.24562         181.461         33.9665 
        1.25174         179.392         33.5844 
        1.25789         178.562          33.207 
        1.26402          177.74         32.8361 
        1.27014         176.494         32.4719 
        1.27628         175.697         32.1121 
        1.28244         175.271         31.7572 
        1.28858         173.768         31.4081 
        1.29471         172.029         31.0651 
        1.30084         171.502         30.7276 
        1.30697         170.374         30.3946 
        1.31312         169.546         30.0661 
        1.31925         168.596         29.7436 
        1.32537         167.647         29.4261 
        1.33151         166.054         29.1122 
        1.33765         165.562         28.8031 
        1.34378         164.543         28.4991 
        1.34992          163.83         28.1993 
        1.35606         163.204         27.9032 
         1.3622         161.891         27.6119 
        1.36833         160.617         27.3255 
        1.37445         159.646         27.0434 
        1.38059         158.989         26.7644 
        1.38675         158.002         26.4886 
        1.39288         157.305         26.2179 
        1.39901         156.998         25.9511 
        1.40515         155.531         25.6875 
         1.4113         154.145         25.4276 
        1.41742         153.669         25.1724 
        1.42355         152.548         24.9202 
         1.4297         151.774         24.6707 
        1.43585         150.489         24.4247 
        1.44198         150.211         24.1831 
        1.44809         149.257         23.9452 
        1.45423         148.151         23.7097 
        1.46036         147.516         23.4778 
        1.46649         146.569         23.2489 
        1.47263         145.869         23.0229 
        1.47877         145.128         22.8001 
        1.48491         143.692         22.5798 
        1.49104         143.455          22.363 
        1.49718         141.917         22.1489 
        1.50333         141.527         21.9372 
        1.50947         140.958         21.7288 
         1.5156          139.93         21.5234 
        1.52172         139.098         21.3207 
        1.52787         138.299         21.1202 
          1.534         137.628         20.9226 
        1.54013         136.559         20.7277 
        1.54627         136.096         20.5349 
        1.55241         135.048         20.3446 
        1.55855         134.383          20.157 
        1.56467         133.851         19.9723 
         1.5708         132.872         19.7894 
        1.57695         132.275         19.6085 
        1.58308         131.536         19.4303 
        1.58922         131.002         19.2543 
        1.59535         129.944         19.0804 
         1.6015         129.476         18.9085 
        1.60764          128.68         18.7388 
        1.61376         128.158         18.5717 
        1.61989         127.152         18.4065 
        1.62604         126.634         18.2429 
        1.63218         125.929         18.0814 
        1.63831         125.032         17.9223 
        1.64444         124.632          17.765 
        1.65059         123.961         17.6093 
        1.65673         122.752         17.4556 
        1.66285         122.659         17.3042 
        1.66898         121.817         17.1545 
        1.67512         121.273         17.0064 
        1.68127         120.332         16.8598 
         1.6874         119.379         16.7154 
        1.69353         119.015         16.5727 
        1.69967         118.517         16.4313 
        1.70581         117.757         16.2917 
        1.71193         117.273         16.1542 
        1.71806         116.477         16.0181 
        1.72421         115.816         15.8832 
        1.73035         115.363         15.7501 
        1.73649          114.56         15.6185 
        1.74262         113.957         15.4886 
        1.74876         113.548           15.36 
        1.75489         112.458         15.2332 
        1.76101         112.085         15.1079 
        1.76715         111.231         14.9838 
        1.77329         111.018         14.8609 
        1.77943         110.076         14.7394 
        1.78557         109.606         14.6194 
        1.79171         108.925         14.5008 
        1.79785         108.399         14.3835 
        1.80399         107.786         14.2675 
        1.81012         107.276         14.1529 
        1.81625         106.616         14.0396 
        1.82239         106.332         13.9275 
        1.82853         105.771         13.8166 
        1.83466         104.894          13.707 
        1.84078         104.718         13.5987 
        1.84692         103.791         13.4915 
        1.85306         103.209         13.3853 
         1.8592         102.697         13.2803 
        1.86533         102.128         13.1766 
        1.87147         101.384         13.0739 
        1.87761         101.098         12.9722 
        1.88375         100.354         12.8717 
        1.88988         99.8139         12.7725 
        1.89601         99.3123         12.6742 
        1.90215         98.9354         12.5768 
        1.90829          98.245         12.4806 
        1.91442         97.9173         12.3853 
        1.92056         97.1833         12.2912 
         1.9267         96.8324         12.1979 
        1.93284         96.2485         12.1055 
        1.93897         95.6593         12.0143 
        1.94509         95.3584         11.9242 
        1.95123          94.761         11.8349 
        1.95737         94.3348         11.7463 
        1.96349         93.6812         11.6589 
        1.96964          93.001         11.5722 
        1.97578         92.7952         11.4863 
        1.98192         92.2871         11.4015 
        1.98805         91.4726         11.3175 
        1.99419         91.1846         11.2343 
        2.00033         90.7599          11.152 
        2.00647         90.2412         11.0705 
         2.0126         89.7187           10.99 
        2.01874         89.1696         10.9101 
        2.02488         88.6813          10.831 
        2.03101         88.3088         10.7528 
        2.03714         87.6999         10.6754 
        2.04328         87.3301         10.5988 
        2.04941         86.8269         10.5229 
        2.05554         86.4877         10.4479 
        2.06167         85.9376         10.3735 
        2.06781         85.4331         10.2998 
        2.07396         84.9788         10.2267 
        2.08009         84.5554         10.1545 
        2.08622         84.2112          10.083 
        2.09237         83.6253         10.0121 
        2.09851         83.3825          9.9419 
        2.10464         82.7954         9.87246 
        2.11077         82.4119         9.80377 
        2.11691          82.065         9.73559 
        2.12305          81.491         9.66806 
        2.12918         81.0743         9.60133 
        2.13531         80.7721         9.53523 
        2.14145         80.0374          9.4696 
         2.1476         79.7785         9.40451 
        2.15372         79.3654         9.34037 
        2.15985         78.9551         9.27676 
        2.16599         78.6257         9.21357 
        2.17213         78.1151         9.15103 
        2.17827         77.7402          9.0891 
         2.1844          77.274         9.02779 
        2.19054         77.0814         8.96703 
        2.19666         76.5181         8.90692 
         2.2028         76.3565         8.84731 
        2.20893         75.7197         8.78822 
        2.21508          75.279         8.72961 
        2.22122          75.066         8.67151 
        2.22736         74.5895         8.61407 
        2.23349         74.2559         8.55716 
        2.23962         73.7438         8.50074 
        2.24577         73.3697         8.44478 
         2.2519         73.1685          8.3894 
        2.25802         72.6847         8.33461 
        2.26417         72.2187         8.28016 
        2.27031         71.9354         8.22615 
        2.27644         71.5902         8.17278 
        2.28257         71.1036         8.11989 
        2.28872         70.7922         8.06737 
        2.29486         70.4079         8.01533 
        2.30099         69.9898         7.96385 
        2.30712         69.7957         7.91281 
        2.31326         69.3718         7.86213 
         2.3194         69.0706         7.81192 
        2.32553         68.6003         7.76224 
        2.33166         68.2037         7.71301 
         2.3378         67.8714         7.66415 
        2.34394         67.5864          7.6157 
        2.35007         67.1046         7.56773 
        2.35619         66.7503         7.52024 
        2.36233         66.5123         7.47305 
        2.36848         66.2041         7.42616 
        2.37462         65.8368         7.37978 
        2.38075         65.5919         7.33384 
        2.38689         65.1551         7.28826 
        2.39303         64.9042         7.24307 
        2.39916         64.5614         7.19832 
        2.40529         64.2338         7.15394 
        2.41143         63.8602         7.10992 
        2.41757         63.5857         7.06624 
         2.4237         63.3248         7.02302 
        2.42983         62.8601         6.98016 
        2.43598         62.5929         6.93754 
        2.44211         62.2655         6.89536 
        2.44823         61.9779         6.85362 
        2.45437         61.5852         6.81211 
        2.46052          61.258         6.77092 
        2.46665         60.9912         6.73014 
        2.47279           60.66         6.68971 
        2.47892         60.3957         6.64958 
        2.48507         60.0356         6.60975 
         2.4912         59.8727         6.57032 
