# k  (h/Mpc)    P(k)  (Mpc/h)^3    P_linear(k)  (Mpc/h)^3
     0.00783031         5725.01         5747.29 
       0.013688         7402.19         7305.22 
       0.019231         7665.52         7585.95 
      0.0249154         7171.71         7197.91 
      0.0312784         6428.55         6407.83 
      0.0375637         5637.18         5582.78 
      0.0433917          4924.1         4931.91 
      0.0492413          4456.3          4433.1 
      0.0555754         4007.81         4046.11 
      0.0619321         3803.88         3759.25 
       0.067871         3498.64         3525.27 
      0.0738098         3255.37         3283.83 
      0.0800417         2955.16         3005.24 
      0.0862327         2689.17         2710.96 
      0.0921407         2439.68          2435.8 
      0.0982031         2177.32         2183.02 
       0.104506         2007.64         1968.86 
       0.110769         1844.58          1809.1 
       0.116806         1718.57         1697.57 
       0.122832         1642.78         1613.65 
       0.129052         1542.51         1539.06 
       0.135211         1468.45          1463.3 
       0.141259         1401.35         1379.81 
       0.147318         1318.23         1287.09 
       0.153489         1211.01         1188.88 
       0.159709         1132.13         1094.23 
       0.165845         1071.15         1012.12 
       0.171974         997.762         945.024 
       0.178125         947.341         892.644 
       0.184229         909.522         852.442 
        0.19034         854.618         819.258 
       0.196428         839.444         788.424 
       0.202534         814.062         756.105 
       0.208729         773.642         720.203 
       0.214876         731.364         681.912 
       0.220989         706.235         643.104 
       0.227147         664.337         605.726 
        0.23329         634.862         572.209 
       0.239377         617.209         543.778 
       0.245482         577.271         519.988 
       0.251667         570.168          499.77 
       0.257832         551.105         482.058 
       0.263955         532.806         465.394 
       0.270079         514.675          448.57 
        0.27624         506.871          430.99 
       0.282372         485.905          412.93 
        0.28843         470.389         395.082 
       0.294538         449.133         377.749 
       0.300721         444.148         361.519 
        0.30691         423.471         346.918 
       0.313033         413.858         334.132 
       0.319153         398.716         322.729 
       0.325316         388.602         312.225 
        0.33145         376.816         302.294 
       0.337538         371.848         292.629 
       0.343633         359.754         282.948 
       0.349808          348.65         273.155 
       0.355968         343.431         263.506 
       0.362074         334.815         254.269 
       0.368217         325.914          245.47 
       0.374374         314.944         237.256 
       0.380519         309.872          229.69 
       0.386598         302.306         222.747 
       0.392688         298.863         216.234 
        0.39888         290.943         209.922 
       0.405048         284.788         203.829 
       0.411186          278.68         197.903 
       0.417313         273.255         192.091 
       0.423458         268.001         186.396 
       0.429607         261.829          180.88 
       0.435692         254.452         175.642 
       0.441815          252.75         170.624 
       0.447964         248.306         165.857 
       0.454126         238.292          161.33 
       0.460267         235.722         157.036 
       0.466387         232.739         152.938 
        0.47254         228.038          148.96 
       0.478662         226.227         145.115 
       0.484765         219.963         141.385 
       0.490885          216.78          137.75 
       0.497035         213.872         134.206 
       0.503198         208.424         130.776 
       0.509342         205.771         127.486 
       0.515458         203.023         124.344 
       0.521598         200.268         121.316 
       0.527764          197.16         118.391 
       0.533884         194.182         115.595 
           0.54         191.303         112.894 
       0.546137         190.054         110.268 
       0.552299         186.748         107.705 
       0.558452         183.557          105.22 
       0.564573         180.406         102.821 
       0.570708         177.814          100.49 
       0.576825         175.536         98.2409 
       0.582926         172.855         96.0701 
       0.589034         170.253          93.967 
       0.595184         168.586         91.9188 
       0.601379         166.939         89.9228 
       0.607522         163.116         88.0046 
       0.613639         162.744         86.1504 
       0.619772         159.118         84.3432 
       0.625918         157.663         82.5822 
       0.632068         155.918         80.8695 
       0.638161          154.59         79.2205 
         0.6443         152.419         77.6065 
       0.650464         150.768          76.033 
       0.656582         149.116         74.5157 
       0.662703         146.711         73.0406 
       0.668861         145.053         71.5982 
       0.675024         143.458         70.1945 
       0.681124         142.321         68.8435 
       0.687237         139.822         67.5259 
       0.693381         138.188          66.237 
       0.699536         136.967         64.9796 
       0.705665         137.423         63.7604 
       0.711789         133.871         62.5735 
       0.717957         133.384         61.4089 
        0.72409         131.535         60.2808 
       0.730186         129.377         59.1882 
       0.736317         129.066         58.1174 
       0.742472         127.914         57.0697 
       0.748622         126.873         56.0494 
        0.75476         125.619         55.0568 
       0.760888         123.903         54.0901 
       0.767043         122.908          53.143 
       0.773185         121.624         52.2209 
       0.779291         120.405         51.3261 
       0.785407         119.586         50.4511 
       0.791564         118.258         49.5912 
       0.797719         116.712         48.7521 
       0.803834         116.243         47.9379 
       0.809972         114.488         47.1396 
       0.816124         114.112          46.358 
       0.822261         113.045         45.5965 
       0.828378         112.004         44.8546 
       0.834502         111.235         44.1288 
       0.840667         110.069         43.4147 
       0.846816         108.985         42.7185 
       0.852925         107.975         42.0422 
       0.859047         106.735         41.3793 
       0.865192         106.407         40.7286 
       0.871341         105.446         40.0917 
       0.877463          104.15         39.4714 
       0.883569         103.457         38.8659 
       0.889708         102.885         38.2702 
       0.895864         101.982         37.6856 
       0.902008         101.194         37.1145 
       0.908149         100.587         36.5557 
       0.914301          99.499         36.0076 
       0.920448          98.889         35.4714 
       0.926574         98.1714         34.9482 
       0.932687         97.6722         34.4366 
       0.938823         96.2367         33.9336 
       0.944975         95.8187         33.4396 
       0.951105         95.0284         32.9573 
       0.957225         93.8688         32.4855 
       0.963368         93.6025         32.0214 
       0.969511          93.105         31.5664 
       0.975621          92.607         31.1229 
       0.981748         91.7016         30.6868 
       0.987916         91.0154         30.2564 
        0.99406         90.5204          29.836 
        1.00019         89.4857         29.4245 
        1.00632         89.1807         29.0212 
        1.01246         88.3241         28.6249 
        1.01859         87.2579         28.2368 
        1.02471         87.6555         27.8565 
        1.03085         86.6413         27.4819 
        1.03698         85.9421         27.1151 
        1.04314         85.1138         26.7534 
        1.04929         84.7638         26.3993 
        1.05541         84.0493         26.0531 
        1.06154         83.7796         25.7123 
        1.06769         83.1541         25.3771 
        1.07382         82.8162         25.0491 
        1.07993         82.3685         24.7277 
        1.08607          81.595         24.4107 
        1.09222          81.191         24.0989 
        1.09836         80.6165          23.793 
        1.10449         80.1038         23.4928 
        1.11063         79.4923         23.1975 
        1.11677         79.0187         22.9074 
         1.1229         78.5349         22.6229 
        1.12903          77.584         22.3429 
        1.13518         77.8017         22.0675 
        1.14131         77.2911         21.7969 
        1.14745         76.3309         21.5311 
        1.15359         76.1526         21.2697 
        1.15973         75.5907         21.0125 
        1.16584         75.0855         20.7608 
        1.17197         74.6668         20.5129 
        1.17811         74.2949         20.2683 
        1.18424         73.5738         20.0284 
        1.19038         73.3269         19.7918 
        1.19652         73.0091         19.5591 
        1.20267         72.4333         19.3302 
        1.20881         72.0257          19.105 
        1.21495         71.4697         18.8838 
        1.22108         71.0676         18.6662 
         1.2272         70.5159         18.4525 
        1.23334         70.2418         18.2418 
        1.23949          69.997         18.0338 
        1.24562         69.6208         17.8297 
        1.25174         69.2188         17.6291 
        1.25789         68.8317          17.431 
        1.26402         68.3103         17.2364 
        1.27014         67.7405         17.0452 
        1.27628         67.5925         16.8563 
        1.28244         66.9854           16.67 
        1.28858         66.7299         16.4867 
        1.29471         66.5179         16.3067 
        1.30084         66.0803         16.1295 
        1.30697         65.5632         15.9547 
        1.31312         65.1809         15.7823 
        1.31925         65.0742          15.613 
        1.32537         64.6618         15.4464 
        1.33151         64.1496         15.2816 
        1.33765         63.9623         15.1193 
        1.34378         63.5729         14.9597 
        1.34992         63.0217         14.8024 
        1.35606         62.7337          14.647 
         1.3622         62.3166         14.4941 
        1.36833         62.1654         14.3437 
        1.37445         61.9096         14.1956 
        1.38059         61.4638         14.0491 
        1.38675         61.1161         13.9044 
        1.39288         60.7888         13.7623 
        1.39901         60.5266         13.6223 
        1.40515         60.2208         13.4839 
         1.4113         59.9737         13.3475 
        1.41742         59.5367         13.2135 
        1.42355         59.2681         13.0811 
         1.4297         58.9031         12.9501 
        1.43585         58.6808          12.821 
        1.44198         58.4152         12.6942 
        1.44809         58.0571         12.5693 
        1.45423         57.8719         12.4457 
        1.46036         57.5161          12.324 
        1.46649         57.1785         12.2038 
        1.47263         56.9005         12.0852 
        1.47877         56.7379         11.9682 
        1.48491         56.4473         11.8526 
        1.49104         56.0469         11.7388 
        1.49718         55.6335         11.6264 
        1.50333         55.4976         11.5153 
        1.50947         55.1719         11.4059 
         1.5156         54.8941         11.2981 
        1.52172         54.6718         11.1917 
        1.52787         54.5574         11.0864 
          1.534         54.1799         10.9827 
        1.54013         53.8581         10.8804 
        1.54627         53.7159         10.7792 
        1.55241         53.3746         10.6793 
        1.55855         53.0214         10.5808 
        1.56467         52.6481         10.4839 
         1.5708         52.6274         10.3879 
        1.57695         52.3019         10.2929 
        1.58308         52.1453         10.1994 
        1.58922         51.9894          10.107 
        1.59535         51.6655         10.0157 
         1.6015         51.2954         9.92547 
        1.60764         51.1781         9.83639 
        1.61376         50.9073         9.74865 
        1.61989         50.4615         9.66193 
        1.62604         50.4099         9.57607 
        1.63218         50.1795         9.49131 
        1.63831         49.9024         9.40778 
        1.64444         49.7245         9.32522 
        1.65059         49.2812         9.24347 
        1.65673         49.1192          9.1628 
        1.66285         48.9532         9.08332 
        1.66898         48.6321         9.00476 
        1.67512         48.4245         8.92699 
        1.68127         48.1272         8.85006 
         1.6874         48.0595         8.77423 
        1.69353         47.7227         8.69933 
        1.69967         47.5521         8.62513 
        1.70581         47.4412         8.55184 
        1.71193         47.0964         8.47968 
        1.71806         46.8099          8.4082 
        1.72421         46.6136         8.33742 
        1.73035          46.383         8.26753 
        1.73649         46.1449         8.19847 
        1.74262         45.9793         8.13025 
        1.74876         45.9403         8.06277 
        1.75489         45.5431          7.9962 
        1.76101         45.3751         7.93041 
        1.76715         45.1451         7.86527 
        1.77329         44.9204         7.80078 
        1.77943         44.7975           7.737 
        1.78557         44.5885         7.67403 
        1.79171         44.3005         7.61175 
        1.79785         44.1018         7.55016 
        1.80399         43.9419         7.48926 
        1.81012          43.789         7.42912 
        1.81625         43.4473         7.36968 
        1.82239         43.3325         7.31079 
        1.82853         42.9992         7.25259 
        1.83466         42.9051         7.19507 
        1.84078         42.5808         7.13824 
        1.84692         42.4853         7.08194 
        1.85306         42.2711         7.02618 
         1.8592         42.0976         6.97111 
        1.86533           41.84         6.91666 
        1.87147         41.7214         6.86274 
        1.87761         41.6148         6.80937 
        1.88375         41.3598         6.75663 
        1.88988         41.2938         6.70451 
        1.89601         40.9931         6.65291 
        1.90215          40.859         6.60183 
        1.90829         40.7466          6.5513 
        1.91442          40.452          6.5013 
        1.92056         40.3535         6.45187 
         1.9267         40.0367         6.40291 
        1.93284         39.8333         6.35443 
        1.93897         39.7737         6.30655 
        1.94509         39.5449         6.25926 
        1.95123         39.3873         6.21235 
        1.95737         39.1893         6.16588 
        1.96349         39.0029         6.12001 
        1.96964         38.7795         6.07448 
        1.97578         38.7149         6.02939 
        1.98192         38.4794         5.98485 
        1.98805         38.3558         5.94076 
        1.99419         38.0797         5.89712 
        2.00033         37.9125         5.85389 
        2.00647         37.7923         5.81112 
         2.0126         37.6175         5.76884 
        2.01874         37.5019         5.72692 
        2.02488          37.398         5.68539 
        2.03101         37.1273         5.64435 
        2.03714         36.9435         5.60375 
        2.04328         36.7753          5.5635 
        2.04941         36.6382         5.52369 
        2.05554         36.4505          5.4843 
        2.06167         36.3195         5.44524 
        2.06781         36.1566         5.40656 
        2.07396         35.9558          5.3682 
        2.08009         35.8664         5.33028 
        2.08622         35.6881         5.29277 
        2.09237         35.5427         5.25556 
        2.09851         35.3395         5.21869 
        2.10464         35.2736         5.18224 
        2.11077         35.0075         5.14619 
        2.11691          34.949          5.1104 
        2.12305         34.7415         5.07495 
        2.12918         34.6978         5.03992 
        2.13531         34.5087         5.00522 
        2.14145         34.3897         4.97077 
         2.1476         34.1428         4.93661 
        2.15372         34.0102         4.90294 
        2.15985          33.905         4.86955 
        2.16599         33.7916         4.83637 
        2.17213         33.7006         4.80355 
        2.17827         33.3646         4.77104 
         2.1844         33.2851         4.73886 
        2.19054         33.1381         4.70696 
        2.19666         33.0079         4.67541 
         2.2028         32.9087         4.64412 
        2.20893         32.7757          4.6131 
        2.21508         32.6142         4.58233 
        2.22122         32.4238         4.55184 
        2.22736         32.3306         4.52168 
        2.23349         32.1994         4.49181 
        2.23962         32.0351         4.46219 
        2.24577         31.8588         4.43282 
         2.2519         31.7576         4.40375 
        2.25802         31.6479         4.37499 
        2.26417          31.504         4.34641 
        2.27031         31.4062         4.31806 
        2.27644         31.2414         4.29004 
        2.28257         31.1308         4.26228 
        2.28872         30.9564         4.23471 
        2.29486         30.8517         4.20739 
        2.30099         30.7493         4.18037 
        2.30712         30.6414         4.15358 
        2.31326         30.5149         4.12697 
         2.3194         30.3616         4.10062 
        2.32553          30.215         4.07454 
        2.33166         30.0613          4.0487 
         2.3378          29.954         4.02305 
        2.34394         29.8185         3.99762 
        2.35007         29.6786         3.97244 
        2.35619         29.6121         3.94751 
        2.36233         29.4954         3.92274 
        2.36848         29.2843         3.89813 
        2.37462         29.2005         3.87378 
        2.38075         29.0695         3.84967 
        2.38689         28.9783         3.82574 
        2.39303         28.8264         3.80202 
        2.39916         28.6973         3.77853 
        2.40529          28.568         3.75524 
        2.41143         28.4826         3.73213 
        2.41757         28.3409          3.7092 
         2.4237         28.2318         3.68651 
        2.42983         28.1278         3.66401 
        2.43598         28.0089         3.64164 
        2.44211         27.8885          3.6195 
        2.44823          27.732         3.59759 
        2.45437         27.6634          3.5758 
        2.46052          27.528         3.55418 
        2.46665         27.4534         3.53277 
        2.47279         27.3107         3.51155 
        2.47892         27.1751         3.49049 
        2.48507         27.0774         3.46958 
         2.4912         27.0007         3.44888 
