# k  (h/Mpc)    Pcb(k)  (Mpc/h)^3    Pcb_linear(k)  (Mpc/h)^3
     0.00783031         13033.5         13216.9 
       0.013688           17093         16955.4 
       0.019231           17860         17863.8 
      0.0249154         16869.4         17260.5 
      0.0312784           15485         15723.3 
      0.0375637         13924.2         14021.7 
      0.0433917         12292.9         12627.7 
      0.0492413         11319.5         11514.9 
      0.0555754         10158.5         10598.9 
      0.0619321         9752.15         9865.36 
       0.067871         8854.73         9234.56 
      0.0738098         8222.03         8583.31 
      0.0800417         7420.62         7856.39 
      0.0862327         6811.57         7118.89 
      0.0921407          6277.5         6451.33 
      0.0982031          5670.2         5850.64 
       0.104506         5343.17         5344.39 
       0.110769            4953         4959.09 
       0.116806         4650.03          4674.3 
       0.122832         4430.06         4439.66 
       0.129052         4116.37         4213.51 
       0.135211         3908.62          3980.3 
       0.141259         3744.83         3734.03 
       0.147318          3538.8         3476.89 
       0.153489         3256.67         3220.26 
       0.159709         3091.88         2984.57 
       0.165845         2987.68          2786.3 
       0.171974          2819.4         2625.22 
       0.178125         2685.28         2495.56 
       0.184229         2576.41         2388.33 
        0.19034         2438.09         2290.74 
       0.196428          2394.4         2193.72 
       0.202534         2305.12         2091.54 
       0.208729         2207.54          1982.8 
       0.214876         2118.62         1873.77 
       0.220989          2052.8         1769.76 
       0.227147         1964.86         1674.41 
        0.23329         1891.78         1591.49 
       0.239377         1867.87         1521.41 
       0.245482         1755.12         1460.98 
       0.251667         1747.34         1406.31 
       0.257832         1681.05         1354.74 
       0.263955         1627.36         1303.74 
       0.270079         1575.87         1251.77 
        0.27624          1559.5         1198.88 
       0.282372         1493.98         1146.92 
        0.28843         1489.71         1097.94 
       0.294538         1418.94         1052.26 
       0.300721         1412.59         1010.52 
        0.30691         1357.94         973.094 
       0.313033         1332.23         939.582 
       0.319153         1314.27         908.463 
       0.325316         1270.02          878.45 
        0.33145         1243.17         849.113 
       0.337538          1224.4         820.235 
       0.343633         1197.54         791.652 
       0.349808         1160.14         763.464 
       0.355968         1152.73          736.55 
       0.362074         1141.51          711.48 
       0.368217          1106.9         688.004 
       0.374374         1067.26         666.165 
       0.380519         1069.04         645.806 
       0.386598         1041.91          626.71 
       0.392688         1037.57         608.329 
        0.39888         1008.85         590.149 
       0.405048         997.152         572.444 
       0.411186          983.04         555.269 
       0.417313         962.932         538.639 
       0.423458         947.973         522.612 
       0.429607         934.637         507.335 
       0.435692         916.945         492.986 
       0.441815           911.4         479.286 
       0.447964         891.345         466.207 
       0.454126         883.148         453.658 
       0.460267         864.036         441.598 
       0.466387         853.249          429.96 
        0.47254         846.438         418.596 
       0.478662          839.22         407.608 
       0.484765         817.885         396.999 
       0.490885         812.675         386.736 
       0.497035         795.289         376.816 
       0.503198         790.722         367.269 
       0.509342         781.512         358.137 
       0.515458         778.084         349.403 
       0.521598         760.442         340.952 
       0.527764         744.629         332.745 
       0.533884         744.906         324.849 
           0.54         736.527         317.198 
       0.546137         730.641          309.75 
       0.552299         720.743         302.497 
       0.558452         716.079         295.482 
       0.564573         705.601         288.731 
       0.570708         698.881         282.191 
       0.576825         679.668         275.893 
       0.582926         683.381         269.816 
       0.589034         676.893         263.921 
       0.595184         669.867         258.165 
       0.601379         661.436         252.539 
       0.607522         652.374         247.124 
       0.613639         653.334         241.887 
       0.619772         637.405         236.787 
       0.625918         634.204         231.822 
       0.632068         626.575         226.997 
       0.638161         624.551         222.355 
         0.6443         612.492         217.815 
       0.650464         611.048         213.391 
       0.656582         607.938         209.125 
       0.662703         603.875         204.978 
       0.668861         593.234         200.919 
       0.675024         588.714         196.967 
       0.681124         585.442         193.159 
       0.687237         580.375         189.444 
       0.693381         573.578          185.81 
       0.699536         563.984         182.265 
       0.705665         564.121          178.83 
       0.711789         559.496         175.488 
       0.717957         554.332         172.211 
        0.72409         551.316         169.036 
       0.730186         543.672         165.962 
       0.736317         540.225         162.949 
       0.742472         537.953         159.999 
       0.748622           531.6         157.125 
        0.75476         523.986         154.328 
       0.760888         519.338         151.604 
       0.767043         519.171         148.935 
       0.773185         513.493         146.337 
       0.779291         508.713         143.816 
       0.785407         504.358         141.351 
       0.791564         498.913         138.929 
       0.797719         496.548         136.566 
       0.803834         492.429         134.273 
       0.809972         489.615         132.025 
       0.816124         488.706         129.825 
       0.822261         481.169          127.68 
       0.828378         478.543         125.591 
       0.834502         473.931         123.547 
       0.840667          469.71         121.536 
       0.846816         467.539         119.575 
       0.852925         462.942          117.67 
       0.859047         462.698         115.803 
       0.865192         456.976         113.971 
       0.871341         453.103         112.178 
       0.877463         451.907         110.431 
       0.883569         447.314         108.727 
       0.889708         444.725          107.05 
       0.895864         441.552         105.404 
       0.902008         438.541         103.796 
       0.908149         434.175         102.224 
       0.914301          430.94         100.681 
       0.920448         428.326         99.1723 
       0.926574           421.9         97.6998 
       0.932687         422.109         96.2605 
       0.938823         417.402         94.8452 
       0.944975         417.727         93.4553 
       0.951105         411.861         92.0985 
       0.957225          409.12          90.771 
       0.963368         405.219         89.4654 
       0.969511         403.715         88.1857 
       0.975621         400.621          86.938 
       0.981748         398.956         85.7113 
       0.987916         396.103         84.5008 
        0.99406         389.407         83.3183 
        1.00019         388.683         82.1609 
        1.00632         386.562         81.0266 
        1.01246         383.415         79.9122 
        1.01859         383.464         78.8207 
        1.02471         377.993          77.751 
        1.03085         375.918         76.6976 
        1.03698         374.644          75.666 
        1.04314         370.939         74.6492 
        1.04929         367.002         73.6534 
        1.05541         367.374           72.68 
        1.06154          361.93         71.7218 
        1.06769         359.799         70.7796 
        1.07382         357.975         69.8574 
        1.07993         355.574         68.9538 
        1.08607         354.438         68.0626 
        1.09222         351.117         67.1863 
        1.09836         348.805         66.3266 
        1.10449         345.257         65.4829 
        1.11063         342.002         64.6531 
        1.11677         342.119         63.8381 
         1.1229         339.922         63.0386 
        1.12903         336.767         62.2521 
        1.13518         333.655         61.4785 
        1.14131         332.317         60.7185 
        1.14745         329.894         59.9719 
        1.15359          327.76         59.2378 
        1.15973         325.659         58.5157 
        1.16584         323.286         57.8089 
        1.17197         322.404         57.1128 
        1.17811         319.092         56.4262 
        1.18424         316.272         55.7529 
        1.19038         314.814         55.0886 
        1.19652         312.658         54.4355 
        1.20267         311.524          53.793 
        1.20881         309.589         53.1611 
        1.21495         306.788         52.5404 
        1.22108         305.222         51.9297 
         1.2272         302.949         51.3301 
        1.23334         300.843         50.7387 
        1.23949         299.332         50.1553 
        1.24562         297.645         49.5826 
        1.25174         294.751         49.0198 
        1.25789         292.321         48.4641 
        1.26402         290.775          47.918 
        1.27014         288.759         47.3816 
        1.27628         287.196         46.8519 
        1.28244         286.574         46.3293 
        1.28858         283.309         45.8155 
        1.29471         281.088         45.3105 
        1.30084         279.909         44.8137 
        1.30697          277.97         44.3236 
        1.31312         275.269         43.8402 
        1.31925         274.986         43.3655 
        1.32537         273.548         42.8983 
        1.33151         270.485         42.4363 
        1.33765         268.628         41.9815 
        1.34378         267.592         41.5342 
        1.34992         265.757         41.0932 
        1.35606         264.903         40.6576 
         1.3622         262.783         40.2291 
        1.36833         260.557         39.8079 
        1.37445         259.254         39.3929 
        1.38059          256.77         38.9827 
        1.38675         255.915         38.5772 
        1.39288         253.973         38.1792 
        1.39901          253.17          37.787 
        1.40515         251.123         37.3995 
         1.4113         249.714         37.0175 
        1.41742         247.878         36.6424 
        1.42355         245.969         36.2717 
         1.4297         244.465         35.9051 
        1.43585         243.034         35.5437 
        1.44198         241.729         35.1887 
        1.44809         240.245         34.8392 
        1.45423         238.265         34.4932 
        1.46036         237.296         34.1526 
        1.46649         235.187         33.8164 
        1.47263         233.721         33.4845 
        1.47877           232.4         33.1572 
        1.48491         230.634         32.8338 
        1.49104         229.818         32.5154 
        1.49718         227.698         32.2009 
        1.50333         226.678         31.8902 
        1.50947         225.233         31.5841 
         1.5156         223.131         31.2826 
        1.52172         222.401          30.985 
        1.52787         220.726         30.6907 
          1.534         219.772         30.4005 
        1.54013         217.691         30.1145 
        1.54627         216.988         29.8315 
        1.55241         215.341         29.5522 
        1.55855         213.942         29.2769 
        1.56467         212.491         29.0058 
         1.5708          212.19         28.7374 
        1.57695         210.032          28.472 
        1.58308         208.931         28.2106 
        1.58922         206.686         27.9523 
        1.59535         205.414         27.6973 
         1.6015          205.15         27.4452 
        1.60764         203.462         27.1963 
        1.61376         202.034         26.9512 
        1.61989         200.927          26.709 
        1.62604         199.697         26.4692 
        1.63218         198.559         26.2324 
        1.63831         197.157         25.9992 
        1.64444         196.373         25.7686 
        1.65059         194.664         25.5404 
        1.65673         193.644         25.3151 
        1.66285         192.461         25.0932 
        1.66898         191.004         24.8739 
        1.67512         190.576         24.6568 
        1.68127         188.339         24.4421 
         1.6874         187.375         24.2305 
        1.69353         186.478         24.0214 
        1.69967         184.989         23.8144 
        1.70581         184.105         23.6099 
        1.71193         182.687         23.4085 
        1.71806         182.166         23.2091 
        1.72421         180.586         23.0116 
        1.73035          179.89         22.8167 
        1.73649         178.729          22.624 
        1.74262          177.45         22.4338 
        1.74876         176.474         22.2456 
        1.75489         175.131         22.0599 
        1.76101         174.062         21.8764 
        1.76715         173.348         21.6947 
        1.77329         172.407         21.5149 
        1.77943         171.391         21.3371 
        1.78557         170.193         21.1615 
        1.79171         169.115         20.9879 
        1.79785         167.801         20.8162 
        1.80399         166.982         20.6464 
        1.81012          165.92         20.4788 
        1.81625         165.177         20.3131 
        1.82239         163.894          20.149 
        1.82853         163.372         19.9868 
        1.83466         162.026         19.8265 
        1.84078         161.338         19.6682 
        1.84692         159.697         19.5114 
        1.85306         159.416          19.356 
         1.8592         158.149         19.2026 
        1.86533          157.26          19.051 
        1.87147         156.107         18.9008 
        1.87761         155.611         18.7522 
        1.88375         153.862         18.6053 
        1.88988         153.015         18.4602 
        1.89601         152.585         18.3165 
        1.90215          151.37         18.1743 
        1.90829         150.641         18.0336 
        1.91442         149.638         17.8945 
        1.92056         148.991         17.7569 
         1.9267         147.916         17.6206 
        1.93284         147.004         17.4857 
        1.93897         146.205         17.3524 
        1.94509         145.451         17.2209 
        1.95123         144.652         17.0903 
        1.95737         143.969          16.961 
        1.96349         142.951         16.8334 
        1.96964         141.858         16.7068 
        1.97578         141.026         16.5813 
        1.98192         140.304         16.4575 
        1.98805          139.25         16.3349 
        1.99419         138.547         16.2135 
        2.00033         137.803         16.0933 
        2.00647         137.154         15.9743 
         2.0126          135.82         15.8568 
        2.01874         135.511         15.7402 
        2.02488         134.788         15.6248 
        2.03101         133.539         15.5107 
        2.03714         132.949         15.3978 
        2.04328         132.112         15.2859 
        2.04941         131.435         15.1753 
        2.05554         130.538         15.0658 
        2.06167         130.146         14.9573 
        2.06781         129.285         14.8498 
        2.07396         128.244         14.7432 
        2.08009          127.81         14.6378 
        2.08622         126.809         14.5336 
        2.09237         126.055         14.4302 
        2.09851         125.421         14.3278 
        2.10464         124.973         14.2266 
        2.11077         124.128         14.1264 
        2.11691          123.43          14.027 
        2.12305         122.347         13.9286 
        2.12918         121.806         13.8313 
        2.13531         121.273         13.7349 
        2.14145         120.298         13.6393 
         2.1476         119.487         13.5444 
        2.15372         119.196          13.451 
        2.15985         118.776         13.3583 
        2.16599         117.601         13.2662 
        2.17213         117.015         13.1751 
        2.17827         116.424         13.0849 
         2.1844         115.651         12.9956 
        2.19054         115.118         12.9071 
        2.19666         114.391         12.8195 
         2.2028         113.665         12.7327 
        2.20893         113.189         12.6466 
        2.21508         112.442         12.5613 
        2.22122         111.793         12.4767 
        2.22736         111.178         12.3931 
        2.23349         110.561         12.3102 
        2.23962         109.854         12.2281 
        2.24577         109.381         12.1466 
         2.2519         108.835          12.066 
        2.25802         107.978         11.9862 
        2.26417         107.403          11.907 
        2.27031         106.615         11.8284 
        2.27644         106.172         11.7507 
        2.28257         105.644         11.6738 
        2.28872         105.156         11.5973 
        2.29486         104.413         11.5216 
        2.30099         103.915         11.4467 
        2.30712         103.301         11.3725 
        2.31326         102.629         11.2988 
         2.3194         102.093         11.2257 
        2.32553         101.537         11.1535 
        2.33166         101.162         11.0819 
         2.3378         100.568         11.0108 
        2.34394         100.079         10.9404 
        2.35007         99.3798         10.8706 
        2.35619         98.7748         10.8016 
        2.36233         98.3087          10.733 
        2.36848         97.7116         10.6648 
        2.37462          97.349         10.5974 
        2.38075         96.7582         10.5306 
        2.38689         96.1286         10.4643 
        2.39303         95.4828         10.3987 
        2.39916         95.1213         10.3336 
        2.40529         94.7027         10.2691 
        2.41143         94.1719         10.2052 
        2.41757         93.5817         10.1417 
         2.4237         92.9298         10.0789 
        2.42983         92.3732         10.0166 
        2.43598         91.9132         9.95473 
        2.44211         91.5972         9.89345 
        2.44823         91.1442         9.83282 
        2.45437         90.5008         9.77254 
        2.46052         89.9275         9.71271 
        2.46665         89.4621         9.65348 
        2.47279         89.0369         9.59478 
        2.47892         88.6114         9.53651 
        2.48507          88.044         9.47868 
         2.4912         87.6587         9.42144 
