# k  (h/Mpc)    Pcb(k)  (Mpc/h)^3    Pcb_linear(k)  (Mpc/h)^3
     0.00783031         5789.38         5818.68 
       0.013688         7369.41         7502.56 
       0.019231         7849.89         7927.26 
      0.0249154         7658.34         7656.62 
      0.0312784         6883.62         6933.01 
      0.0375637         6032.38          6107.4 
      0.0433917         5395.34         5416.12 
      0.0492413         4810.29         4861.31 
      0.0555754         4402.79         4418.84 
      0.0619321         3988.97         4097.25 
       0.067871         3797.02         3854.29 
      0.0738098         3579.87         3621.58 
      0.0800417         3327.29         3358.75 
      0.0862327          3028.4         3072.47 
      0.0921407         2754.45         2788.79 
      0.0982031         2503.87         2509.39 
       0.104506         2227.93         2254.13 
       0.110769         2037.48         2049.81 
       0.116806         1923.33         1901.03 
       0.122832          1794.8         1791.87 
       0.129052          1714.5         1706.38 
       0.135211         1659.58          1633.1 
       0.141259         1565.26         1559.32 
       0.147318         1463.13         1476.36 
       0.153489         1383.17         1381.74 
       0.159709          1309.1          1280.9 
       0.165845         1190.15         1183.67 
       0.171974         1143.89         1096.05 
       0.178125         1082.49         1022.32 
       0.184229         1003.31         964.436 
        0.19034          977.46         919.818 
       0.196428         945.508         884.607 
       0.202534         891.446         853.708 
       0.208729         876.808         822.412 
       0.214876         845.928         788.521 
       0.220989         792.993         751.217 
       0.227147         773.505         711.122 
        0.23329         740.853         670.891 
       0.239377         720.085         633.273 
       0.245482         680.568          599.71 
       0.251667         651.646         570.926 
       0.257832         642.998          547.28 
       0.263955         609.295         527.731 
       0.270079         590.356         510.589 
        0.27624         566.956         494.193 
       0.282372         554.884         477.527 
        0.28843         551.144         460.133 
       0.294538         523.945         441.697 
       0.300721         505.443          422.69 
        0.30691         496.638         404.094 
       0.313033         474.997         386.903 
       0.319153         466.116         371.403 
       0.325316          454.89         357.681 
        0.33145         444.099         345.699 
       0.337538         429.198         335.074 
       0.343633         416.636         325.176 
       0.349808         405.942          315.44 
       0.355968          397.74         305.674 
       0.362074         387.419         295.825 
       0.368217         382.585         285.816 
       0.374374         374.176         275.868 
       0.380519         359.051         266.295 
       0.386598         353.761         257.368 
       0.392688         345.768         249.105 
        0.39888         337.325         241.422 
       0.405048         331.499          234.39 
       0.411186         328.451         227.879 
       0.417313         322.382         221.683 
       0.423458         313.797         215.626 
       0.429607         306.945         209.645 
       0.435692         301.384         203.762 
       0.441815          295.81         197.906 
       0.447964         288.231         192.165 
       0.454126         283.859         186.618 
       0.460267         280.523         181.349 
       0.466387         275.311         176.401 
        0.47254         271.955         171.722 
       0.478662         264.124          167.32 
       0.484765         261.103         163.142 
       0.490885         257.468         159.114 
       0.497035         254.447         155.175 
       0.503198         251.277         151.308 
       0.509342         244.612         147.531 
       0.515458         242.096         143.857 
       0.521598         236.748         140.265 
       0.527764         234.046         136.775 
       0.533884         233.575         133.447 
           0.54         228.169         130.267 
       0.546137         223.235         127.211 
       0.552299         221.678         124.265 
       0.558452         217.895         121.434 
       0.564573         216.553         118.711 
       0.570708         211.798          116.06 
       0.576825         209.007         113.481 
       0.582926         206.804         110.969 
       0.589034         204.112         108.517 
       0.595184         202.548         106.118 
       0.601379         198.167         103.777 
       0.607522         195.068         101.531 
       0.613639         193.603         99.3665 
       0.619772         191.594         97.2684 
       0.625918         190.045         95.2361 
       0.632068          185.96         93.2673 
       0.638161         183.937         91.3743 
         0.6443         183.152         89.5185 
       0.650464         179.895         87.7021 
       0.656582         178.949         85.9435 
       0.662703         177.154         84.2291 
       0.668861         173.728         82.5504 
       0.675024         173.747         80.9174 
       0.681124         171.087         79.3476 
       0.687237         168.591         77.8188 
       0.693381         167.657         76.3252 
       0.699536         165.521         74.8696 
       0.705665          163.47         73.4592 
       0.711789         161.669         72.0869 
       0.717957         159.976         70.7405 
        0.72409         158.964         69.4361 
       0.730186         158.386         68.1724 
       0.736317         155.623         66.9331 
       0.742472         153.798         65.7197 
       0.748622         151.597         64.5372 
        0.75476         151.794         63.3862 
       0.760888         150.433         62.2652 
       0.767043         148.009         61.1672 
       0.773185         146.451         60.0984 
       0.779291         144.836         59.0619 
       0.785407         143.521          58.049 
       0.791564         142.901         57.0539 
       0.797719         141.226         56.0831 
       0.803834         140.608         55.1414 
       0.809972         139.849          54.218 
       0.816124         138.027         53.3139 
       0.822261         136.517         52.4328 
       0.828378          136.36         51.5743 
       0.834502           134.1         50.7342 
       0.840667         133.626         49.9076 
       0.846816         132.507         49.1017 
       0.852925         131.097         48.3188 
       0.859047         130.249         47.5516 
       0.865192         129.035         46.7986 
       0.871341         127.642         46.0615 
       0.877463         126.874         45.3438 
       0.883569         126.631         44.6434 
       0.889708         125.605         43.9543 
       0.895864          124.37         43.2782 
       0.902008         123.398         42.6177 
       0.908149         121.806         41.9716 
       0.914301         121.872         41.3378 
       0.920448         121.104         40.7179 
       0.926574         119.108         40.1129 
       0.932687         118.899         39.5215 
       0.938823         117.939         38.9401 
       0.944975         116.639         38.3691 
       0.951105         115.807         37.8116 
       0.957225         115.789         37.2663 
       0.963368         114.423         36.7299 
       0.969511           113.5         36.2042 
       0.975621         112.696         35.6916 
       0.981748         111.742         35.1877 
       0.987916         111.069         34.6904 
        0.99406         110.612         34.2047 
        1.00019         109.394         33.7293 
        1.00632         108.829         33.2635 
        1.01246         108.101         32.8057 
        1.01859         107.629         32.3575 
        1.02471         106.638         31.9181 
        1.03085         105.757         31.4855 
        1.03698         105.209         31.0619 
        1.04314         104.478         30.6443 
        1.04929         104.067         30.2354 
        1.05541         103.357         29.8356 
        1.06154         102.741         29.4422 
        1.06769         101.746         29.0553 
        1.07382         101.007         28.6766 
        1.07993         100.681         28.3056 
        1.08607         99.8201         27.9397 
        1.09222         99.5866         27.5799 
        1.09836         98.5256         27.2268 
        1.10449         98.0451         26.8804 
        1.11063         97.3621         26.5397 
        1.11677         96.8446          26.205 
         1.1229         96.0859         25.8767 
        1.12903         95.8542         25.5538 
        1.13518         95.4035         25.2361 
        1.14131         94.6524         24.9241 
        1.14745         93.8857         24.6175 
        1.15359         92.9653          24.316 
        1.15973         92.8368         24.0195 
        1.16584         92.2039         23.7293 
        1.17197         91.5263         23.4435 
        1.17811         91.0229         23.1615 
        1.18424         90.2347          22.885 
        1.19038         90.2305         22.6123 
        1.19652         89.6259         22.3441 
        1.20267         88.9449         22.0803 
        1.20881         88.4303         21.8208 
        1.21495         88.0254         21.5659 
        1.22108         87.5691         21.3152 
         1.2272         86.7936          21.069 
        1.23334         86.5127         20.8262 
        1.23949         85.9951         20.5867 
        1.24562          85.303         20.3516 
        1.25174         84.8205         20.1205 
        1.25789         84.8957         19.8924 
        1.26402         84.1073         19.6682 
        1.27014         83.7093          19.448 
        1.27628         82.9815         19.2306 
        1.28244         82.7471         19.0161 
        1.28858         82.2777         18.8051 
        1.29471         81.8299         18.5979 
        1.30084         81.1685         18.3939 
        1.30697         81.1848         18.1927 
        1.31312         80.4515         17.9943 
        1.31925         80.0018         17.7994 
        1.32537         79.5637         17.6077 
        1.33151         79.3322         17.4181 
        1.33765         78.7734         17.2314 
        1.34378         78.5006         17.0478 
        1.34992         78.0165         16.8668 
        1.35606         77.5381          16.688 
         1.3622         77.1608         16.5121 
        1.36833         76.6279         16.3392 
        1.37445         76.0373         16.1689 
        1.38059         75.9215         16.0005 
        1.38675         75.1613          15.834 
        1.39288          75.199         15.6707 
        1.39901         74.4973         15.5097 
        1.40515         74.2512         15.3506 
         1.4113         74.0264         15.1938 
        1.41742         73.5894         15.0398 
        1.42355         73.0809         14.8876 
         1.4297         72.6988         14.7371 
        1.43585         72.2487         14.5888 
        1.44198         71.8799         14.4431 
        1.44809          71.487         14.2996 
        1.45423         71.1674         14.1576 
        1.46036         70.7155         14.0178 
        1.46649         70.5996         13.8798 
        1.47263         70.1409         13.7435 
        1.47877         69.8892         13.6092 
        1.48491         69.5229         13.4764 
        1.49104         68.9692         13.3457 
        1.49718         68.6962         13.2167 
        1.50333         68.3911         13.0891 
        1.50947         68.0442         12.9635 
         1.5156         67.7695         12.8398 
        1.52172         67.3009         12.7176 
        1.52787          66.922         12.5968 
          1.534         66.7162         12.4778 
        1.54013         66.4547         12.3604 
        1.54627           65.86         12.2443 
        1.55241           65.54         12.1296 
        1.55855         65.4305         12.0166 
        1.56467          64.878         11.9054 
         1.5708         64.7559         11.7953 
        1.57695         64.3633         11.6863 
        1.58308         63.9687         11.5791 
        1.58922         63.7214         11.4731 
        1.59535          63.531         11.3684 
         1.6015         63.4111         11.2649 
        1.60764         62.9811         11.1628 
        1.61376         62.5725         11.0622 
        1.61989         62.1408         10.9628 
        1.62604         61.9389         10.8643 
        1.63218         61.6539         10.7672 
        1.63831         61.4852         10.6714 
        1.64444         61.0985         10.5768 
        1.65059         60.8789         10.4831 
        1.65673         60.3958         10.3907 
        1.66285         60.2893         10.2996 
        1.66898         59.7016         10.2096 
        1.67512         59.6849         10.1205 
        1.68127         59.3388         10.0324 
         1.6874         58.9753         9.94553 
        1.69353          58.832         9.85974 
        1.69967         58.5827         9.77476 
        1.70581         58.1831         9.69083 
        1.71193         57.9207         9.60819 
        1.71806         57.6464         9.52635 
        1.72421         57.4363          9.4453 
        1.73035         57.1471         9.36529 
        1.73649         56.7933         9.28623 
        1.74262         56.4191         9.20814 
        1.74876         56.2635          9.1309 
        1.75489         55.9361         9.05471 
        1.76101         55.7083         8.97941 
        1.76715         55.6849         8.90486 
        1.77329         55.1005         8.83108 
        1.77943         55.1121          8.7581 
        1.78557         54.8425         8.68605 
        1.79171         54.5254          8.6148 
        1.79785         54.2392         8.54434 
        1.80399         53.9948         8.47468 
        1.81012         53.7714          8.4059 
        1.81625         53.4054          8.3379 
        1.82239         53.2142         8.27056 
        1.82853         53.0695           8.204 
        1.83466         52.7264         8.13823 
        1.84078         52.4935         8.07325 
        1.84692         52.2023         8.00888 
        1.85306         51.9769         7.94513 
         1.8592         51.8533         7.88218 
        1.86533         51.5354         7.81994 
        1.87147         51.3002         7.75831 
        1.87761          50.969         7.69731 
        1.88375         50.8796         7.63705 
        1.88988          50.641         7.57749 
        1.89601         50.3241         7.51854 
        1.90215           50.15         7.46017 
        1.90829          49.897         7.40244 
        1.91442          49.647         7.34533 
        1.92056         49.4272         7.28887 
         1.9267          49.263         7.23294 
        1.93284         48.9884         7.17757 
        1.93897         48.8465         7.12289 
        1.94509         48.4669         7.06889 
        1.95123         48.2891         7.01532 
        1.95737         47.9723         6.96226 
        1.96349         47.8758         6.90989 
        1.96964          47.672         6.85791 
        1.97578         47.4581         6.80644 
        1.98192         47.2131         6.75561 
        1.98805         46.9889         6.70528 
        1.99419         46.8311         6.65547 
        2.00033         46.6385         6.60614 
        2.00647         46.4511         6.55733 
         2.0126         46.1603         6.50909 
        2.01874         45.8948         6.46126 
        2.02488         45.7333         6.41387 
        2.03101         45.5213         6.36705 
        2.03714         45.3228         6.32074 
        2.04328         45.1718         6.27484 
        2.04941         44.9124         6.22943 
        2.05554         44.7945          6.1845 
        2.06167         44.5806         6.13996 
        2.06781         44.3271         6.09585 
        2.07396         44.1646         6.05211 
        2.08009         44.0008         6.00887 
        2.08622         43.7516         5.96611 
        2.09237         43.5843         5.92368 
        2.09851         43.3423         5.88166 
        2.10464         43.1183         5.84011 
        2.11077         42.9956         5.79901 
        2.11691         42.7286         5.75822 
        2.12305         42.5644         5.71782 
        2.12918          42.377          5.6779 
        2.13531         42.2343         5.63836 
        2.14145         42.0434         5.59911 
         2.1476         41.7959         5.56019 
        2.15372         41.7172         5.52183 
        2.15985         41.4108         5.48379 
        2.16599         41.2523         5.44601 
        2.17213         41.0864         5.40862 
        2.17827         40.8631         5.37159 
         2.1844         40.7062         5.33494 
        2.19054          40.518         5.29862 
        2.19666         40.2997         5.26269 
         2.2028         40.1687         5.22707 
        2.20893         39.9755         5.19175 
        2.21508         39.8439         5.15672 
        2.22122         39.6229         5.12201 
        2.22736         39.3965         5.08768 
        2.23349         39.2509         5.05368 
        2.23962         39.1268         5.01997 
        2.24577         38.9661         4.98654 
         2.2519         38.7362         4.95347 
        2.25802         38.5988         4.92074 
        2.26417         38.3883         4.88822 
        2.27031         38.3106         4.85596 
        2.27644         38.1813         4.82409 
        2.28257         37.8674          4.7925 
        2.28872         37.8118         4.76114 
        2.29486         37.5914         4.73007 
        2.30099         37.3912         4.69934 
        2.30712         37.2787         4.66886 
        2.31326          37.103         4.63861 
         2.3194          36.944         4.60864 
        2.32553         36.7756         4.57899 
        2.33166         36.5972         4.54961 
         2.3378         36.5056         4.52044 
        2.34394         36.2877         4.49153 
        2.35007         36.1565         4.46291 
        2.35619         36.0363         4.43457 
        2.36233         35.8226         4.40641 
        2.36848         35.6744         4.37844 
        2.37462         35.5676         4.35077 
        2.38075         35.3913         4.32337 
        2.38689         35.2215         4.29618 
        2.39303         35.1723         4.26923 
        2.39916         34.8614         4.24254 
        2.40529         34.6834         4.21608 
        2.41143         34.6337         4.18982 
        2.41757         34.4762         4.16378 
         2.4237         34.3147           4.138 
        2.42983         34.1925         4.11245 
        2.43598         34.0748         4.08704 
        2.44211         33.9034          4.0619 
        2.44823         33.6893         4.03702 
        2.45437         33.6472         4.01227 
        2.46052         33.4477         3.98772 
        2.46665         33.2687         3.96342 
        2.47279         33.0679         3.93932 
        2.47892          33.032         3.91541 
        2.48507          32.865         3.89168 
         2.4912         32.7871         3.86819 
