# k  (h/Mpc)    P(k)  (Mpc/h)^3    P_linear(k)  (Mpc/h)^3
     0.00783031         3667.26          3719.7 
       0.013688         4181.72         4180.39 
       0.019231         3886.62         3882.42 
      0.0249154         3268.06         3292.55 
      0.0312784         2621.44         2620.82 
      0.0375637         2122.52         2110.77 
      0.0433917         1797.65         1800.18 
      0.0492413         1612.34         1609.38 
      0.0555754         1464.42         1476.86 
      0.0619321         1369.56         1360.54 
       0.067871         1227.56         1234.26 
      0.0738098         1082.72         1087.39 
      0.0800417         922.899         928.783 
      0.0862327         791.837         790.127 
      0.0921407         695.643          689.46 
      0.0982031         622.662         620.433 
       0.104506         587.206         577.412 
       0.110769         556.698         549.969 
       0.116806         527.324         524.972 
       0.122832         498.213         493.133 
       0.129052         452.609         451.313 
       0.135211         408.441         405.194 
       0.141259         369.939         361.958 
       0.147318         336.282         326.019 
       0.153489         307.414         299.297 
       0.159709          290.25         281.491 
       0.165845         280.186         269.718 
       0.171974         266.702         259.833 
       0.178125         255.972         248.622 
       0.184229         242.783         234.776 
        0.19034         223.504         218.639 
       0.196428         210.541         201.969 
       0.202534         197.946         186.565 
       0.208729         183.963         173.627 
       0.214876         173.001         163.822 
       0.220989         166.869         156.544 
       0.227147         159.099         150.657 
        0.23329         153.151         145.108 
       0.239377         148.136         139.146 
       0.245482           138.9         132.458 
       0.251667         134.163         125.206 
       0.257832         127.466         118.028 
       0.263955         121.061         111.493 
       0.270079         115.367         105.864 
        0.27624         111.969         101.164 
       0.282372         107.937         97.2517 
        0.28843         103.578         93.8114 
       0.294538         99.5211         90.4694 
       0.300721         97.1954         86.9993 
        0.30691         92.5306         83.3976 
       0.313033         89.1906         79.7814 
       0.319153          84.646         76.2751 
       0.325316         82.7383         72.9881 
        0.33145         79.2424         70.0511 
       0.337538         77.1682         67.4572 
       0.343633         74.3018         65.1259 
       0.349808         72.1022         62.9339 
       0.355968         70.1813         60.8248 
       0.362074         67.8659         58.7596 
       0.368217         65.6431         56.6862 
       0.374374          63.498         54.6433 
       0.380519          61.797         52.6759 
       0.386598         59.9605         50.8362 
       0.392688         58.5867         49.1253 
        0.39888         56.7582         47.5122 
       0.405048         55.2386         46.0154 
       0.411186         53.8805         44.6075 
       0.417313         52.2206         43.2532 
       0.423458         50.8324         41.9302 
       0.429607         49.4654         40.6396 
       0.435692         47.7603         39.3967 
       0.441815         46.9757           38.19 
       0.447964         46.0803         37.0342 
       0.454126         44.0776         35.9364 
       0.460267         43.4028         34.8985 
       0.466387         42.1971         33.9156 
        0.47254         41.4155         32.9713 
       0.478662         40.7488         32.0666 
       0.484765         39.4224         31.1921 
       0.490885         38.5497         30.3415 
       0.497035         38.0448         29.5146 
       0.503198         36.9265         28.7154 
       0.509342         35.9698         27.9484 
       0.515458         35.2284         27.2152 
       0.521598         34.6109         26.5095 
       0.527764         33.8754         25.8298 
       0.533884         33.3194         25.1804 
           0.54         32.5002         24.5535 
       0.546137         32.0313         23.9442 
       0.552299         31.4925         23.3517 
       0.558452         30.5248         22.7794 
       0.564573          30.006         22.2289 
       0.570708         29.5101         21.6956 
       0.576825         28.8539         21.1818 
       0.582926         28.2134         20.6866 
       0.589034         27.5415         20.2073 
       0.595184         27.1807         19.7408 
       0.601379         26.6403         19.2864 
       0.607522         26.0877           18.85 
       0.613639          25.848         18.4288 
       0.619772         25.1846         18.0191 
       0.625918         25.0026         17.6207 
       0.632068         24.6072         17.2341 
       0.638161         24.0934         16.8626 
         0.6443         23.6216         16.4996 
       0.650464         23.2011         16.1463 
       0.656582         23.0253         15.8062 
       0.662703         22.5557         15.4761 
       0.668861         22.1403         15.1535 
       0.675024         21.7583           14.84 
       0.681124         21.3772         14.5385 
       0.687237         20.9982         14.2447 
       0.693381         20.8151         13.9576 
       0.699536         20.2799          13.678 
       0.705665         20.2453         13.4072 
       0.711789         19.7494         13.1441 
       0.717957         19.4647         12.8863 
        0.72409         19.1941          12.637 
       0.730186         18.8999         12.3958 
       0.736317         18.7048         12.1597 
       0.742472         18.3636         11.9289 
       0.748622         18.1831         11.7043 
        0.75476         17.8677          11.486 
       0.760888         17.5739         11.2737 
       0.767043         17.3454         11.0659 
       0.773185          17.062         10.8637 
       0.779291         16.9589         10.6678 
       0.785407         16.7716         10.4765 
       0.791564         16.4671         10.2887 
       0.797719         16.0707         10.1056 
       0.803834         16.0522         9.92813 
       0.809972         15.8827         9.75432 
       0.816124         15.5426         9.58431 
       0.822261          15.363         9.41884 
       0.828378         15.2285          9.2578 
       0.834502         15.0699          9.1004 
       0.840667         14.8436         8.94568 
       0.846816         14.5741           8.795 
       0.852925         14.4323         8.64877 
       0.859047         14.2689         8.50557 
       0.865192         14.1217         8.36517 
       0.871341         14.0059         8.22786 
       0.877463         13.7586         8.09427 
       0.883569         13.5858           7.964 
       0.889708         13.3793         7.83595 
       0.895864         13.2469          7.7104 
       0.902008         13.1496         7.58788 
       0.908149         13.0022         7.46811 
       0.914301         12.9311         7.35074 
       0.920448         12.6896         7.23601 
       0.926574         12.5593         7.12415 
       0.932687         12.4091          7.0149 
       0.938823         12.2525         6.90755 
       0.944975         12.1217         6.80222 
       0.951105         11.9953         6.69947 
       0.957225         11.8781         6.59902 
       0.963368         11.7944          6.5003 
       0.969511         11.6626         6.40361 
       0.975621         11.5567          6.3094 
       0.981748          11.381         6.21685 
       0.987916         11.3151         6.12558 
        0.99406         11.1583         6.03649 
        1.00019         11.0084         5.94936 
        1.00632         10.9586         5.86402 
        1.01246          10.866         5.78024 
        1.01859         10.6745         5.69824 
        1.02471         10.6374         5.61794 
        1.03085          10.524         5.53891 
        1.03698         10.3539         5.46157 
        1.04314         10.2946         5.38538 
        1.04929         10.1697         5.31083 
        1.05541         10.0517           5.238 
        1.06154         9.99302         5.16636 
        1.06769         9.94112         5.09595 
        1.07382          9.8013         5.02709 
        1.07993         9.71703         4.95966 
        1.08607         9.62016          4.8932 
        1.09222         9.55411         4.82789 
        1.09836         9.43165         4.76386 
        1.10449         9.36424         4.70107 
        1.11063         9.24955         4.63934 
        1.11677         9.21154         4.57875 
         1.1229          9.1508         4.51935 
        1.12903         9.02651         4.46095 
        1.13518         8.91771         4.40355 
        1.14131         8.88628         4.34718 
        1.14745         8.79908         4.29184 
        1.15359          8.7386         4.23746 
        1.15973         8.64058         4.18399 
        1.16584         8.52684         4.13169 
        1.17197         8.48852         4.08022 
        1.17811         8.42611         4.02946 
        1.18424         8.34969         3.97972 
        1.19038         8.30973         3.93068 
        1.19652         8.22047         3.88248 
        1.20267         8.14581         3.83509 
        1.20881         8.10851          3.7885 
        1.21495         8.04511         3.74276 
        1.22108         7.94567         3.69778 
         1.2272         7.88473         3.65364 
        1.23334         7.82401         3.61013 
        1.23949         7.74531         3.56722 
        1.24562         7.71217         3.52513 
        1.25174         7.65359         3.48379 
        1.25789         7.58447         3.44298 
        1.26402         7.55425          3.4029 
        1.27014          7.4779         3.36356 
        1.27628         7.39173         3.32472 
        1.28244         7.33587         3.28642 
        1.28858         7.32962         3.24878 
        1.29471         7.24483         3.21181 
        1.30084         7.17251         3.17545 
        1.30697         7.15025         3.13961 
        1.31312         7.05469         3.10426 
        1.31925         6.99903         3.06957 
        1.32537         6.97068         3.03545 
        1.33151         6.92975         3.00172 
        1.33765         6.86743         2.96853 
        1.34378         6.81874         2.93591 
        1.34992         6.75488         2.90375 
        1.35606         6.72653         2.87201 
         1.3622         6.68757          2.8408 
        1.36833         6.60846         2.81013 
        1.37445         6.58044         2.77993 
        1.38059         6.54255         2.75008 
        1.38675         6.47559          2.7206 
        1.39288         6.46097         2.69166 
        1.39901         6.38754         2.66316 
        1.40515          6.3604         2.63501 
         1.4113         6.31175         2.60728 
        1.41742         6.26235         2.58006 
        1.42355         6.21267         2.55317 
         1.4297         6.19474         2.52658 
        1.43585         6.15481         2.50039 
        1.44198         6.11943         2.47466 
        1.44809         6.06848         2.44935 
        1.45423         6.02516         2.42429 
        1.46036         5.97792         2.39964 
        1.46649         5.95566         2.37531 
        1.47263         5.89565         2.35131 
        1.47877         5.85992         2.32765 
        1.48491         5.83409         2.30427 
        1.49104         5.79491         2.28127 
        1.49718         5.75803         2.25856 
        1.50333         5.72389         2.23613 
        1.50947         5.67524         2.21405 
         1.5156         5.64899         2.19229 
        1.52172         5.62507         2.17083 
        1.52787         5.57965         2.14962 
          1.534         5.53674         2.12871 
        1.54013         5.50502         2.10811 
        1.54627         5.46337         2.08774 
        1.55241         5.43516         2.06763 
        1.55855         5.41075         2.04782 
        1.56467         5.37032         2.02832 
         1.5708         5.35525         2.00902 
        1.57695         5.31019         1.98995 
        1.58308         5.26608         1.97117 
        1.58922         5.25417         1.95261 
        1.59535         5.22664          1.9343 
         1.6015         5.17627          1.9162 
        1.60764         5.14337         1.89834 
        1.61376          5.1281         1.88076 
        1.61989         5.09161         1.86339 
        1.62604         5.06947          1.8462 
        1.63218         5.04893         1.82923 
        1.63831         5.00712         1.81252 
        1.64444         4.98057         1.79601 
        1.65059         4.93398         1.77966 
        1.65673         4.93779         1.76354 
        1.66285         4.88466         1.74766 
        1.66898          4.8609         1.73198 
        1.67512         4.84184         1.71645 
        1.68127         4.81027          1.7011 
         1.6874         4.78722         1.68597 
        1.69353         4.74412         1.67104 
        1.69967         4.73735         1.65625 
        1.70581         4.71537         1.64165 
        1.71193         4.67424         1.62728 
        1.71806         4.65536         1.61305 
        1.72421          4.6306         1.59896 
        1.73035         4.60852         1.58505 
        1.73649         4.58422         1.57132 
        1.74262         4.55379         1.55775 
        1.74876         4.54117         1.54434 
        1.75489         4.51061         1.53112 
        1.76101         4.48209         1.51805 
        1.76715         4.46657         1.50512 
        1.77329         4.43284         1.49232 
        1.77943         4.40661         1.47966 
        1.78557         4.39796         1.46717 
        1.79171         4.37233         1.45483 
        1.79785         4.34168         1.44262 
        1.80399         4.32431         1.43055 
        1.81012         4.30289         1.41864 
        1.81625         4.28009         1.40687 
        1.82239         4.26105         1.39522 
        1.82853         4.23254          1.3837 
        1.83466         4.21257         1.37232 
        1.84078         4.19709         1.36109 
        1.84692         4.18085         1.34996 
        1.85306         4.15331         1.33894 
         1.8592         4.12866         1.32807 
        1.86533         4.11177         1.31732 
        1.87147         4.09115         1.30667 
        1.87761         4.07342         1.29614 
        1.88375         4.04221         1.28574 
        1.88988         4.03769         1.27546 
        1.89601         4.01275         1.26529 
        1.90215         3.99068         1.25522 
        1.90829         3.96889         1.24527 
        1.91442         3.95068         1.23542 
        1.92056         3.94014         1.22569 
         1.9267         3.91338         1.21605 
        1.93284         3.89295         1.20651 
        1.93897         3.87253         1.19709 
        1.94509         3.86448          1.1878 
        1.95123         3.84408         1.17857 
        1.95737         3.81846         1.16944 
        1.96349         3.80847         1.16043 
        1.96964         3.78666         1.15149 
        1.97578         3.76554         1.14264 
        1.98192         3.75509          1.1339 
        1.98805         3.73715         1.12525 
        1.99419         3.71334         1.11669 
        2.00033         3.70721         1.10821 
        2.00647         3.68323         1.09982 
         2.0126         3.67149         1.09154 
        2.01874         3.65363         1.08333 
        2.02488          3.6347         1.07519 
        2.03101         3.61943         1.06715 
        2.03714         3.59256         1.05921 
        2.04328         3.58394         1.05133 
        2.04941         3.56078         1.04354 
        2.05554         3.55523         1.03584 
        2.06167         3.52994          1.0282 
        2.06781         3.52416         1.02064 
        2.07396         3.51263         1.01314 
        2.08009         3.49389         1.00574 
        2.08622         3.47181         0.99841 
        2.09237         3.45583        0.991144 
        2.09851         3.45131        0.983948 
        2.10464         3.43279        0.976836 
        2.11077         3.40968        0.969802 
        2.11691         3.39571        0.962822 
        2.12305         3.38669         0.95591 
        2.12918         3.37621        0.949083 
        2.13531         3.36102        0.942322 
        2.14145         3.34308        0.935611 
         2.1476         3.33015        0.928957 
        2.15372         3.31339        0.922401 
        2.15985         3.31079        0.915902 
        2.16599         3.28522        0.909447 
        2.17213         3.27234        0.903061 
        2.17827         3.26512        0.896738 
         2.1844         3.25143         0.89048 
        2.19054         3.22635        0.884281 
        2.19666         3.21824        0.878149 
         2.2028         3.20657        0.872069 
        2.20893          3.1936        0.866044 
        2.21508         3.18064         0.86007 
        2.22122         3.16468        0.854149 
        2.22736         3.15216        0.848297 
        2.23349         3.14556        0.842501 
        2.23962         3.13176        0.836756 
        2.24577         3.11959        0.831059 
         2.2519         3.11093        0.825423 
        2.25802         3.09099        0.819849 
        2.26417          3.0836         0.81431 
        2.27031         3.06741        0.808817 
        2.27644         3.05296        0.803392 
        2.28257         3.03417        0.798016 
        2.28872          3.0365        0.792679 
        2.29486         3.02228        0.787391 
        2.30099         3.00728        0.782163 
        2.30712         2.99358         0.77698 
        2.31326         2.98032        0.771835 
         2.3194          2.9695        0.766739 
        2.32553         2.96411        0.761698 
        2.33166         2.95211        0.756705 
         2.3378         2.93799        0.751749 
        2.34394         2.92688        0.746836 
        2.35007         2.91384        0.741974 
        2.35619         2.90352        0.737161 
        2.36233         2.89256        0.732379 
        2.36848         2.88186         0.72763 
        2.37462         2.87591        0.722932 
        2.38075         2.86087        0.718281 
        2.38689          2.8541        0.713667 
        2.39303         2.83684        0.709094 
        2.39916         2.82785        0.704566 
        2.40529         2.81789        0.700077 
        2.41143         2.80662        0.695625 
        2.41757         2.80593        0.691209 
         2.4237         2.78928         0.68684 
        2.42983         2.77646        0.682508 
        2.43598         2.76663        0.678203 
        2.44211         2.75572        0.673942 
        2.44823           2.745        0.669727 
        2.45437         2.73718        0.665536 
        2.46052         2.73012        0.661378 
        2.46665         2.71934        0.657262 
        2.47279         2.70259        0.653183 
        2.47892         2.69517        0.649136 
        2.48507         2.68794        0.645119 
         2.4912         2.67555        0.641143 
