# k  (h/Mpc)    Pcb(k)  (Mpc/h)^3    Pcb_linear(k)  (Mpc/h)^3
     0.00783031         3766.59         3798.51 
       0.013688         4233.73         4297.29 
       0.019231          3929.8         3955.48 
      0.0249154            3295         3280.68 
      0.0312784         2521.72         2516.07 
      0.0375637         1945.01         1946.69 
      0.0433917         1623.52         1614.95 
      0.0492413         1431.18         1430.47 
      0.0555754         1334.37         1326.82 
      0.0619321         1235.91         1249.84 
       0.067871         1154.14         1156.11 
      0.0738098         1028.92         1027.88 
      0.0800417         877.958         871.779 
      0.0862327         728.708         724.229 
      0.0921407         618.608         612.521 
      0.0982031         546.026         535.926 
       0.104506         495.732         492.756 
       0.110769         477.053         473.785 
       0.116806         469.054         463.002 
       0.122832         448.531         446.848 
       0.129052         421.258         417.562 
       0.135211         384.568         377.083 
       0.141259         339.167         333.091 
       0.147318         297.889         292.789 
       0.153489         268.444         261.204 
       0.159709         249.827         240.691 
       0.165845         234.339         229.744 
       0.171974         232.439         224.109 
       0.178125         226.175         219.296 
       0.184229         216.084         211.849 
        0.19034         206.678         200.277 
       0.196428         192.752         185.441 
       0.202534         174.393         169.473 
       0.208729         163.335         154.656 
       0.214876         152.908         143.009 
       0.220989         142.369         134.911 
       0.227147         138.871         129.679 
        0.23329         134.773         126.123 
       0.239377         131.927         122.851 
       0.245482         126.538         118.771 
       0.251667         120.252         113.384 
       0.257832         116.306         106.992 
       0.263955         108.164         100.329 
       0.270079             102         94.1018 
        0.27624         96.6219         88.8241 
       0.282372         92.8792         84.7428 
        0.28843         91.1932         81.6877 
       0.294538         87.6747         79.2279 
       0.300721         84.3495         76.9101 
        0.30691         82.6749          74.418 
       0.313033          79.176         71.6071 
       0.319153          77.127         68.5204 
       0.325316         73.3467         65.3128 
        0.33145         70.2126           62.27 
       0.337538         67.4976         59.5648 
       0.343633         65.4289         57.2621 
       0.349808         63.1517         55.2966 
       0.355968         61.3221         53.5972 
       0.362074         60.1647         52.0305 
       0.368217          58.372         50.4454 
       0.374374         56.8378         48.7956 
       0.380519         54.4202         47.0777 
       0.386598         52.7165         45.3632 
       0.392688          50.861         43.7021 
        0.39888         49.8169         42.1244 
       0.405048         48.4739         40.7046 
       0.411186         47.1063         39.4391 
       0.417313          45.766         38.2851 
       0.423458         44.4184         37.2009 
       0.429607         43.5977          36.148 
       0.435692         42.8661         35.1064 
       0.441815         41.1902         34.0567 
       0.447964         39.8309         33.0139 
       0.454126          39.077         31.9951 
       0.460267         38.5742         31.0247 
       0.466387         37.4122         30.1194 
        0.47254         36.8285          29.272 
       0.478662         35.5657         28.4798 
       0.484765         34.8076         27.7295 
       0.490885         33.7622         27.0064 
       0.497035         33.2579         26.2984 
       0.503198         32.5472         25.6002 
       0.509342         31.5801          24.916 
       0.515458         31.0771         24.2541 
       0.521598         30.3125         23.6148 
       0.527764         29.8338         23.0006 
       0.533884         29.2185          22.418 
           0.54         28.5782          21.862 
       0.546137         27.7267         21.3282 
       0.552299         27.1884          20.813 
       0.558452         26.5764          20.315 
       0.564573         26.3156         19.8319 
       0.570708         25.6282         19.3589 
       0.576825         25.2659         18.8999 
       0.582926         24.8028         18.4564 
       0.589034         24.2681         18.0281 
       0.595184         23.9577          17.613 
       0.601379         23.3104           17.21 
       0.607522         22.8467         16.8239 
       0.613639         22.5258         16.4515 
       0.619772         22.0732         16.0894 
       0.625918         21.6765         15.7372 
       0.632068         21.4357         15.3951 
       0.638161         20.9847         15.0661 
         0.6443         20.6672         14.7442 
       0.650464         20.1242         14.4305 
       0.656582         19.9977         14.1281 
       0.662703         19.6877         13.8344 
       0.668861         19.1879         13.5475 
       0.675024         18.9192         13.2688 
       0.681124         18.8227         13.0009 
       0.687237          18.425         12.7402 
       0.693381         18.0205         12.4855 
       0.699536          17.905         12.2375 
       0.705665           17.54         11.9974 
       0.711789         17.2562          11.764 
       0.717957          16.894         11.5352 
        0.72409         16.7178         11.3138 
       0.730186         16.6224         11.0995 
       0.736317         16.2581         10.8896 
       0.742472         16.0695         10.6844 
       0.748622         15.8049         10.4847 
        0.75476         15.4093         10.2906 
       0.760888         15.3652         10.1018 
       0.767043         15.0653         9.91693 
       0.773185           14.87         9.73716 
       0.779291         14.7079          9.5629 
       0.785407         14.4913         9.39271 
       0.791564          14.368         9.22563 
       0.797719         14.0215         9.06275 
       0.803834         13.9739         8.90487 
       0.809972         13.6874         8.75024 
       0.816124         13.5429         8.59898 
       0.822261         13.3783         8.45175 
       0.828378         13.2342         8.30844 
       0.834502         13.0833         8.16836 
       0.840667         12.9234         8.03064 
       0.846816         12.6449          7.8965 
       0.852925         12.6045          7.7663 
       0.859047         12.4299         7.63878 
       0.865192         12.2546         7.51373 
       0.871341         12.1064         7.39142 
       0.877463         11.9438         7.27241 
       0.883569         11.8582         7.15634 
       0.889708          11.662         7.04223 
       0.895864         11.5093         6.93034 
       0.902008         11.3907         6.82114 
       0.908149         11.2161         6.71437 
       0.914301         11.1345         6.60973 
       0.920448         10.9936         6.50744 
       0.926574         10.9166          6.4077 
       0.932687          10.737         6.31026 
       0.938823         10.5855         6.21453 
       0.944975           10.53         6.12057 
       0.951105         10.4029         6.02891 
       0.957225         10.3184         5.93929 
       0.963368         10.1556         5.85121 
       0.969511         10.0472         5.76492 
       0.975621         9.95835         5.68085 
       0.981748         9.82531         5.59824 
       0.987916         9.75308         5.51677 
        0.99406         9.62436         5.43724 
        1.00019         9.55313         5.35945 
        1.00632         9.48681         5.28325 
        1.01246         9.34642         5.20844 
        1.01859         9.25994          5.1352 
        1.02471         9.14833         5.06348 
        1.03085         9.09415         4.99288 
        1.03698         9.01115         4.92379 
        1.04314         8.88968         4.85572 
        1.04929         8.78125          4.7891 
        1.05541          8.7175         4.72401 
        1.06154         8.63722         4.65997 
        1.06769         8.57001         4.59704 
        1.07382         8.44639         4.53548 
        1.07993         8.37592         4.47519 
        1.08607         8.31819         4.41576 
        1.09222         8.21545         4.35736 
        1.09836         8.15933         4.30009 
        1.10449         8.07378         4.24393 
        1.11063         8.02798         4.18871 
        1.11677         7.96474          4.1345 
         1.1229         7.87738         4.08135 
        1.12903         7.80506          4.0291 
        1.13518         7.71909         3.97772 
        1.14131         7.66553         3.92728 
        1.14745         7.54988         3.87774 
        1.15359            7.48         3.82906 
        1.15973         7.43294         3.78119 
        1.16584         7.36098         3.73436 
        1.17197         7.28571         3.68827 
        1.17811         7.23619         3.64281 
        1.18424         7.18421         3.59826 
        1.19038          7.1464         3.55433 
        1.19652         7.06044         3.51115 
        1.20267          7.0236         3.46869 
        1.20881         6.92603         3.42694 
        1.21495         6.88521         3.38596 
        1.22108         6.82508         3.34565 
         1.2272         6.76493         3.30609 
        1.23334         6.73669         3.26709 
        1.23949         6.66553         3.22863 
        1.24562         6.60939         3.19089 
        1.25174          6.5741         3.15382 
        1.25789          6.4944         3.11723 
        1.26402         6.45311         3.08129 
        1.27014         6.42254           3.046 
        1.27628         6.34506         3.01117 
        1.28244         6.32443         2.97681 
        1.28858         6.25571         2.94304 
        1.29471         6.19129         2.90987 
        1.30084         6.14504         2.87725 
        1.30697         6.12041         2.84508 
        1.31312         6.06597         2.81335 
        1.31925         6.02718         2.78221 
        1.32537         5.97284         2.75158 
        1.33151         5.92462          2.7213 
        1.33765         5.88363          2.6915 
        1.34378         5.86675          2.6622 
        1.34992         5.80843         2.63333 
        1.35606         5.75396         2.60482 
         1.3622         5.70728         2.57679 
        1.36833         5.68425         2.54923 
        1.37445         5.63372          2.5221 
        1.38059         5.57993         2.49528 
        1.38675         5.55418         2.46879 
        1.39288         5.51666         2.44279 
        1.39901         5.46135         2.41718 
        1.40515         5.43007         2.39188 
         1.4113         5.39155         2.36695 
        1.41742          5.3673         2.34248 
        1.42355         5.31195         2.31831 
         1.4297         5.27329          2.2944 
        1.43585         5.25136         2.27085 
        1.44198         5.22117         2.24772 
        1.44809         5.17761         2.22495 
        1.45423         5.13802         2.20242 
        1.46036         5.10893         2.18024 
        1.46649         5.07599         2.15836 
        1.47263         5.04094         2.13676 
        1.47877         5.00023         2.11547 
        1.48491         4.98632         2.09444 
        1.49104         4.94708         2.07373 
        1.49718         4.91879          2.0533 
        1.50333         4.87916          2.0331 
        1.50947         4.84781         2.01322 
         1.5156         4.82303         1.99364 
        1.52172         4.78112         1.97432 
        1.52787         4.76968         1.95522 
          1.534         4.72433         1.93639 
        1.54013         4.70921         1.91783 
        1.54627         4.66726         1.89948 
        1.55241         4.63002         1.88137 
        1.55855         4.61736         1.86353 
        1.56467         4.60174         1.84596 
         1.5708         4.54922         1.82857 
        1.57695         4.52026         1.81139 
        1.58308         4.49345         1.79446 
        1.58922         4.47796         1.77774 
        1.59535         4.45583         1.76123 
         1.6015         4.40295         1.74492 
        1.60764         4.38645         1.72882 
        1.61376         4.36501         1.71297 
        1.61989         4.33215         1.69731 
        1.62604         4.31925          1.6818 
        1.63218         4.28997         1.66651 
        1.63831         4.26396         1.65144 
        1.64444          4.2325         1.63654 
        1.65059         4.21041          1.6218 
        1.65673         4.19312         1.60726 
        1.66285         4.16512         1.59294 
        1.66898         4.14986         1.57878 
        1.67512         4.12355         1.56478 
        1.68127         4.08178         1.55093 
         1.6874         4.07019         1.53728 
        1.69353         4.03834          1.5238 
        1.69967         4.02244         1.51045 
        1.70581         3.99672         1.49727 
        1.71193          3.9741         1.48429 
        1.71806         3.95168         1.47145 
        1.72421         3.92994         1.45873 
        1.73035         3.91501         1.44617 
        1.73649         3.89499         1.43377 
        1.74262         3.86254         1.42152 
        1.74876         3.85224          1.4094 
        1.75489         3.83148         1.39746 
        1.76101         3.79675         1.38565 
        1.76715          3.7965         1.37397 
        1.77329         3.76651          1.3624 
        1.77943         3.73601         1.35097 
        1.78557         3.73464         1.33968 
        1.79171         3.70648         1.32852 
        1.79785         3.69494         1.31749 
        1.80399         3.66869         1.30659 
        1.81012         3.64935         1.29582 
        1.81625         3.62762         1.28518 
        1.82239           3.614         1.27464 
        1.82853         3.58655         1.26423 
        1.83466          3.5623         1.25394 
        1.84078         3.54748         1.24378 
        1.84692         3.53182         1.23372 
        1.85306         3.51411         1.22375 
         1.8592         3.50038         1.21391 
        1.86533         3.48235         1.20419 
        1.87147         3.46966         1.19456 
        1.87761         3.44803         1.18503 
        1.88375            3.43         1.17562 
        1.88988         3.41482         1.16632 
        1.89601         3.38858         1.15712 
        1.90215         3.37689         1.14801 
        1.90829         3.36676           1.139 
        1.91442         3.34813         1.13009 
        1.92056         3.33696         1.12128 
         1.9267         3.31425         1.11256 
        1.93284         3.29927         1.10392 
        1.93897         3.28002         1.09539 
        1.94509         3.25031         1.08697 
        1.95123         3.25332         1.07862 
        1.95737          3.2368         1.07035 
        1.96349         3.21931         1.06219 
        1.96964         3.19772         1.05409 
        1.97578         3.18645         1.04608 
        1.98192         3.16929         1.03816 
        1.98805         3.15794         1.03032 
        1.99419         3.14225         1.02256 
        2.00033         3.12033         1.01488 
        2.00647         3.11679         1.00728 
         2.0126         3.10094        0.999776 
        2.01874         3.08142        0.992333 
        2.02488         3.07575         0.98496 
        2.03101         3.05116        0.977675 
        2.03714         3.03646        0.970471 
        2.04328         3.02715        0.963332 
        2.04941         3.00921         0.95627 
        2.05554         2.99908        0.949285 
        2.06167          2.9923         0.94236 
        2.06781         2.97368        0.935503 
        2.07396         2.95756        0.928705 
        2.08009         2.94729        0.921987 
        2.08622         2.93936        0.915342 
        2.09237         2.92375        0.908751 
        2.09851         2.90551        0.902223 
        2.10464         2.89674        0.895771 
        2.11077         2.88189        0.889389 
        2.11691         2.87032        0.883056 
        2.12305         2.85896        0.876784 
        2.12918         2.84611        0.870588 
        2.13531         2.83565        0.864451 
        2.14145         2.82036         0.85836 
         2.1476         2.80435        0.852321 
        2.15372         2.79122         0.84637 
        2.15985         2.78682         0.84047 
        2.16599         2.77361        0.834609 
        2.17213         2.76883        0.828811 
        2.17827         2.74398        0.823069 
         2.1844         2.74119        0.817387 
        2.19054         2.72945        0.811757 
        2.19666         2.71771        0.806188 
         2.2028          2.6975        0.800667 
        2.20893         2.69909        0.795195 
        2.21508         2.67847        0.789767 
        2.22122         2.66706        0.784389 
        2.22736         2.65404        0.779072 
        2.23349         2.64419        0.773806 
        2.23962         2.63468        0.768586 
        2.24577         2.62301         0.76341 
         2.2519           2.623        0.758288 
        2.25802         2.59407        0.753222 
        2.26417         2.59091        0.748188 
        2.27031         2.57941        0.743196 
        2.27644         2.57083        0.738264 
        2.28257         2.56036        0.733377 
        2.28872         2.54652        0.728525 
        2.29486         2.53771        0.723718 
        2.30099         2.52995        0.718964 
        2.30712         2.51801        0.714251 
        2.31326         2.51177        0.709572 
         2.3194         2.49605        0.704938 
        2.32553         2.48964        0.700353 
        2.33166         2.47784        0.695811 
         2.3378         2.47219        0.691303 
        2.34394         2.45692        0.686834 
        2.35007         2.44934        0.682411 
        2.35619         2.44497        0.678032 
        2.36233         2.43164        0.673682 
        2.36848         2.42104         0.66936 
        2.37462         2.41448        0.665086 
        2.38075         2.40412        0.660853 
        2.38689          2.3967        0.656654 
        2.39303         2.38583        0.652492 
        2.39916         2.37699        0.648371 
        2.40529         2.36643        0.644285 
        2.41143          2.3633        0.640232 
        2.41757         2.35374        0.636212 
         2.4237         2.34332        0.632234 
        2.42983         2.33258         0.62829 
        2.43598         2.32582         0.62437 
        2.44211         2.31342        0.620489 
        2.44823         2.30704        0.616651 
        2.45437          2.2977        0.612834 
        2.46052         2.29249        0.609047 
        2.46665          2.2809        0.605298 
        2.47279         2.27361        0.601582 
        2.47892         2.26643        0.597895 
        2.48507         2.25596        0.594235 
         2.4912          2.2484        0.590613 
