# k  (h/Mpc)    P(k)  (Mpc/h)^3    P_linear(k)  (Mpc/h)^3
     0.00783031          83.632         84.3166 
       0.013688         105.441          105.81 
       0.019231         108.553         108.574 
      0.0249154         101.389         101.578 
      0.0312784          89.024         88.9362 
      0.0375637         76.5992         76.3858 
      0.0433917         67.0286         66.8897 
      0.0492413         60.0632          59.906 
      0.0555754         54.7597         54.6975 
      0.0619321         51.0347         50.8932 
       0.067871         47.7055         47.6885 
      0.0738098         44.2189         44.2258 
      0.0800417         40.1041         40.1331 
      0.0862327         35.8458         35.8263 
      0.0921407         31.9391         31.8916 
      0.0982031         28.4361         28.4052 
       0.104506         25.6745         25.5897 
       0.110769         23.6695         23.6037 
       0.116806         22.2926         22.2809 
       0.122832         21.3172         21.2848 
       0.129052         20.3223          20.329 
       0.135211         19.2425         19.2614 
       0.141259         18.0341         18.0278 
       0.147318         16.6896         16.6576 
       0.153489         15.2692         15.2489 
       0.159709         13.9782         13.9551 
       0.165845         12.9545         12.8984 
       0.171974         12.1073         12.0904 
       0.178125          11.516         11.4961 
       0.184229         11.0757         11.0489 
        0.19034         10.6515         10.6576 
       0.196428         10.2585         10.2509 
       0.202534         9.81805         9.78469 
       0.208729         9.26459         9.24919 
       0.214876         8.68631          8.6854 
       0.220989         8.17055         8.13729 
       0.227147         7.64533         7.63952 
        0.23329         7.22895         7.22209 
       0.239377         6.89885         6.88992 
       0.245482         6.62581         6.62372 
       0.251667          6.4125         6.39657 
       0.257832         6.19047         6.18408 
       0.263955          5.9747         5.96518 
       0.270079          5.7397         5.72808 
        0.27624         5.49635          5.4729 
       0.282372         5.23651         5.21369 
        0.28843           4.979          4.9664 
       0.294538         4.75283         4.73855 
       0.300721         4.56059         4.53681 
        0.30691         4.37749         4.36424 
       0.313033         4.23066         4.21703 
       0.319153         4.08092         4.08444 
       0.325316         3.97657         3.95664 
        0.33145         3.84447         3.82848 
       0.337538         3.71173          3.6973 
       0.343633         3.57298         3.56296 
       0.349808         3.44179         3.42723 
       0.355968         3.31394         3.29696 
       0.362074         3.19065         3.17652 
       0.368217         3.08089         3.06648 
       0.374374         2.97398         2.96704 
       0.380519         2.89073         2.87687 
       0.386598          2.8096         2.79384 
       0.392688          2.7328         2.71377 
        0.39888         2.64881         2.63356 
       0.405048         2.56991          2.5538 
       0.411186         2.49203         2.47463 
       0.417313          2.4106         2.39706 
       0.423458         2.33975         2.32199 
       0.429607         2.26412          2.2507 
       0.435692         2.19808         2.18478 
       0.441815         2.13664         2.12291 
       0.447964          2.0838         2.06462 
       0.454126          2.0223          2.0093 
       0.460267          1.9681         1.95627 
       0.466387         1.91514         1.90463 
        0.47254          1.8653         1.85365 
       0.478662         1.81747         1.80394 
       0.484765         1.76658         1.75554 
       0.490885         1.72105         1.70851 
       0.497035          1.6809         1.66318 
       0.503198         1.63435         1.61998 
       0.509342         1.59581         1.57898 
       0.515458         1.55333         1.54001 
       0.521598         1.51634         1.50251 
       0.527764         1.47712          1.4662 
       0.533884         1.44689         1.43122 
           0.54         1.41144         1.39709 
       0.546137         1.37934         1.36366 
       0.552299         1.34574         1.33101 
       0.558452         1.31164         1.29944 
       0.564573         1.28304          1.2691 
       0.570708         1.25385         1.23977 
       0.576825         1.22442         1.21158 
       0.582926         1.19975         1.18451 
       0.589034         1.16838         1.15836 
       0.595184         1.14388         1.13289 
       0.601379         1.11968         1.10799 
       0.607522         1.09744         1.08394 
       0.613639         1.07614          1.0606 
       0.619772         1.04976         1.03784 
       0.625918         1.02857         1.01569 
       0.632068         1.00854          0.9942 
       0.638161        0.986479        0.973569 
         0.6443        0.966266        0.953413 
       0.650464        0.944635        0.933784 
       0.656582        0.927316        0.914868 
       0.662703        0.909273        0.896484 
       0.668861        0.893172        0.878508 
       0.675024        0.873799        0.861013 
       0.681124        0.854993        0.844171 
       0.687237        0.840614         0.82774 
       0.693381        0.824997         0.81166 
       0.699536        0.806003        0.795973 
       0.705665        0.791378        0.780766 
       0.711789        0.778335        0.765971 
       0.717957        0.762322        0.751465 
        0.72409        0.749001        0.737425 
       0.730186        0.734662         0.72384 
       0.736317        0.723383        0.710534 
       0.742472        0.709785        0.697521 
       0.748622        0.696404        0.684851 
        0.75476        0.682739        0.672525 
       0.760888        0.670423        0.660522 
       0.767043           0.662        0.648763 
       0.773185        0.648448        0.637314 
       0.779291        0.637154        0.626206 
       0.785407        0.626656        0.615347 
       0.791564        0.616137        0.604678 
       0.797719        0.606238         0.59427 
       0.803834        0.596292        0.584174 
       0.809972        0.585706         0.57428 
       0.816124        0.575734        0.564597 
       0.822261        0.565531        0.555165 
       0.828378        0.557343         0.54598 
       0.834502        0.548829        0.536996 
       0.840667        0.538556        0.528159 
       0.846816        0.530124        0.519547 
       0.852925        0.523146        0.511183 
       0.859047         0.51482        0.502987 
       0.865192        0.505709        0.494945 
       0.871341        0.497607        0.487075 
       0.877463        0.491483        0.479413 
       0.883569        0.482779        0.471937 
       0.889708        0.475648        0.464582 
       0.895864        0.468099        0.457367 
       0.902008        0.460818        0.450322 
       0.908149        0.453697        0.443429 
       0.914301        0.445713        0.436671 
       0.920448        0.439778        0.430062 
       0.926574        0.432998        0.423613 
       0.932687        0.426369         0.41731 
       0.938823        0.421618        0.411115 
       0.944975         0.41522        0.405031 
       0.951105        0.409286        0.399094 
       0.957225         0.40437        0.393286 
       0.963368        0.398019        0.387575 
       0.969511        0.391605        0.381978 
       0.975621        0.385982        0.376522 
       0.981748        0.381796        0.371159 
       0.987916        0.376092        0.365868 
        0.99406         0.37056          0.3607 
        1.00019        0.366126        0.355643 
        1.00632        0.360078        0.350688 
        1.01246        0.354977        0.345821 
        1.01859         0.35092        0.341054 
        1.02471        0.346057        0.336383 
        1.03085        0.342277        0.331785 
        1.03698        0.336909        0.327282 
        1.04314         0.33262        0.322845 
        1.04929        0.327868          0.3185 
        1.05541        0.324202        0.314253 
        1.06154        0.319438        0.310074 
        1.06769        0.315021        0.305965 
        1.07382        0.311229        0.301944 
        1.07993        0.306937        0.298005 
        1.08607        0.304038         0.29412 
        1.09222          0.2995        0.290301 
        1.09836        0.296514        0.286555 
        1.10449        0.292684         0.28288 
        1.11063        0.288245        0.279265 
        1.11677        0.284521        0.275716 
         1.1229        0.281402        0.272234 
        1.12903        0.277633         0.26881 
        1.13518        0.274679        0.265442 
        1.14131        0.270979        0.262134 
        1.14745        0.266861        0.258884 
        1.15359        0.264357         0.25569 
        1.15973        0.260598        0.252548 
        1.16584         0.25834        0.249473 
        1.17197        0.255056        0.246446 
        1.17811        0.252436        0.243459 
        1.18424        0.249787        0.240531 
        1.19038        0.246276        0.237643 
        1.19652        0.242861        0.234804 
        1.20267        0.240874        0.232011 
        1.20881        0.237915        0.229264 
        1.21495        0.235563        0.226567 
        1.22108        0.232506        0.223913 
         1.2272        0.230226        0.221309 
        1.23334        0.227293        0.218739 
        1.23949        0.224739        0.216205 
        1.24562        0.222299        0.213718 
        1.25174        0.219922        0.211275 
        1.25789        0.217857        0.208862 
        1.26402        0.214686        0.206491 
        1.27014        0.212659        0.204163 
        1.27628        0.210537        0.201864 
        1.28244        0.207639        0.199596 
        1.28858        0.205734        0.197365 
        1.29471        0.204016        0.195175 
        1.30084        0.201325        0.193019 
        1.30697        0.199163        0.190893 
        1.31312        0.196546        0.188796 
        1.31925        0.194716        0.186737 
        1.32537        0.192895        0.184711 
        1.33151        0.191015        0.182708 
        1.33765        0.189066        0.180736 
        1.34378        0.186734        0.178797 
        1.34992        0.184858        0.176886 
        1.35606        0.183034        0.174998 
         1.3622        0.181209        0.173141 
        1.36833        0.179238        0.171316 
        1.37445         0.17697        0.169518 
        1.38059        0.175405        0.167741 
        1.38675        0.174288        0.165985 
        1.39288         0.17227        0.164261 
        1.39901        0.170439        0.162562 
        1.40515        0.169061        0.160884 
         1.4113        0.166886         0.15923 
        1.41742        0.165266        0.157606 
        1.42355        0.164018        0.156001 
         1.4297        0.162127        0.154414 
        1.43585        0.160658         0.15285 
        1.44198        0.159287        0.151314 
        1.44809        0.157482        0.149801 
        1.45423         0.15615        0.148304 
        1.46036        0.154491         0.14683 
        1.46649          0.1534        0.145375 
        1.47263        0.151701         0.14394 
        1.47877        0.149983        0.142524 
        1.48491        0.148806        0.141125 
        1.49104        0.147083        0.139747 
        1.49718        0.145737        0.138388 
        1.50333        0.144784        0.137044 
        1.50947         0.14311         0.13572 
         1.5156        0.141833        0.134417 
        1.52172        0.140572         0.13313 
        1.52787        0.139275        0.131858 
          1.534         0.13777        0.130604 
        1.54013        0.136576        0.129367 
        1.54627        0.135628        0.128145 
        1.55241        0.134099        0.126938 
        1.55855        0.132769        0.125748 
        1.56467        0.132119        0.124577 
         1.5708        0.130693        0.123417 
        1.57695        0.129502        0.122271 
        1.58308        0.128254        0.121142 
        1.58922        0.127242        0.120026 
        1.59535        0.126108        0.118925 
         1.6015         0.12488        0.117836 
        1.60764        0.123869        0.116761 
        1.61376        0.122641        0.115703 
        1.61989        0.121756        0.114657 
        1.62604        0.120779        0.113622 
        1.63218        0.119671          0.1126 
        1.63831        0.118666        0.111593 
        1.64444        0.117652        0.110598 
        1.65059        0.116643        0.109613 
        1.65673        0.115696        0.108641 
        1.66285         0.11492        0.107683 
        1.66898        0.113817        0.106737 
        1.67512         0.11269          0.1058 
        1.68127        0.111708        0.104874 
         1.6874        0.111019        0.103961 
        1.69353        0.109776        0.103059 
        1.69967        0.109298        0.102166 
        1.70581        0.107956        0.101284 
        1.71193        0.107201        0.100415 
        1.71806        0.106192       0.0995553 
        1.72421          0.1057       0.0987037 
        1.73035        0.104564       0.0978629 
        1.73649        0.103929       0.0970322 
        1.74262        0.103005       0.0962118 
        1.74876        0.102134       0.0954003 
        1.75489        0.101451       0.0945999 
        1.76101        0.100424       0.0938089 
        1.76715       0.0996676       0.0930259 
        1.77329       0.0987521       0.0922509 
        1.77943       0.0980967       0.0914844 
        1.78557       0.0974378       0.0907277 
        1.79171       0.0966623       0.0899795 
        1.79785       0.0958902       0.0892396 
        1.80399        0.095116       0.0885082 
        1.81012       0.0944264        0.087786 
        1.81625       0.0936442       0.0870722 
        1.82239       0.0928703       0.0863653 
        1.82853        0.092142       0.0856665 
        1.83466       0.0915224       0.0849762 
        1.84078       0.0908065       0.0842942 
        1.84692       0.0899906       0.0836187 
        1.85306       0.0894875       0.0829497 
         1.8592       0.0886351       0.0822891 
        1.86533       0.0881091        0.081636 
        1.87147       0.0873654       0.0809893 
        1.87761        0.086914       0.0803494 
        1.88375       0.0861667       0.0797171 
        1.88988       0.0854608       0.0790923 
        1.89601       0.0848112       0.0784739 
        1.90215       0.0841933       0.0778616 
        1.90829       0.0834924       0.0772562 
        1.91442       0.0831063       0.0766571 
        1.92056       0.0823352        0.076065 
         1.9267        0.081684       0.0754785 
        1.93284       0.0811421       0.0748978 
        1.93897       0.0805504       0.0743244 
        1.94509       0.0800692       0.0737582 
        1.95123        0.079388       0.0731965 
        1.95737       0.0788926       0.0726402 
        1.96349       0.0782561       0.0720912 
        1.96964       0.0776953       0.0715462 
        1.97578       0.0771383       0.0710066 
        1.98192       0.0766996       0.0704737 
        1.98805       0.0761247       0.0699462 
        1.99419       0.0754805       0.0694241 
        2.00033       0.0749522        0.068907 
        2.00647       0.0746052       0.0683954 
         2.0126       0.0738879       0.0678898 
        2.01874       0.0735593       0.0673886 
        2.02488       0.0730227        0.066892 
        2.03101       0.0725091       0.0664013 
        2.03714       0.0718657        0.065916 
        2.04328       0.0715666        0.065435 
        2.04941       0.0708869       0.0649593 
        2.05554       0.0705676       0.0644886 
        2.06167       0.0701792       0.0640219 
        2.06781        0.069531       0.0635598 
        2.07396       0.0691136       0.0631016 
        2.08009       0.0686081       0.0626487 
        2.08622       0.0682115       0.0622007 
        2.09237       0.0677583       0.0617563 
        2.09851       0.0672922       0.0613162 
        2.10464       0.0669184        0.060881 
        2.11077       0.0663764       0.0604507 
        2.11691       0.0659339       0.0600235 
        2.12305       0.0655157       0.0596004 
        2.12918       0.0651554       0.0591825 
        2.13531       0.0645998       0.0587685 
        2.14145       0.0641459       0.0583575 
         2.1476       0.0637978         0.05795 
        2.15372       0.0634932       0.0575484 
        2.15985       0.0629628       0.0571502 
        2.16599       0.0625548       0.0567546 
        2.17213       0.0621818       0.0563633 
        2.17827        0.061746       0.0559757 
         2.1844       0.0614559       0.0555921 
        2.19054       0.0610209        0.055212 
        2.19666       0.0605999       0.0548359 
         2.2028       0.0601753       0.0544631 
        2.20893       0.0599225       0.0540935 
        2.21508       0.0594712        0.053727 
        2.22122       0.0590404       0.0533637 
        2.22736       0.0587822       0.0530045 
        2.23349       0.0583751       0.0526488 
        2.23962       0.0581128       0.0522961 
        2.24577       0.0576547       0.0519463 
         2.2519       0.0573291       0.0516003 
        2.25802       0.0569578       0.0512579 
        2.26417       0.0566189       0.0509177 
        2.27031       0.0562069       0.0505803 
        2.27644         0.05589       0.0502469 
        2.28257       0.0555857       0.0499165 
        2.28872       0.0552526       0.0495885 
        2.29486       0.0549928       0.0492634 
        2.30099       0.0546009        0.048942 
        2.30712       0.0541821       0.0486233 
        2.31326       0.0538696       0.0483069 
         2.3194       0.0536854       0.0479935 
        2.32553        0.053301       0.0476834 
        2.33166       0.0530791       0.0473762 
         2.3378       0.0527473       0.0470712 
        2.34394       0.0523733       0.0467689 
        2.35007       0.0520269       0.0464696 
        2.35619       0.0516515       0.0461734 
        2.36233       0.0514679        0.045879 
        2.36848       0.0512505       0.0455865 
        2.37462       0.0508404       0.0452973 
        2.38075       0.0505538       0.0450108 
        2.38689       0.0502637       0.0447266 
        2.39303       0.0500335       0.0444448 
        2.39916       0.0497074       0.0441658 
        2.40529        0.049464       0.0438892 
        2.41143       0.0491054       0.0436148 
        2.41757       0.0488444       0.0433426 
         2.4237       0.0486444       0.0430732 
        2.42983       0.0483932       0.0428062 
        2.43598       0.0481409       0.0425407 
        2.44211        0.047759       0.0422779 
        2.44823       0.0475388       0.0420179 
        2.45437       0.0472323       0.0417593 
        2.46052       0.0470175       0.0415028 
        2.46665       0.0466909       0.0412488 
        2.47279       0.0464481       0.0409971 
        2.47892       0.0461152       0.0407472 
        2.48507       0.0459022       0.0404993 
         2.4912       0.0456724       0.0402538 
