# k  (h/Mpc)    Pcb(k)  (Mpc/h)^3    Pcb_linear(k)  (Mpc/h)^3
     0.00783031         7186.24         7273.89 
       0.013688         8975.74         8931.14 
       0.019231         9032.27         9017.34 
      0.0249154         8204.38         8316.64 
      0.0312784         7132.29          7172.6 
      0.0375637         6081.83         6069.28 
      0.0433917         5195.35          5243.7 
      0.0492413         4632.35         4640.87 
      0.0555754          4126.1          4198.3 
      0.0619321         3910.56         3888.18 
       0.067871          3587.2         3641.04 
      0.0738098         3329.33         3381.61 
      0.0800417          3003.6         3073.81 
      0.0862327         2707.48         2742.97 
      0.0921407         2430.47          2432.7 
      0.0982031          2140.6         2150.38 
       0.104506          1956.5         1916.54 
       0.110769          1786.3         1748.73 
       0.116806         1662.87         1638.02 
       0.122832         1590.59         1559.81 
       0.129052          1495.3         1492.21 
       0.135211         1425.74         1421.07 
       0.141259         1359.95         1338.13 
       0.147318         1274.28          1242.1 
       0.153489         1163.29         1138.19 
       0.159709         1080.58         1037.69 
       0.165845          1015.5         951.547 
       0.171974         942.877         883.072 
       0.178125         893.946         831.974 
       0.184229         857.175         795.009 
        0.19034         806.161         765.969 
       0.196428         792.932         739.045 
       0.202534         769.162         709.547 
       0.208729         729.878         674.978 
       0.214876         688.955         636.658 
       0.220989         661.843         597.062 
       0.227147         622.193         558.833 
        0.23329         592.439         524.978 
       0.239377         574.738         497.029 
       0.245482         536.292         474.565 
       0.251667         529.922         456.302 
       0.257832          512.11         440.783 
       0.263955         495.185         426.177 
       0.270079         477.369         410.971 
        0.27624         469.973         394.473 
       0.282372         450.456         376.997 
        0.28843          435.38         359.411 
       0.294538         414.523         342.288 
       0.300721         409.373         326.392 
        0.30691         389.838         312.413 
       0.313033         380.831           300.5 
       0.319153          366.76         290.198 
       0.325316         357.332         280.875 
        0.33145         346.137         272.088 
       0.337538         341.236         263.391 
       0.343633         329.837         254.496 
       0.349808         319.173         245.293 
       0.355968         314.272         236.106 
       0.362074         306.344         227.273 
       0.368217         297.841         218.896 
       0.374374         287.181         211.192 
       0.380519         282.825         204.209 
       0.386598         275.619         197.927 
       0.392688          272.32         192.103 
        0.39888         265.014         186.472 
       0.405048         258.975         181.016 
       0.411186         253.357         175.641 
       0.417313         248.302         170.302 
       0.423458         243.275         165.029 
       0.429607         237.716         159.895 
       0.435692         230.851         155.027 
       0.441815          229.08         150.404 
       0.447964         224.773         146.051 
       0.454126         215.749         141.957 
       0.460267         213.229          138.11 
       0.466387         210.514         134.453 
        0.47254         205.997         130.893 
       0.478662         204.549         127.438 
       0.484765         198.339         124.072 
       0.490885         195.482         120.769 
       0.497035         192.717         117.537 
       0.503198         187.822         114.413 
       0.509342         185.358         111.428 
       0.515458         182.779         108.589 
       0.521598         179.898         105.864 
       0.527764         177.229         103.249 
       0.533884         174.602         100.757 
           0.54         171.796         98.3522 
       0.546137         170.575          96.007 
       0.552299         167.449         93.7138 
       0.558452          164.73         91.4873 
       0.564573         161.944         89.3356 
       0.570708          159.27         87.2439 
       0.576825         157.292         85.2255 
       0.582926         154.642         83.2812 
       0.589034         152.543         81.4048 
       0.595184         150.811         79.5837 
       0.601379         149.136         77.8123 
       0.607522         145.811         76.1108 
       0.613639         145.272         74.4649 
       0.619772          142.11         72.8602 
       0.625918         140.666         71.2968 
       0.632068         139.069         69.7765 
       0.638161         137.846         68.3132 
         0.6443          135.94         66.8811 
       0.650464         134.455         65.4854 
       0.656582         132.731         64.1406 
       0.662703         130.772         62.8348 
       0.668861         129.006         61.5602 
       0.675024         127.587         60.3218 
       0.681124         126.606         59.1311 
       0.687237         124.316         57.9705 
       0.693381         122.748         56.8353 
       0.699536          121.71         55.7275 
       0.705665          121.93         54.6531 
       0.711789         118.848         53.6074 
       0.717957         118.415         52.5818 
        0.72409         116.691          51.589 
       0.730186         114.801         50.6286 
       0.736317         114.371         49.6883 
       0.742472         113.409         48.7693 
       0.748622         112.334         47.8749 
        0.75476         111.239         47.0052 
       0.760888         109.654         46.1586 
       0.767043         108.879         45.3294 
       0.773185         107.673         44.5223 
       0.779291         106.444         43.7392 
       0.785407         105.734         42.9738 
       0.791564         104.653         42.2219 
       0.797719         103.095         41.4885 
       0.803834         102.645         40.7773 
       0.809972         101.167         40.0805 
       0.816124         100.803         39.3987 
       0.822261         99.8296         38.7347 
       0.828378         98.9295         38.0883 
       0.834502          98.251         37.4562 
       0.840667         97.0992         36.8346 
       0.846816         96.0275         36.2288 
       0.852925         95.2967         35.6407 
       0.859047         94.1077         35.0643 
       0.865192         93.6899         34.4989 
       0.871341         92.9143         33.9457 
       0.877463         91.7349         33.4071 
       0.883569         91.1376         32.8816 
       0.889708         90.5534         32.3648 
       0.895864         89.7849         31.8578 
       0.902008         89.0241         31.3629 
       0.908149         88.4994         30.8787 
       0.914301         87.5679         30.4041 
       0.920448         86.9892           29.94 
       0.926574         86.2778         29.4872 
       0.932687         85.9813         29.0448 
       0.938823         84.6153         28.6099 
       0.944975         84.0774          28.183 
       0.951105         83.4673         27.7664 
       0.957225         82.4701          27.359 
       0.963368         82.1953         26.9585 
       0.969511         81.8061          26.566 
       0.975621         81.3384         26.1834 
       0.981748         80.5283         25.8075 
       0.987916         79.8553         25.4366 
        0.99406         79.3605         25.0744 
        1.00019         78.5959         24.7201 
        1.00632           78.21          24.373 
        1.01246         77.5353          24.032 
        1.01859         76.5237         23.6982 
        1.02471         76.7255         23.3712 
        1.03085         75.8846         23.0492 
        1.03698         75.3738          22.734 
        1.04314         74.6423         22.4234 
        1.04929         74.2305         22.1194 
        1.05541         73.5765         21.8222 
        1.06154         73.4112         21.5298 
        1.06769         72.8709         21.2424 
        1.07382         72.5514         20.9611 
        1.07993         72.0805         20.6856 
        1.08607         71.4427          20.414 
        1.09222         71.0806          20.147 
        1.09836         70.5595          19.885 
        1.10449         70.1293         19.6281 
        1.11063         69.5729         19.3754 
        1.11677         69.1719         19.1273 
         1.1229         68.6288          18.884 
        1.12903         67.8308         18.6447 
        1.13518         68.0919         18.4094 
        1.14131         67.5844         18.1782 
        1.14745         66.7773         17.9512 
        1.15359         66.6044         17.7281 
        1.15973         66.0706         17.5086 
        1.16584         65.6532         17.2939 
        1.17197          65.266         17.0825 
        1.17811         64.9484          16.874 
        1.18424         64.3541         16.6695 
        1.19038         64.0279         16.4679 
        1.19652         63.7986         16.2697 
        1.20267         63.2457         16.0748 
        1.20881         62.9337         15.8832 
        1.21495         62.4221         15.6949 
        1.22108         62.1151         15.5098 
         1.2272         61.5499         15.3281 
        1.23334          61.334         15.1489 
        1.23949         61.1471         14.9722 
        1.24562         60.7042         14.7987 
        1.25174         60.4181         14.6283 
        1.25789         60.1137         14.4601 
        1.26402         59.6532         14.2948 
        1.27014         59.1158         14.1326 
        1.27628         58.9667         13.9723 
        1.28244         58.4831         13.8143 
        1.28858         58.2457         13.6589 
        1.29471         58.0476         13.5062 
        1.30084         57.6802         13.3561 
        1.30697         57.2687          13.208 
        1.31312         56.8955         13.0619 
        1.31925         56.7677         12.9185 
        1.32537         56.4693         12.7775 
        1.33151         55.9238          12.638 
        1.33765         55.7746         12.5007 
        1.34378         55.4295         12.3657 
        1.34992          55.051         12.2326 
        1.35606         54.7633         12.1012 
         1.3622         54.3929          11.972 
        1.36833         54.2021         11.8449 
        1.37445         54.0063         11.7198 
        1.38059         53.5938         11.5961 
        1.38675         53.2752         11.4739 
        1.39288         53.0446         11.3539 
        1.39901         52.7965         11.2357 
        1.40515         52.5024          11.119 
         1.4113         52.3053         11.0039 
        1.41742         51.9905         10.8909 
        1.42355         51.6471         10.7793 
         1.4297         51.4059         10.6689 
        1.43585         51.1607         10.5602 
        1.44198         50.8959         10.4533 
        1.44809         50.6712         10.3481 
        1.45423         50.4417          10.244 
        1.46036         50.1949         10.1416 
        1.46649         49.8794         10.0405 
        1.47263         49.5874         9.94065 
        1.47877         49.4511         9.84225 
        1.48491          49.301         9.74503 
        1.49104         48.8834         9.64933 
        1.49718         48.4556         9.55485 
        1.50333         48.3853         9.46148 
        1.50947         48.1656         9.36956 
         1.5156         47.8678           9.279 
        1.52172         47.6911         9.18964 
        1.52787         47.5975         9.10128 
          1.534         47.2556         9.01419 
        1.54013         46.9798         8.92833 
        1.54627         46.8271         8.84344 
        1.55241         46.5006         8.75964 
        1.55855         46.2635         8.67705 
        1.56467         45.8863         8.59575 
         1.5708         45.9207         8.51526 
        1.57695         45.6242         8.43568 
        1.58308         45.4222          8.3573 
        1.58922         45.3829         8.27987 
        1.59535         45.0962         8.20344 
         1.6015         44.7122         8.12788 
        1.60764         44.5639          8.0533 
        1.61376         44.3503         7.97987 
        1.61989         44.0238         7.90729 
        1.62604         43.9661         7.83545 
        1.63218         43.8086         7.76455 
        1.63831         43.5482          7.6947 
        1.64444         43.3338         7.62568 
        1.65059         43.0127         7.55734 
        1.65673         42.8403         7.48992 
        1.66285         42.6616          7.4235 
        1.66898         42.4233         7.35788 
        1.67512         42.2479         7.29292 
        1.68127         41.9933         7.22869 
         1.6874         41.9061         7.16537 
        1.69353         41.6251         7.10285 
        1.69967         41.4462         7.04093 
        1.70581         41.3889         6.97978 
        1.71193         41.1337         6.91959 
        1.71806         40.8176         6.85997 
        1.72421         40.6739         6.80095 
        1.73035         40.4638         6.74268 
        1.73649         40.2094         6.68512 
        1.74262         40.1352         6.62827 
        1.74876         40.0569         6.57205 
        1.75489          39.767         6.51659 
        1.76101         39.5935         6.46179 
        1.76715         39.4139         6.40755 
        1.77329         39.2171         6.35387 
        1.77943         39.0895         6.30078 
        1.78557           38.89         6.24837 
        1.79171         38.6615         6.19655 
        1.79785         38.4864         6.14531 
        1.80399         38.3856         6.09466 
        1.81012         38.2146         6.04465 
        1.81625         37.9207         5.99522 
        1.82239         37.8345         5.94628 
        1.82853         37.5482          5.8979 
        1.83466         37.4816          5.8501 
        1.84078         37.1805         5.80289 
        1.84692         37.0918         5.75612 
        1.85306         36.9138         5.70981 
         1.8592         36.7402         5.66408 
        1.86533         36.5699         5.61888 
        1.87147         36.4542         5.57412 
        1.87761         36.3387         5.52983 
        1.88375         36.1299         5.48607 
        1.88988         36.0553         5.44283 
        1.89601         35.8031         5.40004 
        1.90215         35.6867         5.35767 
        1.90829         35.6069         5.31578 
        1.91442         35.3551         5.27433 
        1.92056         35.2637         5.23336 
         1.9267          34.984         5.19279 
        1.93284          34.818         5.15262 
        1.93897         34.7634         5.11295 
        1.94509         34.5427         5.07379 
        1.95123         34.4438         5.03493 
        1.95737         34.2241         4.99646 
        1.96349         34.1033         4.95849 
        1.96964          33.942          4.9208 
        1.97578         33.8399         4.88349 
        1.98192         33.6406         4.84664 
        1.98805         33.5375         4.81017 
        1.99419         33.3149         4.77407 
        2.00033         33.1767         4.73832 
        2.00647         33.0643         4.70295 
         2.0126         32.9111           4.668 
        2.01874         32.8055         4.63336 
        2.02488         32.7144         4.59903 
        2.03101         32.4744         4.56512 
        2.03714         32.3475         4.53158 
        2.04328         32.1842         4.49834 
        2.04941         32.0898         4.46546 
        2.05554         31.9065         4.43293 
        2.06167         31.8103         4.40069 
        2.06781         31.6549         4.36876 
        2.07396         31.5237          4.3371 
        2.08009         31.4233         4.30581 
        2.08622         31.2499         4.27486 
        2.09237         31.1054         4.24416 
        2.09851         30.9555         4.21375 
        2.10464         30.9062         4.18369 
        2.11077         30.6931         4.15396 
        2.11691         30.6015         4.12446 
        2.12305         30.4635         4.09524 
        2.12918         30.4288         4.06637 
        2.13531         30.2336         4.03778 
        2.14145         30.1669         4.00939 
         2.1476          29.945         3.98125 
        2.15372         29.8064         3.95352 
        2.15985            29.7         3.92602 
        2.16599         29.6541         3.89871 
        2.17213         29.5489         3.87169 
        2.17827         29.2828         3.84493 
         2.1844         29.1879         3.81844 
        2.19054         29.0581          3.7922 
        2.19666         28.9645         3.76624 
         2.2028         28.8579          3.7405 
        2.20893         28.7681         3.71499 
        2.21508         28.6274         3.68968 
        2.22122          28.433         3.66461 
        2.22736          28.391         3.63982 
        2.23349         28.2578         3.61527 
        2.23962         28.1184         3.59092 
        2.24577         27.9778         3.56679 
         2.2519         27.9114          3.5429 
        2.25802         27.7652         3.51928 
        2.26417          27.693          3.4958 
        2.27031         27.5982         3.47252 
        2.27644         27.4183         3.44951 
        2.28257          27.322         3.42672 
        2.28872         27.1911         3.40409 
        2.29486         27.1442         3.38166 
        2.30099          27.009         3.35949 
        2.30712         26.9205          3.3375 
        2.31326         26.8353         3.31568 
         2.3194         26.6933         3.29406 
        2.32553         26.5424         3.27267 
        2.33166         26.4271         3.25148 
         2.3378         26.3241         3.23045 
        2.34394         26.2073          3.2096 
        2.35007         26.0986         3.18896 
        2.35619         26.0313         3.16853 
        2.36233         25.9675         3.14822 
        2.36848         25.7635         3.12806 
        2.37462         25.6878         3.10811 
        2.38075         25.5989         3.08836 
        2.38689         25.5325         3.06876 
        2.39303         25.3717         3.04934 
        2.39916         25.2446          3.0301 
        2.40529         25.1451         3.01103 
        2.41143          25.064         2.99212 
        2.41757         24.9708         2.97335 
         2.4237         24.8439         2.95478 
        2.42983         24.7551         2.93637 
        2.43598         24.6694         2.91807 
        2.44211         24.5529         2.89996 
        2.44823         24.4194         2.88204 
        2.45437         24.3602         2.86422 
        2.46052         24.2636         2.84654 
        2.46665         24.1906         2.82904 
        2.47279         24.0629         2.81169 
        2.47892         23.9547         2.79447 
        2.48507         23.8699         2.77738 
         2.4912         23.8119         2.76047 
