# k  (h/Mpc)    P(k)  (Mpc/h)^3    P_linear(k)  (Mpc/h)^3
     0.00783031         2392.79         2423.37 
       0.013688          2971.5            2973 
       0.019231         3000.58         3000.67 
      0.0249154         2744.23         2766.98 
      0.0312784         2380.65         2386.06 
      0.0375637         2024.17         2018.88 
      0.0433917         1738.37         1744.18 
      0.0492413         1544.97         1543.61 
      0.0555754          1385.9         1396.37 
      0.0619321         1300.84         1293.19 
       0.067871         1203.78         1210.98 
      0.0738098         1117.17         1124.68 
      0.0800417          1011.3          1022.3 
      0.0862327         907.852          912.26 
      0.0921407         809.433         809.065 
      0.0982031         713.304         715.169 
       0.104506         644.654         637.395 
       0.110769         588.041         581.582 
       0.116806          547.05         544.763 
       0.122832         523.535         518.751 
       0.129052         496.012         496.265 
       0.135211         472.262         472.605 
       0.141259         447.968         445.021 
       0.147318         418.351         413.085 
       0.153489         382.204         378.528 
       0.159709         351.055         345.105 
       0.165845         326.504         316.455 
       0.171974         301.138         293.681 
       0.178125         285.093         276.687 
       0.184229         273.291         264.394 
        0.19034         259.084         254.736 
       0.196428         252.954         245.782 
       0.202534         245.252         235.971 
       0.208729         232.215         224.475 
       0.214876         218.213         211.731 
       0.220989         208.026         198.562 
       0.227147         193.635         185.849 
        0.23329          183.06         174.589 
       0.239377          175.37         165.294 
       0.245482         165.232         157.824 
       0.251667         161.556          151.75 
       0.257832         156.164         146.589 
       0.263955         150.889         141.732 
       0.270079         145.596         136.675 
        0.27624         141.794         131.188 
       0.282372         135.886         125.376 
        0.28843          129.56         119.527 
       0.294538         123.779         113.833 
       0.300721         120.228         108.547 
        0.30691         114.424         103.897 
       0.313033         110.758         99.9351 
       0.319153         105.716         96.5094 
       0.325316         104.039         93.4091 
        0.33145         100.354         90.4868 
       0.337538         98.0501         87.5945 
       0.343633          94.623         84.6368 
       0.349808         91.7448         81.5756 
       0.355968         89.0443         78.5204 
       0.362074         85.9884         75.5827 
       0.368217         83.3131         72.7966 
       0.374374         80.6599          70.235 
       0.380519         78.5736         67.9125 
       0.386598         76.4271         65.8232 
       0.392688         74.8605         63.8864 
        0.39888         72.7371         62.0137 
       0.405048         71.0238         60.1994 
       0.411186         69.3434         58.4117 
       0.417313         67.1307         56.6362 
       0.423458         65.4296         54.8828 
       0.429607         63.6452         53.1753 
       0.435692         61.5649         51.5564 
       0.441815         60.6292         50.0191 
       0.447964         59.5575         48.5713 
       0.454126         57.0973         47.2096 
       0.460267         56.1964         45.9306 
       0.466387         54.6809         44.7141 
        0.47254         53.8307         43.5302 
       0.478662         52.9216         42.3813 
       0.484765         51.3512         41.2618 
       0.490885           50.22         40.1633 
       0.497035         49.5571         39.0886 
       0.503198         48.2154         38.0494 
       0.509342         46.9671         37.0569 
       0.515458         46.0677         36.1126 
       0.521598         45.3114         35.2066 
       0.527764         44.4068         34.3368 
       0.533884         43.6463         33.5081 
           0.54         42.7135         32.7084 
       0.546137         42.0849         31.9284 
       0.552299         41.4193         31.1658 
       0.558452         40.1633         30.4253 
       0.564573         39.5428         29.7097 
       0.570708         38.9533         29.0141 
       0.576825         38.0506         28.3429 
       0.582926          37.315         27.6963 
       0.589034         36.3899         27.0722 
       0.595184         35.9394         26.4666 
       0.601379         35.3136         25.8775 
       0.607522         34.6082         25.3116 
       0.613639         34.3256         24.7643 
       0.619772         33.4424         24.2306 
       0.625918         33.2645         23.7107 
       0.632068         32.7239         23.2051 
       0.638161         32.0761         22.7184 
         0.6443         31.4635         22.2422 
       0.650464         30.9313          21.778 
       0.656582         30.7241         21.3308 
       0.662703         30.1247         20.8965 
       0.668861         29.5995         20.4726 
       0.675024         29.1045         20.0608 
       0.681124         28.6002         19.6648 
       0.687237         28.1251         19.2789 
       0.693381         27.9046         18.9013 
       0.699536         27.2073         18.5329 
       0.705665         27.1674         18.1756 
       0.711789         26.5438         17.8278 
       0.717957         26.2044         17.4868 
        0.72409         25.8304         17.1566 
       0.730186         25.4587         16.8372 
       0.736317         25.2094         16.5245 
       0.742472         24.7686         16.2189 
       0.748622         24.5342         15.9214 
        0.75476         24.1159         15.6322 
       0.760888         23.7667         15.3506 
       0.767043         23.4969         15.0749 
       0.773185         23.0871         14.8065 
       0.779291          22.979          14.546 
       0.785407         22.7036         14.2915 
       0.791564         22.2974         14.0415 
       0.797719         21.8251         13.7976 
       0.803834          21.798          13.561 
       0.809972         21.5893         13.3293 
       0.816124         21.1003         13.1025 
       0.822261         20.9241         12.8817 
       0.828378         20.7155         12.6668 
       0.834502         20.5106         12.4566 
       0.840667         20.2407         12.2498 
       0.846816         19.8894         12.0484 
       0.852925         19.7059         11.8528 
       0.859047         19.4919         11.6611 
       0.865192         19.3067         11.4731 
       0.871341         19.1674         11.2891 
       0.877463         18.8112           11.11 
       0.883569          18.596         10.9352 
       0.889708           18.34         10.7633 
       0.895864         18.1994         10.5947 
       0.902008         18.0609         10.4301 
       0.908149         17.8661         10.2691 
       0.914301         17.7565         10.1113 
       0.920448         17.4102         9.95693 
       0.926574         17.2734         9.80635 
       0.932687         17.0906         9.65923 
       0.938823         16.8654         9.51461 
       0.944975          16.695         9.37264 
       0.951105         16.5499          9.2341 
       0.957225         16.3914         9.09861 
       0.963368          16.255         8.96539 
       0.969511         16.1087         8.83486 
       0.975621         15.9608         8.70764 
       0.981748         15.7478         8.58261 
       0.987916         15.6573         8.45927 
        0.99406         15.4465         8.33883 
        1.00019         15.2373         8.22099 
        1.00632         15.1989         8.10555 
        1.01246         15.0503         7.99216 
        1.01859         14.8188         7.88114 
        1.02471         14.7681         7.77238 
        1.03085         14.6221         7.66531 
        1.03698         14.3961         7.56049 
        1.04314         14.3223          7.4572 
        1.04929         14.1448         7.35608 
        1.05541         13.9995         7.25726 
        1.06154         13.9131         7.16002 
        1.06769         13.8399         7.06442 
        1.07382         13.6557         6.97089 
        1.07993         13.5703         6.87928 
        1.08607         13.4284         6.78894 
        1.09222         13.3344         6.70014 
        1.09836          13.176         6.61303 
        1.10449         13.0863         6.52758 
        1.11063         12.9483         6.44355 
        1.11677         12.8973         6.36104 
         1.1229         12.8172         6.28012 
        1.12903         12.6493         6.20054 
        1.13518          12.504         6.12227 
        1.14131         12.4514         6.04541 
        1.14745         12.3467         5.96992 
        1.15359         12.2647          5.8957 
        1.15973         12.1524         5.82272 
        1.16584         11.9811         5.75131 
        1.17197         11.9364           5.681 
        1.17811         11.8555         5.61165 
        1.18424         11.7522         5.54367 
        1.19038         11.7051         5.47662 
        1.19652         11.5794         5.41071 
        1.20267         11.4724         5.34589 
        1.20881         11.4375         5.28215 
        1.21495         11.3496         5.21955 
        1.22108         11.2168         5.15798 
         1.2272         11.1374         5.09756 
        1.23334         11.0412         5.03797 
        1.23949         10.9456         4.97919 
        1.24562         10.9064         4.92152 
        1.25174           10.83         4.86485 
        1.25789         10.7476          4.8089 
        1.26402          10.698         4.75394 
        1.27014         10.6025         4.69997 
        1.27628          10.471         4.64668 
        1.28244          10.408         4.59412 
        1.28858         10.3979         4.54244 
        1.29471          10.281         4.49168 
        1.30084         10.1845         4.44174 
        1.30697         10.1616         4.39249 
        1.31312         10.0291         4.34392 
        1.31925           9.962         4.29623 
        1.32537         9.92084         4.24931 
        1.33151           9.859         4.20293 
        1.33765          9.7812         4.15727 
        1.34378         9.70948         4.11238 
        1.34992         9.63056         4.06812 
        1.35606         9.58791         4.02442 
         1.3622         9.52962         3.98143 
        1.36833          9.4438         3.93919 
        1.37445         9.39955         3.89757 
        1.38059         9.35506         3.85643 
        1.38675         9.26229         3.81579 
        1.39288         9.23037          3.7759 
        1.39901         9.13338         3.73659 
        1.40515         9.09587         3.69776 
         1.4113         9.03748          3.6595 
        1.41742         8.97633         3.62192 
        1.42355         8.90623          3.5848 
         1.4297         8.86129          3.5481 
        1.43585          8.8257         3.51192 
        1.44198         8.77585         3.47638 
        1.44809         8.70862         3.44141 
        1.45423         8.64474         3.40679 
        1.46036         8.59019         3.37271 
        1.46649         8.55051         3.33909 
        1.47263         8.47161          3.3059 
        1.47877         8.42753         3.27317 
        1.48491         8.38629         3.24084 
        1.49104         8.33358         3.20901 
        1.49718         8.29016         3.17759 
        1.50333         8.24473         3.14654 
        1.50947         8.18436         3.11597 
         1.5156         8.13968         3.08585 
        1.52172         8.10116         3.05614 
        1.52787         8.04274         3.02675 
          1.534         7.98866         2.99779 
        1.54013         7.95201         2.96923 
        1.54627         7.88759           2.941 
        1.55241         7.85725         2.91313 
        1.55855         7.82314         2.88567 
        1.56467         7.76083         2.85863 
         1.5708         7.74451         2.83186 
        1.57695         7.67373          2.8054 
        1.58308         7.62519         2.77933 
        1.58922          7.6041         2.75358 
        1.59535         7.56944         2.72816 
         1.6015         7.50552         2.70303 
        1.60764          7.4534         2.67823 
        1.61376          7.4394         2.65381 
        1.61989         7.38973         2.62967 
        1.62604         7.34938         2.60578 
        1.63218         7.32559         2.58221 
        1.63831         7.28399         2.55897 
        1.64444          7.2421         2.53602 
        1.65059         7.17302         2.51329 
        1.65673         7.17294         2.49087 
        1.66285          7.0977         2.46878 
        1.66898         7.07242         2.44696 
        1.67512         7.04276         2.42536 
        1.68127         6.99935           2.404 
         1.6874         6.97642         2.38294 
        1.69353         6.92128         2.36215 
        1.69967         6.89241         2.34156 
        1.70581         6.86298         2.32122 
        1.71193         6.81769          2.3012 
        1.71806         6.80093         2.28138 
        1.72421         6.74891         2.26175 
        1.73035         6.73274         2.24237 
        1.73649         6.69578         2.22322 
        1.74262         6.65284         2.20432 
        1.74876         6.63162         2.18562 
        1.75489         6.60018         2.16718 
        1.76101         6.54848         2.14896 
        1.76715         6.53281         2.13092 
        1.77329         6.48912         2.11306 
        1.77943         6.45032         2.09541 
        1.78557         6.44154         2.07798 
        1.79171          6.4032         2.06075 
        1.79785         6.36308         2.04371 
        1.80399         6.32866         2.02686 
        1.81012         6.30837         2.01023 
        1.81625         6.27318         1.99379 
        1.82239         6.24975         1.97751 
        1.82853         6.21235         1.96142 
        1.83466          6.1855         1.94553 
        1.84078         6.15415         1.92983 
        1.84692         6.14574         1.91427 
        1.85306         6.09707         1.89887 
         1.8592         6.06379         1.88367 
        1.86533         6.04309         1.86863 
        1.87147         6.01751         1.85375 
        1.87761         5.98913         1.83902 
        1.88375           5.954         1.82447 
        1.88988         5.93831         1.81009 
        1.89601         5.90866         1.79585 
        1.90215         5.88109         1.78176 
        1.90829         5.84976         1.76783 
        1.91442         5.82513         1.75405 
        1.92056         5.80528         1.74042 
         1.9267         5.76796         1.72693 
        1.93284         5.74542         1.71357 
        1.93897         5.71562         1.70038 
        1.94509         5.69839         1.68736 
        1.95123         5.66804         1.67444 
        1.95737         5.63653         1.66164 
        1.96349         5.62242         1.64901 
        1.96964         5.59371         1.63648 
        1.97578         5.56174         1.62407 
        1.98192         5.54818         1.61182 
        1.98805         5.52529         1.59969 
        1.99419         5.49633         1.58768 
        2.00033         5.48618         1.57579 
        2.00647         5.45168         1.56403 
         2.0126         5.43445         1.55241 
        2.01874         5.40448         1.54089 
        2.02488         5.38888         1.52947 
        2.03101         5.35352         1.51819 
        2.03714         5.32873         1.50704 
        2.04328         5.31062         1.49598 
        2.04941         5.28243         1.48505 
        2.05554          5.2667         1.47423 
        2.06167         5.24296         1.46351 
        2.06781         5.22472         1.45289 
        2.07396         5.21154         1.44236 
        2.08009          5.1826         1.43195 
        2.08622          5.1558         1.42166 
        2.09237         5.14159         1.41145 
        2.09851          5.1253         1.40134 
        2.10464          5.0994         1.39134 
        2.11077         5.06766         1.38146 
        2.11691          5.0496         1.37164 
        2.12305         5.03626         1.36193 
        2.12918         5.02292         1.35233 
        2.13531         4.99772         1.34282 
        2.14145         4.97848         1.33338 
         2.1476         4.95219         1.32402 
        2.15372         4.93452          1.3148 
        2.15985         4.93181         1.30565 
        2.16599         4.89251         1.29657 
        2.17213          4.8817         1.28758 
        2.17827         4.86707         1.27868 
         2.1844         4.84156         1.26987 
        2.19054         4.81588         1.26115 
        2.19666         4.80047         1.25251 
         2.2028         4.78306         1.24395 
        2.20893         4.76913         1.23547 
        2.21508          4.7441         1.22706 
        2.22122         4.72372         1.21872 
        2.22736         4.71017         1.21047 
        2.23349         4.70143         1.20231 
        2.23962         4.67934         1.19421 
        2.24577         4.65639         1.18618 
         2.2519         4.64875         1.17824 
        2.25802         4.62055         1.17038 
        2.26417          4.6059         1.16258 
        2.27031         4.58582         1.15483 
        2.27644          4.5661         1.14718 
        2.28257         4.55072          1.1396 
        2.28872         4.54115         1.13208 
        2.29486         4.52088         1.12462 
        2.30099         4.50208         1.11724 
        2.30712         4.48611         1.10993 
        2.31326         4.45992         1.10267 
         2.3194         4.45236         1.09548 
        2.32553         4.43953         1.08837 
        2.33166         4.42595         1.08132 
         2.3378         4.40356         1.07433 
        2.34394         4.38963          1.0674 
        2.35007         4.36754         1.06053 
        2.35619          4.3594         1.05374 
        2.36233         4.34182         1.04699 
        2.36848         4.32256         1.04028 
        2.37462         4.31601         1.03365 
        2.38075         4.29756         1.02708 
        2.38689         4.28406         1.02056 
        2.39303         4.26262          1.0141 
        2.39916         4.24886          1.0077 
        2.40529         4.23406         1.00136 
        2.41143         4.22044        0.995069 
        2.41757         4.21516        0.988829 
         2.4237          4.1966        0.982654 
        2.42983         4.16999        0.976532 
        2.43598         4.16243        0.970446 
        2.44211         4.14432        0.964421 
        2.44823         4.13331        0.958462 
        2.45437         4.11625        0.952536 
        2.46052         4.10423        0.946656 
        2.46665         4.09172        0.940835 
        2.47279         4.07332        0.935065 
        2.47892         4.05996         0.92934 
        2.48507          4.0499        0.923658 
         2.4912         4.03034        0.918033 
