# k  (h/Mpc)    Pcb(k)  (Mpc/h)^3    Pcb_linear(k)  (Mpc/h)^3
     0.00783031         7678.53         7719.53 
       0.013688         9413.59         9603.58 
       0.019231         9661.91         9766.87 
      0.0249154         9061.32         9044.05 
      0.0312784         7782.96         7828.17 
      0.0375637         6588.52         6662.83 
      0.0433917         5796.23         5806.78 
      0.0492413         5152.51         5194.58 
      0.0555754         4741.45         4748.27 
      0.0619321         4309.69         4421.26 
       0.067871         4080.69         4135.69 
      0.0738098          3787.1         3817.45 
      0.0800417         3426.31         3439.04 
      0.0862327         3027.66         3046.44 
      0.0921407         2693.77         2696.83 
      0.0982031          2426.4         2397.05 
       0.104506         2166.58         2164.32 
       0.110769         2017.44         2006.71 
       0.116806         1940.89         1903.85 
       0.122832         1835.19         1823.39 
       0.129052         1751.89         1739.08 
       0.135211         1677.12         1639.12 
       0.141259         1546.02         1522.87 
       0.147318         1411.18         1396.82 
       0.153489         1306.85         1272.17 
       0.159709         1227.28         1163.04 
       0.165845         1118.92         1078.41 
       0.171974         1089.21         1016.83 
       0.178125         1047.72         972.751 
       0.184229         983.274         938.413 
        0.19034         963.628         905.199 
       0.196428         930.185         867.442 
       0.202534         865.982         822.844 
       0.208729         841.228         772.461 
       0.214876          799.24         721.545 
       0.220989         742.576         674.539 
       0.227147         721.373         634.146 
        0.23329         692.233         601.995 
       0.239377         679.057         577.309 
       0.245482         646.275         557.404 
       0.251667         622.001         539.283 
       0.257832         614.915         520.766 
       0.263955         581.214          500.48 
       0.270079         559.627         478.179 
        0.27624         534.408         454.729 
       0.282372         520.283         431.838 
        0.28843         514.357         411.077 
       0.294538         487.735         392.839 
       0.300721         471.602         377.317 
        0.30691         463.922         364.228 
       0.313033         443.778         352.804 
       0.319153         436.444         341.949 
       0.325316         426.493         330.847 
        0.33145         415.814         319.267 
       0.337538         400.693         307.341 
       0.343633         388.116         295.323 
       0.349808         377.521         283.596 
       0.355968         369.423         272.744 
       0.362074         358.463         263.091 
       0.368217         354.364         254.447 
       0.374374         346.493          246.67 
       0.380519         332.478         239.481 
       0.386598         327.747         232.603 
       0.392688         319.545         225.753 
        0.39888         311.763         218.718 
       0.405048         305.623         211.681 
       0.411186         303.106           204.8 
       0.417313          297.31         198.191 
       0.423458          289.14         191.952 
       0.429607         281.968         186.178 
       0.435692          277.03         180.892 
       0.441815         271.789         175.924 
       0.447964          264.56         171.201 
       0.454126         260.688          166.62 
       0.460267         257.198         162.125 
       0.466387         251.954         157.704 
        0.47254         248.734         153.333 
       0.478662         241.595         149.084 
       0.484765         238.631         144.998 
       0.490885         235.277         141.097 
       0.497035         231.914         137.389 
       0.503198          229.43         133.866 
       0.509342         223.332          130.52 
       0.515458         220.456         127.327 
       0.521598         215.527         124.227 
       0.527764         213.178         121.189 
       0.533884         212.298         118.232 
           0.54         207.487         115.347 
       0.546137          202.82         112.535 
       0.552299         201.209         109.809 
       0.558452         197.694         107.188 
       0.564573         196.414          104.68 
       0.570708         191.937         102.265 
       0.576825         189.274         99.9511 
       0.582926         187.282          97.725 
       0.589034         184.535         95.5636 
       0.595184         183.023         93.4441 
       0.601379         179.336         91.3602 
       0.607522         176.017         89.3472 
       0.613639         174.741         87.3999 
       0.619772         172.858         85.5078 
       0.625918         171.333         83.6738 
       0.632068         167.539          81.898 
       0.638161         165.948         80.1934 
         0.6443         164.925         78.5275 
       0.650464         161.755          76.904 
       0.656582         160.814         75.3383 
       0.662703         159.177         73.8157 
       0.668861         155.986         72.3261 
       0.675024         155.948         70.8759 
       0.681124         153.483         69.4791 
       0.687237         151.468         68.1163 
       0.693381         150.094         66.7833 
       0.699536         148.381         65.4837 
       0.705665         146.618         64.2247 
       0.711789         144.813         63.0008 
       0.717957         143.212         61.8017 
        0.72409         141.933         60.6414 
       0.730186         141.736         59.5187 
       0.736317         139.349         58.4188 
       0.742472         137.423          57.343 
       0.748622         135.347         56.2952 
        0.75476         135.751         55.2758 
       0.760888         134.263         54.2829 
       0.767043         131.892         53.3103 
       0.773185         130.525         52.3636 
       0.779291          129.02         51.4453 
       0.785407         128.004         50.5478 
       0.791564         127.182         49.6662 
       0.797719         125.441         48.8063 
       0.803834         125.214         47.9725 
       0.809972         124.204         47.1553 
       0.816124         122.379         46.3556 
       0.822261         121.221         45.5768 
       0.828378         120.971         44.8183 
       0.834502         119.152         44.0767 
       0.840667         118.592         43.3472 
       0.846816         117.407         42.6364 
       0.852925          116.14         41.9461 
       0.859047          115.33         41.2697 
       0.865192         114.353         40.6062 
       0.871341          113.12         39.9569 
       0.877463         112.273         39.3249 
       0.883569         112.121         38.7082 
       0.889708         111.056         38.1017 
       0.895864         110.027         37.5067 
       0.902008         108.909         36.9258 
       0.908149         107.551         36.3575 
       0.914301         107.522         35.8004 
       0.920448         107.078         35.2555 
       0.926574         105.005         34.7239 
       0.932687          104.94         34.2045 
       0.938823         104.099         33.6939 
       0.944975         102.967         33.1926 
       0.951105          102.09         32.7033 
       0.957225         101.923         32.2248 
       0.963368         100.759         31.7542 
       0.969511         100.046         31.2931 
       0.975621         99.0853         30.8437 
       0.981748         98.3418          30.402 
       0.987916         97.7177         29.9661 
        0.99406         97.3502         29.5406 
        1.00019          96.197         29.1241 
        1.00632          95.561         28.7161 
        1.01246         94.9708         28.3154 
        1.01859         94.5165         27.9229 
        1.02471         93.7305         27.5384 
        1.03085         92.8535         27.1599 
        1.03698         92.2554         26.7893 
        1.04314         91.6147         26.4241 
        1.04929         91.2399         26.0666 
        1.05541         90.5422         25.7172 
        1.06154         89.9639         25.3733 
        1.06769         89.2298         25.0353 
        1.07382         88.4603         24.7045 
        1.07993         88.1614         24.3805 
        1.08607         87.4345          24.061 
        1.09222         87.1166          23.747 
        1.09836         86.2301         23.4389 
        1.10449         85.7776         23.1367 
        1.11063         85.1975         22.8395 
        1.11677         84.6522         22.5477 
         1.1229         83.9662         22.2615 
        1.12903         83.6581           21.98 
        1.13518         83.2198         21.7032 
        1.14131         82.5477         21.4314 
        1.14745         82.0879         21.1643 
        1.15359         81.0961         20.9018 
        1.15973         81.0137         20.6436 
        1.16584         80.4614          20.391 
        1.17197         79.9143         20.1423 
        1.17811         79.3419         19.8969 
        1.18424         78.6707         19.6564 
        1.19038         78.5995         19.4191 
        1.19652          78.041         19.1859 
        1.20267         77.4606         18.9565 
        1.20881         76.9961         18.7309 
        1.21495         76.5572         18.5093 
        1.22108           76.28         18.2914 
         1.2272         75.4959         18.0775 
        1.23334         75.3112         17.8666 
        1.23949         74.7833         17.6585 
        1.24562         74.1995         17.4544 
        1.25174         73.8007         17.2537 
        1.25789         73.6802         17.0556 
        1.26402         73.0813          16.861 
        1.27014         72.7513           16.67 
        1.27628         72.0816         16.4813 
        1.28244         71.9614         16.2951 
        1.28858         71.4164         16.1121 
        1.29471         70.9949         15.9324 
        1.30084         70.3566         15.7555 
        1.30697         70.4101         15.5811 
        1.31312          69.823         15.4091 
        1.31925         69.3343         15.2402 
        1.32537         68.9963          15.074 
        1.33151         68.7381         14.9098 
        1.33765         68.2513          14.748 
        1.34378         67.9217          14.589 
        1.34992         67.6292         14.4323 
        1.35606         67.1201         14.2775 
         1.3622         66.8953         14.1252 
        1.36833         66.3728         13.9756 
        1.37445         65.8541         13.8282 
        1.38059         65.7401         13.6825 
        1.38675         65.0512         13.5385 
        1.39288         65.0393         13.3972 
        1.39901         64.4327          13.258 
        1.40515         64.2316         13.1204 
         1.4113         63.9779         12.9849 
        1.41742         63.5342         12.8517 
        1.42355         63.2682         12.7203 
         1.4297         62.8911         12.5902 
        1.43585         62.4705          12.462 
        1.44198         62.1482         12.3361 
        1.44809         61.7383         12.2122 
        1.45423         61.5149         12.0895 
        1.46036         61.1211         11.9688 
        1.46649         60.8844         11.8496 
        1.47263         60.5637          11.732 
        1.47877         60.3266          11.616 
        1.48491         59.9458         11.5014 
        1.49104         59.4622         11.3886 
        1.49718         59.2843         11.2773 
        1.50333         58.9774         11.1672 
        1.50947         58.7323         11.0588 
         1.5156         58.4967         10.9521 
        1.52172         58.0289         10.8467 
        1.52787         57.6876         10.7426 
          1.534           57.45         10.6399 
        1.54013         57.3188         10.5387 
        1.54627         56.7633         10.4386 
        1.55241         56.5253         10.3398 
        1.55855         56.3126         10.2424 
        1.56467         55.8323         10.1466 
         1.5708         55.7684         10.0517 
        1.57695         55.4234         9.95784 
        1.58308         55.1057         9.86543 
        1.58922         54.8532         9.77413 
        1.59535         54.7048         9.68402 
         1.6015         54.5797         9.59493 
        1.60764         54.1644           9.507 
        1.61376         53.8476         9.42042 
        1.61989          53.442         9.33484 
        1.62604         53.2786         9.25015 
        1.63218         52.9925         9.16655 
        1.63831         52.8356         9.08418 
        1.64444         52.5883          9.0028 
        1.65059          52.266         8.92222 
        1.65673         51.9338         8.84271 
        1.66285          51.776          8.7644 
        1.66898         51.3456         8.68701 
        1.67512         51.1978          8.6104 
        1.68127         51.0004         8.53465 
         1.6874         50.6935         8.45998 
        1.69353         50.4947         8.38625 
        1.69967         50.2906         8.31322 
        1.70581         49.9403         8.24109 
        1.71193         49.7443         8.17009 
        1.71806         49.4863         8.09978 
        1.72421         49.3052         8.03015 
        1.73035         49.0495         7.96142 
        1.73649         48.7126         7.89352 
        1.74262         48.3777         7.82646 
        1.74876         48.3935         7.76013 
        1.75489         48.0181         7.69471 
        1.76101         47.8075         7.63007 
        1.76715         47.7396         7.56608 
        1.77329         47.2429         7.50274 
        1.77943         47.2563         7.44011 
        1.78557         47.0003         7.37828 
        1.79171         46.7374         7.31715 
        1.79785         46.5191         7.25669 
        1.80399         46.2583         7.19693 
        1.81012         46.0826         7.13793 
        1.81625         45.7945         7.07961 
        1.82239         45.5858         7.02186 
        1.82853         45.4063         6.96478 
        1.83466         45.1901         6.90839 
        1.84078         44.9747         6.85268 
        1.84692         44.7411          6.7975 
        1.85306         44.5092         6.74286 
         1.8592         44.3561         6.68891 
        1.86533         44.1336         6.63557 
        1.87147         43.9097         6.58276 
        1.87761         43.6859          6.5305 
        1.88375         43.5044         6.47887 
        1.88988         43.3445         6.42786 
        1.89601         43.0911         6.37736 
        1.90215         42.8581         6.32737 
        1.90829          42.708         6.27794 
        1.91442         42.4515         6.22903 
        1.92056         42.3083         6.18069 
         1.9267         42.1859         6.13281 
        1.93284         41.9294         6.08541 
        1.93897         41.7722          6.0386 
        1.94509         41.4438         5.99238 
        1.95123         41.3274         5.94653 
        1.95737         41.0954         5.90112 
        1.96349         41.0066         5.85631 
        1.96964         40.7255         5.81183 
        1.97578         40.5569          5.7678 
        1.98192         40.3444          5.7243 
        1.98805         40.1544         5.68126 
        1.99419         40.0164         5.63865 
        2.00033         39.8522         5.59646 
        2.00647         39.7072         5.55472 
         2.0126         39.4516         5.51347 
        2.01874         39.3033         5.47257 
        2.02488         39.0615         5.43206 
        2.03101         38.9545         5.39203 
        2.03714         38.7441         5.35244 
        2.04328         38.6079          5.3132 
        2.04941         38.3803         5.27439 
        2.05554         38.2538           5.236 
        2.06167         38.0956         5.19793 
        2.06781         37.8551         5.16024 
        2.07396         37.6962         5.12287 
        2.08009         37.5491         5.08593 
        2.08622         37.3906          5.0494 
        2.09237         37.1991         5.01315 
        2.09851         37.0436         4.97726 
        2.10464         36.8763         4.94177 
        2.11077         36.7426         4.90667 
        2.11691         36.4653         4.87184 
        2.12305         36.2927         4.83734 
        2.12918         36.2066         4.80327 
        2.13531         36.0421         4.76951 
        2.14145         35.8817           4.736 
         2.1476         35.7232         4.70278 
        2.15372         35.6255         4.67004 
        2.15985         35.3542         4.63758 
        2.16599         35.1979         4.60533 
        2.17213         35.0707         4.57343 
        2.17827         34.9116         4.54184 
         2.1844         34.7301         4.51057 
        2.19054         34.6079         4.47959 
        2.19666         34.4073         4.44894 
         2.2028         34.2443         4.41855 
        2.20893         34.1468         4.38843 
        2.21508          34.009         4.35855 
        2.22122         33.8362         4.32895 
        2.22736         33.6114         4.29968 
        2.23349         33.5408         4.27069 
        2.23962         33.3747         4.24195 
        2.24577         33.2348         4.21345 
         2.2519         33.0436         4.18525 
        2.25802         32.9381         4.15735 
        2.26417          32.765         4.12963 
        2.27031          32.645         4.10214 
        2.27644         32.5877         4.07498 
        2.28257         32.2972         4.04806 
        2.28872         32.2914         4.02134 
        2.29486         32.0921         3.99486 
        2.30099         31.8926         3.96868 
        2.30712         31.8257         3.94272 
        2.31326         31.6404         3.91694 
         2.3194         31.4792         3.89142 
        2.32553         31.3926         3.86616 
        2.33166         31.2379         3.84114 
         2.3378         31.0939          3.8163 
        2.34394          30.963         3.79168 
        2.35007         30.8771         3.76731 
        2.35619         30.7424         3.74318 
        2.36233         30.5377         3.71921 
        2.36848         30.4546         3.69539 
        2.37462         30.3297         3.67184 
        2.38075         30.1674         3.64851 
        2.38689          30.056         3.62537 
        2.39303         29.9739         3.60243 
        2.39916         29.7257         3.57971 
        2.40529         29.6367         3.55719 
        2.41143         29.5223         3.53485 
        2.41757          29.434         3.51269 
         2.4237         29.2953         3.49076 
        2.42983          29.135         3.46902 
        2.43598         29.0201         3.44741 
        2.44211          28.907         3.42601 
        2.44823           28.74         3.40485 
        2.45437         28.7054          3.3838 
        2.46052         28.5115         3.36292 
        2.46665         28.3951         3.34225 
        2.47279         28.2174         3.32176 
        2.47892         28.1509         3.30143 
        2.48507         28.0475         3.28125 
         2.4912         27.9352         3.26127 
