# k  (h/Mpc)    Pcb(k)  (Mpc/h)^3    Pcb_linear(k)  (Mpc/h)^3
     0.00783031         1699.27         1717.67 
       0.013688         2011.68         2013.39 
       0.019231         1937.74         1936.51 
      0.0249154         1688.74         1697.95 
      0.0312784          1393.6         1393.12 
      0.0375637         1145.99          1141.2 
      0.0433917         975.608         976.133 
      0.0492413          870.73         868.956 
      0.0555754          791.01         795.242 
      0.0619321         741.894         738.096 
       0.067871         678.751         681.489 
      0.0738098         612.526         614.921 
      0.0800417         534.788         538.008 
      0.0862327         464.097         464.169 
      0.0921407          406.23         404.677 
      0.0982031         359.444         359.138 
       0.104506         331.457         327.888 
       0.110769         311.232         308.621 
       0.116806         295.782         295.325 
       0.122832         283.541         281.954 
       0.129052         264.423         264.676 
       0.135211         243.721         243.614 
       0.141259         222.932         221.018 
       0.147318         202.412         199.327 
       0.153489         183.042         180.641 
       0.159709         169.264          166.45 
       0.165845         160.748         156.743 
       0.171974         152.385         150.027 
       0.178125         147.135          144.58 
       0.184229         141.673         138.951 
        0.19034         133.368         132.222 
       0.196428         126.817          124.36 
       0.202534         119.596         115.885 
       0.208729         110.778         107.546 
       0.214876         103.083         100.271 
       0.220989         98.1142         94.3995 
       0.227147         92.6627         89.8277 
        0.23329          89.015         86.2587 
       0.239377         86.2877         83.2129 
       0.245482         82.2364         80.2022 
       0.251667          79.888           76.91 
       0.257832         76.2955          73.325 
       0.263955         72.6633         69.6064 
       0.270079         69.0986         65.9587 
        0.27624         66.4009         62.5857 
       0.282372         63.5152          59.659 
        0.28843         60.6807         57.2007 
       0.294538         58.3946         55.0826 
       0.300721         56.9399         53.1643 
        0.30691         54.5476         51.3335 
       0.313033         52.7611         49.5082 
       0.319153         50.2666         47.6393 
       0.325316         49.1765         45.7303 
        0.33145         47.1073         43.8665 
       0.337538         45.5486         42.1117 
       0.343633         43.7423         40.4983 
       0.349808         42.4058         39.0211 
       0.355968         41.1095         37.6919 
       0.362074         39.7711         36.4794 
       0.368217         38.5776          35.323 
       0.374374         37.3265         34.1966 
       0.380519         36.3405         33.0836 
       0.386598         35.2933          31.996 
       0.392688         34.4038          30.931 
        0.39888         33.2636         29.8885 
       0.405048         32.3493         28.9074 
       0.411186         31.4875         27.9934 
       0.417313         30.4466         27.1402 
       0.423458         29.6425         26.3371 
       0.429607         28.8155          25.573 
       0.435692         27.9346         24.8441 
       0.441815         27.3482          24.132 
       0.447964         26.8238         23.4352 
       0.454126         25.7878         22.7554 
       0.460267          25.278         22.1007 
       0.466387         24.4809         21.4753 
        0.47254         24.0339         20.8749 
       0.478662         23.5738         20.3054 
       0.484765         22.8313         19.7643 
       0.490885         22.2966         19.2453 
       0.497035         21.9985         18.7431 
       0.503198         21.3808         18.2561 
       0.509342         20.8359         17.7857 
       0.515458         20.3564         17.3319 
       0.521598         19.9647         16.8907 
       0.527764         19.4848         16.4625 
       0.533884         19.1519         16.0526 
           0.54          18.697         15.6587 
       0.546137           18.36         15.2786 
       0.552299         18.0254         14.9108 
       0.558452         17.4702         14.5562 
       0.564573         17.2082         14.2147 
       0.570708         16.8786         13.8831 
       0.576825           16.45         13.5628 
       0.582926         16.1352         13.2531 
       0.589034         15.7066         12.9525 
       0.595184         15.4809         12.6592 
       0.601379         15.1429         12.3731 
       0.607522         14.8988         12.0986 
       0.613639         14.7049          11.834 
       0.619772          14.305         11.5771 
       0.625918         14.1984         11.3276 
       0.632068         13.9629         11.0854 
       0.638161         13.6258         10.8523 
         0.6443         13.3474         10.6241 
       0.650464         13.0837         10.4016 
       0.656582         12.9835          10.187 
       0.662703          12.733         9.97855 
       0.668861           12.49         9.77488 
       0.675024         12.2466          9.5769 
       0.681124          12.033         9.38654 
       0.687237         11.8415         9.20109 
       0.693381         11.6924         9.01985 
       0.699536          11.374         8.84321 
       0.705665         11.2751         8.67207 
       0.711789         11.0619         8.50563 
       0.717957         10.8801         8.34245 
        0.72409         10.7016         8.18449 
       0.730186          10.553         8.03162 
       0.736317         10.4332         7.88189 
       0.742472         10.2606         7.73548 
       0.748622         10.1075         7.59298 
        0.75476         9.90773         7.45443 
       0.760888         9.76883         7.31959 
       0.767043         9.64613         7.18759 
       0.773185         9.45749         7.05916 
       0.779291         9.38519         6.93462 
       0.785407          9.2425         6.81293 
       0.791564         9.09479         6.69342 
       0.797719         8.91246         6.57686 
       0.803834         8.86858         6.46383 
       0.809972         8.77141         6.35309 
       0.816124          8.5826         6.24472 
       0.822261         8.45204          6.1392 
       0.828378         8.35123         6.03645 
       0.834502         8.28336           5.936 
       0.840667          8.1305          5.8372 
       0.846816         7.98898         5.74096 
       0.852925         7.91715         5.64751 
       0.859047         7.81524         5.55597 
       0.865192         7.74278         5.46617 
       0.871341         7.65946         5.37832 
       0.877463         7.53173         5.29282 
       0.883569         7.41286          5.2094 
       0.889708         7.29303         5.12738 
       0.895864         7.22104         5.04693 
       0.902008         7.15043         4.96838 
       0.908149         7.07408         4.89157 
       0.914301         6.97721         4.81628 
       0.920448         6.87156         4.74265 
       0.926574         6.78626         4.67084 
       0.932687         6.71339         4.60068 
       0.938823         6.62663         4.53172 
       0.944975         6.54215         4.46403 
       0.951105         6.47445         4.39798 
       0.957225         6.44072         4.33339 
       0.963368         6.35412         4.26989 
       0.969511         6.27535         4.20767 
       0.975621          6.1967         4.14704 
       0.981748         6.12817         4.08746 
       0.987916         6.07288         4.02868 
        0.99406         5.97084         3.97129 
        1.00019         5.88937         3.91514 
        1.00632          5.8662         3.86014 
        1.01246         5.79551         3.80612 
        1.01859          5.7111         3.75323 
        1.02471         5.66448         3.70141 
        1.03085         5.59893          3.6504 
        1.03698         5.52345         3.60047 
        1.04314           5.483         3.55127 
        1.04929         5.41539         3.50311 
        1.05541         5.35013         3.45605 
        1.06154         5.30663         3.40974 
        1.06769         5.27953         3.36421 
        1.07382         5.19032         3.31967 
        1.07993          5.1354         3.27604 
        1.08607         5.10561         3.23302 
        1.09222         5.04801         3.19074 
        1.09836         4.99252         3.14926 
        1.10449         4.94614         3.10858 
        1.11063          4.8895         3.06858 
        1.11677         4.85744          3.0293 
         1.1229         4.81395         2.99078 
        1.12903         4.75172          2.9529 
        1.13518          4.7021         2.91565 
        1.14131         4.65069         2.87907 
        1.14745         4.59693         2.84314 
        1.15359         4.57051         2.80783 
        1.15973         4.51766          2.7731 
        1.16584         4.46801         2.73912 
        1.17197         4.42987         2.70566 
        1.17811         4.40689         2.67267 
        1.18424         4.36095         2.64033 
        1.19038         4.33555         2.60843 
        1.19652         4.28443         2.57707 
        1.20267         4.24025         2.54624 
        1.20881         4.21613         2.51592 
        1.21495         4.17467         2.48614 
        1.22108           4.131         2.45685 
         1.2272         4.10366         2.42811 
        1.23334         4.05231         2.39976 
        1.23949         4.01423         2.37181 
        1.24562           3.993         2.34437 
        1.25174          3.9494         2.31742 
        1.25789         3.92193         2.29081 
        1.26402          3.8901         2.26467 
        1.27014         3.85415           2.239 
        1.27628         3.82178         2.21365 
        1.28244         3.77622         2.18865 
        1.28858         3.76457         2.16407 
        1.29471         3.71741         2.13993 
        1.30084         3.68225         2.11618 
        1.30697         3.68052         2.09276 
        1.31312         3.61405         2.06966 
        1.31925         3.59319         2.04698 
        1.32537         3.56311         2.02467 
        1.33151         3.54889         2.00261 
        1.33765         3.50223         1.98089 
        1.34378          3.4826         1.95955 
        1.34992         3.46162          1.9385 
        1.35606         3.41461         1.91771 
         1.3622         3.40284         1.89728 
        1.36833         3.37168         1.87719 
        1.37445         3.34474          1.8574 
        1.38059         3.33356         1.83784 
        1.38675         3.30723         1.81851 
        1.39288         3.27874         1.79954 
        1.39901         3.23979         1.78086 
        1.40515         3.21983         1.76239 
         1.4113          3.1991          1.7442 
        1.41742         3.17511         1.72634 
        1.42355         3.14869         1.70869 
         1.4297         3.12467         1.69124 
        1.43585         3.10939         1.67404 
        1.44198         3.09077         1.65715 
        1.44809         3.05885         1.64052 
        1.45423         3.03406         1.62406 
        1.46036         3.00725         1.60786 
        1.46649          2.9902         1.59187 
        1.47263         2.96477          1.5761 
        1.47877         2.94151         1.56054 
        1.48491         2.92226         1.54517 
        1.49104         2.90468         1.53004 
        1.49718         2.88423          1.5151 
        1.50333         2.86643         1.50034 
        1.50947         2.84204         1.48581 
         1.5156         2.82214         1.47149 
        1.52172         2.80422         1.45736 
        1.52787         2.78581         1.44339 
          1.534         2.76104         1.42962 
        1.54013         2.74773         1.41604 
        1.54627         2.72326         1.40262 
        1.55241         2.70249         1.38937 
        1.55855         2.69074         1.37631 
        1.56467          2.6736         1.36345 
         1.5708         2.65228         1.35073 
        1.57695         2.63123         1.33814 
        1.58308         2.61087         1.32575 
        1.58922         2.60272         1.31351 
        1.59535          2.5843         1.30142 
         1.6015         2.56334         1.28947 
        1.60764         2.54853         1.27768 
        1.61376         2.53428         1.26607 
        1.61989         2.51482         1.25459 
        1.62604         2.49675         1.24324 
        1.63218         2.49063         1.23203 
        1.63831         2.46594         1.22098 
        1.64444         2.45188         1.21007 
        1.65059         2.43345         1.19926 
        1.65673         2.42396          1.1886 
        1.66285         2.40262          1.1781 
        1.66898         2.39086         1.16772 
        1.67512         2.37089         1.15745 
        1.68127          2.3577          1.1473 
         1.6874         2.35117         1.13729 
        1.69353         2.32264          1.1274 
        1.69967         2.31357         1.11761 
        1.70581         2.30492         1.10794 
        1.71193         2.28575         1.09842 
        1.71806         2.27656           1.089 
        1.72421         2.26097         1.07966 
        1.73035         2.24855         1.07045 
        1.73649         2.23306         1.06135 
        1.74262         2.21847         1.05236 
        1.74876         2.21071         1.04347 
        1.75489         2.19169          1.0347 
        1.76101         2.17649         1.02603 
        1.76715         2.16951         1.01745 
        1.77329         2.15848         1.00896 
        1.77943         2.13656         1.00057 
        1.78557         2.12782        0.992278 
        1.79171         2.12008        0.984082 
        1.79785         2.10302        0.975977 
        1.80399         2.09201        0.967966 
        1.81012         2.08144        0.960056 
        1.81625         2.06991        0.952238 
        1.82239         2.05552        0.944496 
        1.82853         2.03968        0.936843 
        1.83466         2.03468        0.929284 
        1.84078         2.02346        0.921816 
        1.84692          2.0138        0.914418 
        1.85306         1.99728        0.907093 
         1.8592         1.98441         0.89986 
        1.86533          1.9747         0.89271 
        1.87147         1.96783         0.88563 
        1.87761          1.9541        0.878624 
        1.88375         1.94261        0.871702 
        1.88988         1.93402        0.864863 
        1.89601         1.92088        0.858093 
        1.90215         1.90704        0.851391 
        1.90829          1.8961        0.844764 
        1.91442         1.89173        0.838207 
        1.92056         1.87805        0.831726 
         1.9267         1.86831        0.825307 
        1.93284         1.86311        0.818952 
        1.93897         1.85148        0.812677 
        1.94509          1.8394        0.806481 
        1.95123         1.82795        0.800334 
        1.95737         1.81724        0.794247 
        1.96349         1.81169        0.788239 
        1.96964         1.80418        0.782276 
        1.97578         1.78903        0.776373 
        1.98192         1.78236        0.770543 
        1.98805         1.77306        0.764772 
        1.99419         1.76607         0.75906 
        2.00033         1.75904        0.753404 
        2.00647         1.74547        0.747808 
         2.0126            1.74        0.742278 
        2.01874         1.72519        0.736796 
        2.02488         1.72102        0.731364 
        2.03101         1.70665        0.725997 
        2.03714         1.70044         0.72069 
        2.04328         1.69295        0.715429 
        2.04941         1.68029        0.710226 
        2.05554         1.67544        0.705078 
        2.06167         1.66732        0.699975 
        2.06781         1.66088        0.694921 
        2.07396         1.65247         0.68991 
        2.08009          1.6433        0.684957 
        2.08622          1.6345        0.680059 
        2.09237         1.62543        0.675199 
        2.09851         1.61829        0.670386 
        2.10464         1.61463        0.665628 
        2.11077         1.60281        0.660923 
        2.11691         1.59508        0.656252 
        2.12305         1.58915        0.651626 
        2.12918         1.58224        0.647057 
        2.13531          1.5728        0.642531 
        2.14145         1.56554        0.638038 
         2.1476         1.55525        0.633582 
        2.15372         1.54902        0.629192 
        2.15985         1.54189        0.624839 
        2.16599         1.53583        0.620515 
        2.17213         1.52413        0.616237 
        2.17827         1.52091        0.612001 
         2.1844         1.51444        0.607808 
        2.19054         1.50838        0.603652 
        2.19666         1.49965        0.599542 
         2.2028         1.49205        0.595467 
        2.20893          1.4864        0.591427 
        2.21508         1.47932        0.587421 
        2.22122          1.4694         0.58345 
        2.22736         1.46429        0.579525 
        2.23349         1.45985        0.575636 
        2.23962         1.45002        0.571782 
        2.24577         1.44653        0.567959 
         2.2519         1.43844        0.564177 
        2.25802         1.43316        0.560435 
        2.26417         1.42703        0.556717 
        2.27031         1.42015         0.55303 
        2.27644         1.41348        0.549387 
        2.28257         1.40554        0.545776 
        2.28872         1.40156        0.542192 
        2.29486         1.39293        0.538641 
        2.30099         1.38685        0.535128 
        2.30712         1.37997        0.531646 
        2.31326         1.37655        0.528189 
         2.3194         1.37078        0.524765 
        2.32553         1.36563        0.521377 
        2.33166         1.35707         0.51802 
         2.3378         1.35137        0.514689 
        2.34394         1.34432        0.511385 
        2.35007         1.33946        0.508116 
        2.35619         1.33585        0.504879 
        2.36233         1.32733        0.501663 
        2.36848         1.32244        0.498468 
        2.37462         1.31812        0.495308 
        2.38075         1.31149        0.492178 
        2.38689          1.3074        0.489073 
        2.39303         1.29953        0.485995 
        2.39916          1.2955        0.482947 
        2.40529         1.28964        0.479926 
        2.41143         1.28283        0.476928 
        2.41757         1.27899        0.473955 
         2.4237         1.27556        0.471012 
        2.42983         1.26678        0.468095 
        2.43598          1.2646        0.465195 
        2.44211         1.25824        0.462324 
        2.44823         1.25293        0.459484 
        2.45437         1.24794         0.45666 
        2.46052         1.24433        0.453858 
        2.46665         1.23761        0.451084 
        2.47279         1.23189        0.448334 
        2.47892         1.22698        0.445606 
        2.48507          1.2238        0.442898 
         2.4912         1.21545        0.440217 
