# k  (h/Mpc)    P(k)  (Mpc/h)^3    P_linear(k)  (Mpc/h)^3
     0.00783031            8654         8795.77 
       0.013688         9794.51         9763.87 
       0.019231         8925.27          8907.8 
      0.0249154         7259.34         7345.41 
      0.0312784            5588          5593.8 
      0.0375637         4317.47         4281.09 
      0.0433917         3499.39         3503.99 
      0.0492413         3076.85         3063.13 
      0.0555754         2784.16         2817.05 
      0.0619321         2680.61         2653.89 
       0.067871         2448.06         2471.35 
      0.0738098         2201.17         2218.32 
      0.0800417         1877.89         1896.94 
      0.0862327         1584.02          1577.8 
      0.0921407         1350.98         1323.44 
      0.0982031         1157.75         1138.62 
       0.104506         1067.68         1026.48 
       0.110769         1006.37         974.208 
       0.116806          970.83         950.576 
       0.122832          945.74         925.418 
       0.129052         883.344         878.047 
       0.135211         815.267         805.125 
       0.141259         743.324         717.746 
       0.147318         664.947         630.306 
       0.153489         587.957         555.459 
       0.159709         540.344         501.892 
       0.165845         512.655         470.228 
       0.171974         488.619         453.876 
       0.178125         475.991           444.4 
       0.184229         462.122         433.685 
        0.19034         433.917         416.205 
       0.196428         417.332          390.85 
       0.202534         394.216         360.114 
       0.208729         362.807         328.268 
       0.214876         335.726         300.465 
       0.220989         317.851         279.143 
       0.227147         301.268         264.394 
        0.23329         289.551         254.908 
       0.239377         283.749         248.189 
       0.245482         266.849         241.594 
       0.251667         263.394         233.177 
       0.257832         253.011         222.373 
       0.263955         241.138         209.859 
       0.270079         228.467         196.847 
        0.27624         221.559         184.673 
       0.282372          212.26         174.459 
        0.28843         203.195         166.521 
       0.294538         194.061         160.429 
       0.300721         191.445         155.476 
        0.30691          182.98          150.93 
       0.313033          178.35          146.14 
       0.319153         170.597          140.77 
       0.325316          166.42         134.792 
        0.33145         159.401          128.63 
       0.337538         155.836           122.7 
       0.343633         149.641         117.326 
       0.349808         144.472         112.615 
       0.355968         141.569          108.65 
       0.362074         137.656         105.261 
       0.368217         133.535          102.14 
       0.374374         128.981          99.084 
       0.380519         126.599         95.9332 
       0.386598         123.033         92.6996 
       0.392688         120.566         89.3997 
        0.39888         117.192         86.0907 
       0.405048         113.785         82.9774 
       0.411186         111.098         80.1355 
       0.417313          108.29         77.5654 
       0.423458         105.688         75.2404 
       0.429607         103.185          73.086 
       0.435692         99.5982         71.0428 
       0.441815         98.5892         69.0257 
       0.447964         96.6334         67.0092 
       0.454126         92.3126         64.9869 
       0.460267         91.1583         63.0057 
       0.466387         89.5643         61.1036 
        0.47254         87.4241         59.2876 
       0.478662           86.59         57.5868 
       0.484765         83.6881         56.0028 
       0.490885         82.1696         54.5109 
       0.497035         81.0831           53.08 
       0.503198         78.6817           51.69 
       0.509342         77.1281         50.3368 
       0.515458         75.8144         49.0201 
       0.521598         74.4436          47.727 
       0.527764         73.3303         46.4621 
       0.533884         72.2086           45.25 
           0.54         70.5149          44.091 
       0.546137         69.7667         42.9843 
       0.552299         68.5476          41.923 
       0.558452         66.9214         40.9053 
       0.564573         65.7339         39.9268 
       0.570708          64.617         38.9756 
       0.576825         63.7547         38.0551 
       0.582926         62.2524         37.1628 
       0.589034         61.1733         36.2936 
       0.595184         60.2908         35.4434 
       0.601379         59.2729          34.614 
       0.607522         57.9813         33.8193 
       0.613639         57.6575         33.0567 
       0.619772         56.4105         32.3201 
       0.625918         55.6163         31.6071 
       0.632068          54.946         30.9162 
       0.638161         54.2175         30.2512 
         0.6443         53.4249         29.5989 
       0.650464         52.7266         28.9616 
       0.656582         51.8734         28.3465 
       0.662703         50.8847         27.7488 
       0.668861         50.1735         27.1654 
       0.675024         49.6008         26.5996 
       0.681124         48.8887         26.0568 
       0.687237         47.9186         25.5288 
       0.693381         47.4061         25.0134 
       0.699536         46.7389         24.5114 
       0.705665         46.7309         24.0252 
       0.711789         45.5743         23.5522 
       0.717957         45.0812         23.0883 
        0.72409         44.3901         22.6394 
       0.730186         43.7008         22.2051 
       0.736317         43.5256         21.7799 
       0.742472         42.9277         21.3645 
       0.748622           42.33         20.9606 
        0.75476         41.8784         20.5683 
       0.760888         41.2344         20.1868 
       0.767043          40.762         19.8136 
       0.773185         40.2473         19.4508 
       0.779291         39.9115         19.0992 
       0.785407         39.5275         18.7557 
       0.791564         39.0913         18.4185 
       0.797719          38.296         18.0898 
       0.803834         38.1429         17.7711 
       0.809972         37.4491          17.459 
       0.816124         37.1143         17.1537 
       0.822261         36.7826         16.8566 
       0.828378         36.5562         16.5675 
       0.834502         36.0551         16.2849 
       0.840667         35.6637         16.0071 
       0.846816         35.1087         15.7367 
       0.852925         34.8492         15.4742 
       0.859047          34.371         15.2173 
       0.865192         34.0949         14.9654 
       0.871341         33.9178          14.719 
       0.877463         33.2624         14.4794 
       0.883569         33.0097         14.2457 
       0.889708         32.7457          14.016 
       0.895864          32.414         13.7908 
       0.902008         32.1083         13.5711 
       0.908149         31.8082         13.3563 
       0.914301         31.5827         13.1459 
       0.920448         31.2788         12.9402 
       0.926574         30.8657         12.7396 
       0.932687         30.6764         12.5437 
       0.938823         30.2324         12.3513 
       0.944975         30.0383         12.1625 
       0.951105          29.739         11.9783 
       0.957225         29.3682         11.7983 
       0.963368         29.3753         11.6214 
       0.969511         29.0203         11.4481 
       0.975621         28.8427         11.2793 
       0.981748         28.4293         11.1135 
       0.987916         28.1969           10.95 
        0.99406         28.0176         10.7905 
        1.00019         27.7205         10.6344 
        1.00632         27.5247         10.4816 
        1.01246         27.3895         10.3315 
        1.01859         26.9615         10.1847 
        1.02471         26.8821         10.0409 
        1.03085         26.6483         9.89937 
        1.03698         26.3037         9.76089 
        1.04314         26.1519         9.62449 
        1.04929         25.9103         9.49101 
        1.05541         25.6499         9.36062 
        1.06154         25.5931         9.23237 
        1.06769         25.3279         9.10633 
        1.07382         25.1724         8.98307 
        1.07993              25         8.86238 
        1.08607          24.746         8.74342 
        1.09222         24.5883         8.62652 
        1.09836         24.3672         8.51191 
        1.10449         24.1974         8.39952 
        1.11063         23.8921         8.28905 
        1.11677         23.7871          8.1806 
         1.1229         23.6212          8.0743 
        1.12903         23.3429         7.96979 
        1.13518         23.3656         7.86706 
        1.14131         23.1695          7.7662 
        1.14745         22.8613         7.66718 
        1.15359         22.8314         7.56987 
        1.15973          22.552         7.47421 
        1.16584          22.406         7.38064 
        1.17197         22.3028         7.28855 
        1.17811         22.1163         7.19775 
        1.18424         21.9291         7.10877 
        1.19038         21.8296         7.02104 
        1.19652         21.7601         6.93483 
        1.20267         21.5719         6.85008 
        1.20881         21.3825         6.76676 
        1.21495         21.2361         6.68496 
        1.22108          21.098         6.60454 
         1.2272          20.899         6.52563 
        1.23334         20.8243         6.44783 
        1.23949         20.7387         6.37112 
        1.24562         20.5097         6.29587 
        1.25174         20.4447         6.22195 
        1.25789         20.2812           6.149 
        1.26402         20.1228         6.07734 
        1.27014         19.9419         6.00701 
        1.27628         19.8456         5.93758 
        1.28244         19.7637         5.86911 
        1.28858         19.6466         5.80182 
        1.29471           19.53         5.73574 
        1.30084         19.4029         5.67075 
        1.30697         19.2908         5.60667 
        1.31312         19.1301         5.54349 
        1.31925          19.008         5.48148 
        1.32537         18.8996         5.42049 
        1.33151          18.789         5.36021 
        1.33765          18.713         5.30089 
        1.34378         18.5566         5.24258 
        1.34992         18.4208         5.18511 
        1.35606         18.3416         5.12838 
         1.3622          18.262          5.0726 
        1.36833         18.0905         5.01778 
        1.37445         18.0686         4.96381 
        1.38059         17.9032         4.91047 
        1.38675         17.7126         4.85778 
        1.39288         17.7073         4.80608 
        1.39901         17.5755         4.75516 
        1.40515         17.4896         4.70486 
         1.4113         17.3845         4.65531 
        1.41742         17.2582         4.60667 
        1.42355         17.2217         4.55863 
         1.4297         17.1182         4.51113 
        1.43585         17.0489         4.46433 
        1.44198         16.8959         4.41837 
        1.44809         16.8022         4.37315 
        1.45423         16.7145          4.3284 
        1.46036         16.6761         4.28435 
        1.46649         16.5565          4.2409 
        1.47263         16.4362         4.19802 
        1.47877         16.3936         4.15575 
        1.48491         16.3637           4.114 
        1.49104          16.212         4.07291 
        1.49718         16.0915         4.03235 
        1.50333         16.0556         3.99228 
        1.50947         15.9636         3.95284 
         1.5156         15.8901         3.91399 
        1.52172          15.799         3.87567 
        1.52787         15.7121         3.83778 
          1.534         15.6161         3.80044 
        1.54013         15.5153         3.76364 
        1.54627         15.4631         3.72726 
        1.55241         15.3343         3.69136 
        1.55855         15.2812         3.65598 
        1.56467         15.1853         3.62116 
         1.5708         15.1742          3.5867 
        1.57695         15.0387         3.55263 
        1.58308         14.9867         3.51908 
        1.58922         14.9231         3.48595 
        1.59535         14.8261         3.45325 
         1.6015         14.7559         3.42093 
        1.60764         14.7182         3.38904 
        1.61376         14.5575         3.35765 
        1.61989         14.5206         3.32662 
        1.62604         14.4972         3.29592 
        1.63218         14.4136         3.26563 
        1.63831         14.3461         3.23579 
        1.64444         14.2548         3.20631 
        1.65059         14.1828         3.17713 
        1.65673         14.0911         3.14834 
        1.66285         14.0896         3.11999 
        1.66898         14.0176         3.09198 
        1.67512         13.9417         3.06426 
        1.68127         13.8753         3.03686 
         1.6874         13.7932         3.00985 
        1.69353         13.7305         2.98318 
        1.69967         13.6608         2.95678 
        1.70581         13.5881         2.93071 
        1.71193         13.5541         2.90505 
        1.71806          13.465         2.87965 
        1.72421         13.4101         2.85449 
        1.73035         13.3214         2.82967 
        1.73649         13.3224         2.80515 
        1.74262         13.2483         2.78094 
        1.74876         13.2091           2.757 
        1.75489         13.1176         2.73339 
        1.76101         13.0487         2.71006 
        1.76715          12.999         2.68698 
        1.77329         12.9652         2.66414 
        1.77943         12.8867         2.64155 
        1.78557         12.8476         2.61925 
        1.79171         12.7698         2.59721 
        1.79785         12.6952         2.57542 
        1.80399         12.6682         2.55389 
        1.81012         12.6309         2.53263 
        1.81625         12.5737         2.51162 
        1.82239         12.5141         2.49081 
        1.82853         12.4286         2.47026 
        1.83466         12.3771         2.44995 
        1.84078         12.3162          2.4299 
        1.84692         12.2997         2.41003 
        1.85306         12.2244         2.39037 
         1.8592         12.1731         2.37095 
        1.86533         12.1285         2.35177 
        1.87147         12.0783         2.33277 
        1.87761          12.042         2.31397 
        1.88375         11.9881         2.29541 
        1.88988         11.9167         2.27706 
        1.89601         11.8678         2.25891 
        1.90215         11.8359         2.24094 
        1.90829         11.7796         2.22318 
        1.91442         11.7317          2.2056 
        1.92056         11.6838         2.18823 
         1.9267          11.621         2.17104 
        1.93284         11.5698         2.15401 
        1.93897         11.5405          2.1372 
        1.94509         11.4889         2.12061 
        1.95123         11.4556         2.10415 
        1.95737         11.4017         2.08785 
        1.96349         11.3473         2.07177 
        1.96964         11.3006         2.05581 
        1.97578         11.2506         2.04001 
        1.98192         11.2063         2.02441 
        1.98805         11.1745         2.00897 
        1.99419         11.1258          1.9937 
        2.00033         11.0343         1.97857 
        2.00647         11.0081          1.9636 
         2.0126         10.9913         1.94882 
        2.01874         10.9318         1.93416 
        2.02488         10.8958         1.91965 
        2.03101         10.8544          1.9053 
        2.03714         10.8215         1.89112 
        2.04328         10.7493         1.87707 
        2.04941         10.7131         1.86317 
        2.05554          10.691         1.84942 
        2.06167         10.6459         1.83579 
        2.06781         10.6055          1.8223 
        2.07396         10.5725         1.80892 
        2.08009         10.5441          1.7957 
        2.08622         10.4539         1.78263 
        2.09237         10.4479         1.76967 
        2.09851         10.4019         1.75682 
        2.10464         10.3477         1.74413 
        2.11077         10.3195         1.73158 
        2.11691          10.276         1.71913 
        2.12305         10.2676         1.70679 
        2.12918         10.1923         1.69461 
        2.13531         10.1569         1.68254 
        2.14145         10.1238         1.67057 
         2.1476         10.1035         1.65869 
        2.15372         10.0466           1.647 
        2.15985         10.0004          1.6354 
        2.16599         9.98309         1.62388 
        2.17213         9.92772         1.61249 
        2.17827         9.89788          1.6012 
         2.1844         9.85334         1.59004 
        2.19054         9.84341         1.57898 
        2.19666          9.8178         1.56804 
         2.2028         9.76309         1.55719 
        2.20893         9.72243         1.54644 
        2.21508         9.66759         1.53578 
        2.22122          9.6268         1.52521 
        2.22736         9.61898         1.51477 
        2.23349          9.5741         1.50443 
        2.23962         9.53877         1.49418 
        2.24577         9.50662         1.48401 
         2.2519         9.47123         1.47396 
        2.25802         9.44953         1.46401 
        2.26417         9.41811         1.45413 
        2.27031         9.35184         1.44433 
        2.27644         9.34858         1.43464 
        2.28257         9.30548         1.42505 
        2.28872         9.27752         1.41553 
        2.29486         9.24313         1.40609 
        2.30099         9.21797         1.39677 
        2.30712         9.18443         1.38752 
        2.31326         9.14036         1.37834 
         2.3194         9.11852         1.36924 
        2.32553         9.08553         1.36025 
        2.33166         9.03724         1.35134 
         2.3378         9.01016          1.3425 
        2.34394          8.9876         1.33373 
        2.35007         8.94127         1.32506 
        2.35619         8.89866         1.31647 
        2.36233         8.88839         1.30794 
        2.36848         8.87374         1.29946 
        2.37462         8.83435         1.29108 
        2.38075         8.78363         1.28278 
        2.38689         8.77844         1.27455 
        2.39303         8.73193         1.26639 
        2.39916         8.70824         1.25831 
        2.40529         8.68073          1.2503 
        2.41143         8.65354         1.24236 
        2.41757         8.61982         1.23448 
         2.4237         8.59981         1.22668 
        2.42983         8.56033         1.21895 
        2.43598         8.53821         1.21127 
        2.44211         8.50742         1.20367 
        2.44823         8.47241         1.19615 
        2.45437         8.45799         1.18867 
        2.46052         8.41158         1.18125 
        2.46665         8.38967          1.1739 
        2.47279          8.3479         1.16663 
        2.47892         8.32631          1.1594 
        2.48507         8.30015         1.15224 
         2.4912         8.28908         1.14514 
