# k  (h/Mpc)    Pcb(k)  (Mpc/h)^3    Pcb_linear(k)  (Mpc/h)^3
     0.00783031         9529.76         9654.08 
       0.013688         10791.3         10731.5 
       0.019231         9830.18         9796.71 
      0.0249154         7989.47         8081.35 
      0.0312784         6151.77         6155.76 
      0.0375637         4755.31         4711.91 
      0.0433917         3852.56         3856.98 
      0.0492413         3388.48         3371.95 
      0.0555754         3063.97         3101.25 
      0.0619321         2952.69         2921.76 
       0.067871         2694.34         2720.89 
      0.0738098         2422.95         2442.37 
      0.0800417         2067.03         2088.57 
      0.0862327         1744.72         1737.22 
      0.0921407         1489.77         1457.18 
      0.0982031         1276.79          1253.7 
       0.104506         1178.58         1130.25 
       0.110769         1110.55         1072.69 
       0.116806         1071.17         1046.68 
       0.122832            1043         1018.99 
       0.129052         973.518         966.832 
       0.135211         898.893          886.54 
       0.141259         820.605         790.331 
       0.147318         734.848         694.049 
       0.153489         650.081         611.637 
       0.159709         598.094         552.652 
       0.165845          567.68         517.788 
       0.171974         541.162         499.783 
       0.178125         526.714          489.35 
       0.184229         511.074         477.553 
        0.19034         479.669         458.304 
       0.196428         461.743         430.387 
       0.202534         436.516         396.543 
       0.208729         402.192         361.475 
       0.214876         372.656         330.862 
       0.220989          353.05         307.383 
       0.227147          334.92          291.14 
        0.23329         321.826         280.695 
       0.239377         315.411         273.296 
       0.245482         296.225         266.035 
       0.251667         292.611         256.765 
       0.257832         281.078         244.871 
       0.263955         268.099         231.091 
       0.270079         254.139         216.763 
        0.27624         246.826         203.356 
       0.282372         236.567         192.108 
        0.28843         226.736         183.368 
       0.294538         216.364          176.66 
       0.300721         213.607         171.206 
        0.30691           204.1         166.198 
       0.313033         199.056         160.925 
       0.319153         190.573         155.013 
       0.325316         185.799          148.43 
        0.33145         178.111         141.644 
       0.337538         174.278         135.115 
       0.343633         167.435         129.197 
       0.349808         161.598         124.009 
       0.355968         158.514         119.643 
       0.362074         154.285         115.911 
       0.368217         149.699         112.474 
       0.374374         144.412         109.109 
       0.380519         141.914         105.639 
       0.386598          137.95         102.078 
       0.392688         135.275         98.4454 
        0.39888         131.556         94.8011 
       0.405048         127.751         91.3732 
       0.411186         124.783         88.2432 
       0.417313         121.734         85.4144 
       0.423458         118.843          82.853 
       0.429607         116.082          80.481 
       0.435692         112.108         78.2308 
       0.441815         110.994         76.0099 
       0.447964         108.765         73.7887 
       0.454126         103.992         71.5625 
       0.460267          102.68         69.3805 
       0.466387         100.998         67.2863 
        0.47254         98.5349         65.2863 
       0.478662         97.7113         63.4137 
       0.484765         94.4005         61.6692 
       0.490885         92.7503         60.0265 
       0.497035         91.4919         58.4505 
       0.503198         88.8348         56.9202 
       0.509342         87.1906           55.43 
       0.515458         85.7327         53.9801 
       0.521598         84.1416          52.556 
       0.527764         82.9606         51.1634 
       0.533884           81.69         49.8284 
           0.54          79.844         48.5524 
       0.546137         79.0142         47.3336 
       0.552299         77.6005         46.1649 
       0.558452         75.8975         45.0443 
       0.564573         74.5694         43.9667 
       0.570708         73.2444         42.9193 
       0.576825         72.3214         41.9056 
       0.582926         70.6403          40.923 
       0.589034         69.5002         39.9659 
       0.595184         68.4969         39.0297 
       0.601379         67.3547         38.1163 
       0.607522         65.9328         37.2412 
       0.613639         65.5416         36.4016 
       0.619772         64.1537         35.5903 
       0.625918         63.2313         34.8052 
       0.632068         62.4869         34.0444 
       0.638161         61.7103         33.3121 
         0.6443         60.8415         32.5939 
       0.650464         60.0962          31.892 
       0.656582         59.0551         31.2147 
       0.662703         57.9986         30.5565 
       0.668861         57.1714         29.9142 
       0.675024         56.5426         29.2911 
       0.681124         55.8033         28.6933 
       0.687237         54.6838         28.1119 
       0.693381         54.0554         27.5444 
       0.699536         53.4029         26.9916 
       0.705665         53.3478         26.4561 
       0.711789         52.0647         25.9353 
       0.717957         51.5658         25.4245 
        0.72409         50.7343         24.9302 
       0.730186         49.9545         24.4519 
       0.736317         49.7694         23.9837 
       0.742472         49.1374         23.5263 
       0.748622         48.4431         23.0815 
        0.75476         47.9478         22.6495 
       0.760888         47.2307         22.2294 
       0.767043         46.7314         21.8185 
       0.773185         46.1497         21.4189 
       0.779291         45.7058         21.0317 
       0.785407         45.2852         20.6535 
       0.791564          44.852         20.2822 
       0.797719         43.9428         19.9202 
       0.803834         43.7551         19.5693 
       0.809972         42.9659         19.2256 
       0.816124         42.6297         18.8894 
       0.822261           42.27         18.5622 
       0.828378         41.9979         18.2438 
       0.834502         41.4394         17.9327 
       0.840667         40.9851         17.6268 
       0.846816         40.3736          17.329 
       0.852925         40.0758           17.04 
       0.859047         39.5251         16.7571 
       0.865192         39.2422         16.4797 
       0.871341         39.0057         16.2084 
       0.877463         38.2836         15.9445 
       0.883569         38.0256         15.6872 
       0.889708         37.7183         15.4342 
       0.895864         37.3688         15.1863 
       0.902008         37.0091         14.9443 
       0.908149         36.6808         14.7078 
       0.914301         36.3765          14.476 
       0.920448          36.066         14.2495 
       0.926574         35.5948         14.0287 
       0.932687         35.4236          13.813 
       0.938823         34.9074         13.6011 
       0.944975         34.6577         13.3932 
       0.951105         34.3271         13.1904 
       0.957225         33.9132         12.9921 
       0.963368         33.8892         12.7973 
       0.969511         33.5249         12.6065 
       0.975621         33.3277         12.4207 
       0.981748         32.8678         12.2381 
       0.987916         32.5843          12.058 
        0.99406         32.3964         11.8823 
        1.00019         32.0653         11.7105 
        1.00632         31.8387         11.5422 
        1.01246         31.6638         11.3769 
        1.01859         31.2011         11.2152 
        1.02471          31.099         11.0569 
        1.03085         30.8372          10.901 
        1.03698          30.479         10.7486 
        1.04314         30.2911         10.5984 
        1.04929         30.0218         10.4514 
        1.05541         29.7153         10.3078 
        1.06154         29.6774         10.1666 
        1.06769         29.3523         10.0278 
        1.07382         29.1971         9.89204 
        1.07993         28.9957         9.75913 
        1.08607         28.7311         9.62813 
        1.09222         28.5333         9.49941 
        1.09836         28.2793          9.3732 
        1.10449          28.103         9.24944 
        1.11063         27.7595         9.12778 
        1.11677         27.6206         9.00837 
         1.1229         27.4263          8.8913 
        1.12903          27.097         8.77623 
        1.13518         27.1712          8.6631 
        1.14131         26.9298         8.55204 
        1.14745         26.5762         8.44299 
        1.15359         26.5341         8.33583 
        1.15973         26.2112          8.2305 
        1.16584         26.0734         8.12747 
        1.17197         25.9225         8.02605 
        1.17811         25.7542         7.92607 
        1.18424         25.5262         7.82808 
        1.19038         25.3833         7.73148 
        1.19652         25.3319         7.63655 
        1.20267         25.0997         7.54321 
        1.20881         24.9107         7.45147 
        1.21495         24.7218         7.36139 
        1.22108         24.5875         7.27283 
         1.2272         24.3352         7.18593 
        1.23334         24.2443         7.10026 
        1.23949         24.1881         7.01579 
        1.24562         23.8912         6.93293 
        1.25174         23.8308         6.85153 
        1.25789          23.665         6.77119 
        1.26402         23.4514         6.69229 
        1.27014          23.268         6.61484 
        1.27628         23.1405         6.53838 
        1.28244          23.056         6.46299 
        1.28858         22.9174         6.38889 
        1.29471         22.7979         6.31612 
        1.30084         22.6562         6.24455 
        1.30697         22.5205         6.17399 
        1.31312         22.3462         6.10441 
        1.31925         22.2053         6.03614 
        1.32537         22.0741         5.96897 
        1.33151         21.9407         5.90259 
        1.33765         21.8571         5.83726 
        1.34378         21.6896         5.77306 
        1.34992         21.5395         5.70977 
        1.35606          21.435          5.6473 
         1.3622         21.3496         5.58588 
        1.36833         21.1543         5.52552 
        1.37445         21.1148         5.46608 
        1.38059         20.9388         5.40734 
        1.38675         20.7269         5.34932 
        1.39288         20.7293         5.29239 
        1.39901         20.5734         5.23632 
        1.40515         20.4595         5.18093 
         1.4113         20.3408         5.12637 
        1.41742         20.2137          5.0728 
        1.42355         20.1518          5.0199 
         1.4297         20.0358          4.9676 
        1.43585          19.967         4.91606 
        1.44198          19.769         4.86545 
        1.44809         19.6926         4.81565 
        1.45423         19.5797         4.76637 
        1.46036         19.5399         4.71787 
        1.46649         19.3902         4.67002 
        1.47263         19.2663          4.6228 
        1.47877         19.2168         4.57626 
        1.48491         19.1874         4.53028 
        1.49104         18.9917         4.48503 
        1.49718         18.8559         4.44037 
        1.50333         18.8317         4.39625 
        1.50947         18.7201         4.35282 
         1.5156          18.637         4.31004 
        1.52172         18.5394         4.26783 
        1.52787          18.434         4.22611 
          1.534         18.3358         4.18499 
        1.54013         18.2101         4.14447 
        1.54627           18.16         4.10441 
        1.55241         17.9928         4.06487 
        1.55855         17.9491         4.02591 
        1.56467         17.8202         3.98757 
         1.5708         17.8224         3.94962 
        1.57695         17.6653         3.91211 
        1.58308         17.5865         3.87517 
        1.58922         17.5238         3.83868 
        1.59535         17.4233         3.80268 
         1.6015         17.3258         3.76709 
        1.60764         17.2721         3.73197 
        1.61376         17.1079          3.6974 
        1.61989         17.0636         3.66323 
        1.62604          17.032         3.62943 
        1.63218         16.9413         3.59607 
        1.63831         16.8453         3.56321 
        1.64444         16.7632         3.53074 
        1.65059         16.6757         3.49861 
        1.65673         16.5659         3.46691 
        1.66285         16.5696         3.43569 
        1.66898         16.4689         3.40485 
        1.67512           16.39         3.37432 
        1.68127         16.3002         3.34415 
         1.6874          16.216          3.3144 
        1.69353         16.1569         3.28504 
        1.69967         16.0691         3.25597 
        1.70581         15.9797         3.22726 
        1.71193         15.9468           3.199 
        1.71806          15.836         3.17103 
        1.72421         15.7741         3.14333 
        1.73035         15.6711           3.116 
        1.73649         15.6717           3.089 
        1.74262         15.5803         3.06234 
        1.74876         15.5417         3.03597 
        1.75489         15.4351         3.00997 
        1.76101         15.3626         2.98429 
        1.76715         15.2946         2.95887 
        1.77329         15.2668         2.93371 
        1.77943         15.1789         2.90884 
        1.78557         15.1042         2.88429 
        1.79171         15.0236         2.86002 
        1.79785         14.9506         2.83602 
        1.80399         14.9241         2.81231 
        1.81012         14.8613         2.78889 
        1.81625         14.8063         2.76576 
        1.82239         14.7286         2.74285 
        1.82853         14.6413         2.72021 
        1.83466         14.5962         2.69785 
        1.84078         14.5011         2.67577 
        1.84692         14.4772          2.6539 
        1.85306         14.4084         2.63224 
         1.8592         14.3344         2.61086 
        1.86533         14.2828         2.58973 
        1.87147         14.2285         2.56881 
        1.87761         14.1854         2.54812 
        1.88375          14.129         2.52767 
        1.88988         14.0495         2.50747 
        1.89601         13.9907         2.48748 
        1.90215         13.9499         2.46769 
        1.90829         13.8869         2.44813 
        1.91442         13.8253         2.42878 
        1.92056         13.7712         2.40966 
         1.9267         13.7019         2.39072 
        1.93284         13.6339         2.37197 
        1.93897         13.6082         2.35346 
        1.94509         13.5411         2.33519 
        1.95123          13.511         2.31706 
        1.95737         13.4372         2.29912 
        1.96349         13.3824         2.28141 
        1.96964         13.3318         2.26383 
        1.97578         13.2625         2.24644 
        1.98192         13.2116         2.22926 
        1.98805         13.1755         2.21226 
        1.99419         13.1225         2.19543 
        2.00033         13.0184         2.17877 
        2.00647         12.9887          2.1623 
         2.0126         12.9554         2.14601 
        2.01874         12.8955         2.12987 
        2.02488         12.8605         2.11389 
        2.03101         12.8058          2.0981 
        2.03714         12.7637         2.08248 
        2.04328         12.6889           2.067 
        2.04941         12.6431          2.0517 
        2.05554         12.6092         2.03656 
        2.06167         12.5622         2.02155 
        2.06781         12.5087         2.00669 
        2.07396         12.4738         1.99196 
        2.08009         12.4409         1.97741 
        2.08622         12.3346         1.96301 
        2.09237         12.3275         1.94873 
        2.09851         12.2769         1.93459 
        2.10464         12.2066         1.92062 
        2.11077         12.1812         1.90679 
        2.11691         12.1314         1.89308 
        2.12305         12.1136          1.8795 
        2.12918         12.0365         1.86608 
        2.13531         11.9924         1.85279 
        2.14145         11.9563         1.83961 
         2.1476         11.9193         1.82653 
        2.15372          11.855         1.81365 
        2.15985         11.8041         1.80088 
        2.16599         11.7798          1.7882 
        2.17213         11.7214         1.77565 
        2.17827         11.6739         1.76323 
         2.1844         11.6153         1.75093 
        2.19054         11.6167         1.73875 
        2.19666         11.5829          1.7267 
         2.2028         11.5172         1.71476 
        2.20893         11.4756         1.70292 
        2.21508         11.4183         1.69118 
        2.22122         11.3489         1.67955 
        2.22736         11.3496         1.66805 
        2.23349         11.3041         1.65666 
        2.23962         11.2659         1.64537 
        2.24577         11.2139         1.63418 
         2.2519         11.1753          1.6231 
        2.25802          11.145         1.61215 
        2.26417         11.1144         1.60127 
        2.27031         11.0417         1.59047 
        2.27644          11.032         1.57981 
        2.28257         10.9786         1.56925 
        2.28872         10.9374         1.55876 
        2.29486         10.9075         1.54837 
        2.30099         10.8706          1.5381 
        2.30712         10.8332         1.52792 
        2.31326          10.784         1.51781 
         2.3194         10.7605         1.50779 
        2.32553         10.7205         1.49789 
        2.33166         10.6667         1.48808 
         2.3378         10.6355         1.47834 
        2.34394         10.6048         1.46869 
        2.35007          10.556         1.45913 
        2.35619         10.5072         1.44968 
        2.36233         10.4864         1.44028 
        2.36848         10.4663         1.43095 
        2.37462         10.4182         1.42172 
        2.38075         10.3677         1.41258 
        2.38689         10.3545         1.40352 
        2.39303         10.3046         1.39453 
        2.39916         10.2764         1.38563 
        2.40529         10.2461         1.37682 
        2.41143         10.2065         1.36807 
        2.41757         10.1687         1.35939 
         2.4237         10.1445          1.3508 
        2.42983         10.1009         1.34229 
        2.43598         10.0747         1.33383 
        2.44211         10.0313         1.32546 
        2.44823         9.99436         1.31718 
        2.45437         9.97344         1.30894 
        2.46052           9.923         1.30077 
        2.46665          9.9034         1.29269 
        2.47279         9.85343         1.28467 
        2.47892         9.82544         1.27672 
        2.48507         9.78997         1.26883 
         2.4912         9.77454         1.26102 
