# k  (h/Mpc)    Pcb(k)  (Mpc/h)^3    Pcb_linear(k)  (Mpc/h)^3
     0.00783031         17398.3         17507.1 
       0.013688         18982.8         19476.7 
       0.019231         17778.5         18030.8 
      0.0249154         15369.9         15265.2 
      0.0312784         12037.3         12080.9 
      0.0375637         9508.34         9597.98 
      0.0433917         8058.93         8037.62 
      0.0492413         7039.23         7062.18 
      0.0555754         6450.98         6419.19 
      0.0619321          5791.1         5936.55 
       0.067871         5408.12         5457.67 
      0.0738098         4894.65         4887.76 
      0.0800417          4270.6         4225.91 
      0.0862327         3635.21          3592.8 
      0.0921407          3173.5         3088.13 
      0.0982031         2838.03         2708.64 
       0.104506         2530.76         2455.97 
       0.110769         2389.56         2308.03 
       0.116806         2311.25         2211.48 
       0.122832         2183.12         2114.06 
       0.129052         2044.27         1982.57 
       0.135211         1931.96         1816.82 
       0.141259         1735.66         1636.09 
       0.147318         1564.17         1461.89 
       0.153489         1435.21         1312.61 
       0.159709         1358.84         1201.01 
       0.165845         1247.59         1126.99 
       0.171974         1224.02         1078.23 
       0.178125         1182.15         1040.36 
       0.184229         1098.53         1000.97 
        0.19034         1070.99         952.153 
       0.196428          1025.9         893.291 
       0.202534         943.272         828.635 
       0.208729         915.935         764.514 
       0.214876         862.901         708.666 
       0.220989         808.839         664.093 
       0.227147         785.799         630.155 
        0.23329         754.159         604.499 
       0.239377         747.076         583.201 
       0.245482         707.241          562.24 
       0.251667         679.856         538.949 
       0.257832         666.111         513.036 
       0.263955         628.436         485.717 
       0.270079         602.686         458.686 
        0.27624         576.299         433.652 
       0.282372         563.625         412.074 
        0.28843         555.057         394.193 
       0.294538         526.407         379.068 
       0.300721         512.583         365.603 
        0.30691         501.069         352.851 
       0.313033          477.71         340.091 
       0.319153         470.278         326.893 
       0.325316         461.263         313.272 
        0.33145         448.596         299.874 
       0.337538         430.957         287.226 
       0.343633         419.023         275.628 
       0.349808         407.817         265.082 
       0.355968         399.966         255.693 
       0.362074         384.359         247.212 
       0.368217         381.583         239.179 
       0.374374         374.484         231.365 
       0.380519          358.68         223.618 
       0.386598         354.372         216.014 
       0.392688         344.471         208.533 
        0.39888         336.129         201.192 
       0.405048         327.891          194.29 
       0.411186         327.028         187.877 
       0.417313         321.674         181.923 
       0.423458          312.96         176.353 
       0.429607         302.999         171.075 
       0.435692         298.672         166.053 
       0.441815         292.843         161.149 
       0.447964         286.121         156.343 
       0.454126         282.715         151.644 
       0.460267         277.847         147.116 
       0.466387         271.069         142.789 
        0.47254         268.032          138.64 
       0.478662         261.766         134.714 
       0.484765         257.547         130.997 
       0.490885         254.712         127.442 
       0.497035         249.156         124.008 
       0.503198         248.192         120.681 
       0.509342         242.571          117.47 
       0.515458         237.868         114.373 
       0.521598         233.835          111.36 
       0.527764          230.76         108.434 
       0.533884         228.404         105.638 
           0.54         224.972         102.954 
       0.546137         219.855         100.368 
       0.552299         218.134           97.87 
       0.558452         214.392         95.4645 
       0.564573         213.479         93.1512 
       0.570708          208.49         90.9074 
       0.576825         205.286         88.7413 
       0.582926         203.885         86.6478 
       0.589034         199.927          84.616 
       0.595184         198.484         82.6343 
       0.601379          195.32         80.7034 
       0.607522         190.545         78.8524 
       0.613639         189.922         77.0708 
       0.619772         188.681          75.343 
       0.625918         185.447         73.6663 
       0.632068         182.701         72.0398 
       0.638161         181.797         70.4756 
         0.6443         178.856         68.9451 
       0.650464         176.554         67.4537 
       0.656582         174.559         66.0168 
       0.662703         173.883         64.6217 
       0.668861         169.868         63.2598 
       0.675024         169.372         61.9371 
       0.681124         166.892         60.6661 
       0.687237         165.836         59.4288 
       0.693381         162.626         58.2203 
       0.699536         162.144         57.0434 
       0.705665         160.223         55.9038 
       0.711789         157.832         54.7964 
       0.717957         156.783         53.7114 
        0.72409         154.443         52.6619 
       0.730186         155.003         51.6469 
       0.736317         152.709         50.6534 
       0.742472         150.721         49.6826 
       0.748622         148.906         48.7384 
        0.75476         148.734          47.821 
       0.760888         146.775         46.9287 
       0.767043          144.35         46.0557 
       0.773185         142.845         45.2068 
       0.779291         141.965         44.3842 
       0.785407         140.884         43.5808 
       0.791564         139.641         42.7923 
       0.797719         137.283         42.0238 
       0.803834         137.721          41.279 
       0.809972         135.973         40.5497 
       0.816124         133.575         39.8365 
       0.822261         132.923         39.1424 
       0.828378         132.266         38.4669 
       0.834502         131.029         37.8069 
       0.840667         130.619         37.1582 
       0.846816         128.287         36.5266 
       0.852925         127.847         35.9137 
       0.859047         126.403         35.3136 
       0.865192         125.853         34.7254 
       0.871341         124.753         34.1501 
       0.877463         123.396         33.5905 
       0.883569         123.301         33.0449 
       0.889708         122.228         32.5086 
       0.895864           120.6         31.9829 
       0.902008         119.539           31.47 
       0.908149         118.399         30.9686 
       0.914301         117.545         30.4773 
       0.920448         117.502         29.9972 
       0.926574         115.698         29.5292 
       0.932687         115.566         29.0721 
       0.938823         114.628         28.6231 
       0.944975         114.081         28.1826 
       0.951105         112.761          27.753 
       0.957225         111.972         27.3331 
       0.963368          111.37         26.9204 
       0.969511         110.322         26.5163 
       0.975621         108.703         26.1227 
       0.981748          108.62         25.7361 
       0.987916         107.891         25.3549 
        0.99406         107.126         24.9828 
        1.00019         106.592          24.619 
        1.00632          105.54         24.2628 
        1.01246         104.873          23.913 
        1.01859         104.075         23.5708 
        1.02471         103.421         23.2357 
        1.03085         102.705         22.9059 
        1.03698         101.927         22.5833 
        1.04314         101.508         22.2655 
        1.04929         100.964         21.9546 
        1.05541          100.38         21.6509 
        1.06154          99.274         21.3522 
        1.06769          98.679         21.0586 
        1.07382         98.0819         20.7716 
        1.07993         97.6056         20.4905 
        1.08607         97.2915         20.2135 
        1.09222         96.1546         19.9413 
        1.09836         95.6348         19.6745 
        1.10449         95.1671         19.4128 
        1.11063         94.2643         19.1557 
        1.11677         93.9983         18.9032 
         1.1229         92.9843         18.6558 
        1.12903         92.2294         18.4126 
        1.13518         91.7178         18.1735 
        1.14131         91.5764         17.9388 
        1.14745         90.8054         17.7084 
        1.15359         90.2188          17.482 
        1.15973         89.7536         17.2594 
        1.16584          89.073         17.0418 
        1.17197         88.6801         16.8275 
        1.17811         88.0552         16.6164 
        1.18424          87.441         16.4094 
        1.19038          87.005         16.2054 
        1.19652         86.4968         16.0049 
        1.20267         85.8193         15.8078 
        1.20881         85.2379         15.6141 
        1.21495         85.1068         15.4239 
        1.22108         84.3825          15.237 
         1.2272         84.2306         15.0536 
        1.23334         83.6016         14.8727 
        1.23949         82.9902         14.6944 
        1.24562         82.3658         14.5196 
        1.25174         82.4474         14.3478 
        1.25789         81.5993         14.1783 
        1.26402         81.1913         14.0118 
        1.27014         80.4881         13.8485 
        1.27628         80.2843         13.6872 
        1.28244         79.9224         13.5282 
        1.28858         79.4335         13.3719 
        1.29471         78.8924         13.2184 
        1.30084         78.3357         13.0675 
        1.30697         77.9031         12.9188 
        1.31312         77.6485         12.7721 
        1.31925         76.9291         12.6281 
        1.32537         76.5548         12.4865 
        1.33151         76.4887         12.3466 
        1.33765         75.7979         12.2089 
        1.34378          75.579         12.0736 
        1.34992         75.0732         11.9402 
        1.35606         74.8656         11.8085 
         1.3622         74.4227         11.6791 
        1.36833         73.8803         11.5519 
        1.37445         73.5699         11.4266 
        1.38059         73.0547         11.3029 
        1.38675         72.7609         11.1806 
        1.39288         72.2853         11.0607 
        1.39901         71.9668         10.9426 
        1.40515         71.5178         10.8259 
         1.4113         71.1125          10.711 
        1.41742         70.9754         10.5982 
        1.42355         70.5425         10.4868 
         1.4297         70.0497         10.3767 
        1.43585         69.9212         10.2681 
        1.44198         69.2854         10.1616 
        1.44809         68.9054         10.0568 
        1.45423         68.8748         9.95302 
        1.46036         68.2465         9.85093 
        1.46649         67.8214         9.75023 
        1.47263         67.4224         9.65086 
        1.47877         67.3199         9.55292 
        1.48491         66.8031         9.45618 
        1.49104          66.465         9.36099 
        1.49718          66.086         9.26703 
        1.50333         65.8015         9.17421 
        1.50947          65.622         9.08285 
         1.5156         65.2079         8.99287 
        1.52172         64.6582          8.9041 
        1.52787         64.5504         8.81636 
          1.534         64.2436         8.72989 
        1.54013         63.8773         8.64467 
        1.54627         63.4938         8.56043 
        1.55241         63.3877          8.4773 
        1.55855         62.7384         8.39539 
        1.56467         62.4021         8.31478 
         1.5708         62.1211           8.235 
        1.57695          61.868         8.15614 
        1.58308         61.6468          8.0785 
        1.58922         61.3253         8.00181 
        1.59535         61.2047         7.92615 
         1.6015         60.6769         7.85135 
        1.60764         60.4097         7.77756 
        1.61376         60.2862         7.70491 
        1.61989         59.7966         7.63314 
        1.62604         59.6378         7.56212 
        1.63218         59.1955         7.49204 
        1.63831         59.0561         7.42301 
        1.64444         58.7137         7.35482 
        1.65059         58.3642         7.28733 
        1.65673          58.199         7.22076 
        1.66285         57.8015          7.1552 
        1.66898         57.3937         7.09043 
        1.67512         57.1362         7.02634 
        1.68127         56.9871         6.96298 
         1.6874         56.7547         6.90055 
        1.69353         56.4129         6.83891 
        1.69967         56.1073         6.77788 
        1.70581         55.8818         6.71762 
        1.71193         55.5925         6.65832 
        1.71806         55.3504         6.59961 
        1.72421         55.0498         6.54149 
        1.73035         54.7726         6.48413 
        1.73649         54.5512         6.42747 
        1.74262         54.2766         6.37154 
        1.74876         54.0139         6.31622 
        1.75489         53.8581         6.26168 
        1.76101         53.5672          6.2078 
        1.76715          53.268         6.15447 
        1.77329         53.0125         6.10171 
        1.77943         52.7821         6.04953 
        1.78557         52.6012         5.99805 
        1.79171          52.183         5.94715 
        1.79785         52.0829         5.89683 
        1.80399         51.8497          5.8471 
        1.81012         51.4933         5.79801 
        1.81625         51.3214          5.7495 
        1.82239         50.9246         5.70148 
        1.82853         50.8742         5.65402 
        1.83466           50.56         5.60715 
        1.84078         50.2271         5.56086 
        1.84692         50.1713         5.51502 
        1.85306         50.0547         5.46963 
         1.8592         49.7066         5.42483 
        1.86533         49.4114         5.38055 
        1.87147         49.1277         5.33672 
        1.87761         48.8036         5.29335 
        1.88375         48.7795         5.25052 
        1.88988         48.5903          5.2082 
        1.89601         48.3681         5.16633 
        1.90215         48.0902         5.12488 
        1.90829         47.8259          5.0839 
        1.91442         47.5604         5.04337 
        1.92056         47.4001         5.00332 
         1.9267          47.173         4.96366 
        1.93284         46.9911          4.9244 
        1.93897         46.6695         4.88564 
        1.94509         46.5547         4.84738 
        1.95123         46.3001         4.80944 
        1.95737         46.1384         4.77187 
        1.96349         45.9687          4.7348 
        1.96964          45.676         4.69801 
        1.97578         45.3965          4.6616 
        1.98192         45.1517         4.62565 
        1.98805         44.9757         4.59007 
        1.99419         44.9279         4.55486 
        2.00033         44.6319         4.52001 
        2.00647         44.4087         4.48552 
         2.0126         44.2752         4.45146 
        2.01874          44.119         4.41769 
        2.02488         43.8879         4.38425 
        2.03101         43.6527         4.35121 
        2.03714          43.448         4.31854 
        2.04328         43.3325         4.28617 
        2.04941         42.9946         4.25416 
        2.05554         42.7664         4.22249 
        2.06167         42.5991         4.19111 
        2.06781          42.527         4.16003 
        2.07396         42.2692         4.12923 
        2.08009         42.1312         4.09879 
        2.08622         41.8931         4.06869 
        2.09237         41.7085         4.03883 
        2.09851         41.4485         4.00927 
        2.10464         41.2647         3.98005 
        2.11077         41.1462         3.95116 
        2.11691         40.9485         3.92249 
        2.12305         40.7434          3.8941 
        2.12918         40.5025         3.86606 
        2.13531         40.3841         3.83829 
        2.14145         40.1497         3.81073 
         2.1476         40.1554         3.78341 
        2.15372         39.8434         3.75649 
        2.15985         39.6731         3.72981 
        2.16599         39.5545         3.70331 
        2.17213         39.3666         3.67709 
        2.17827          39.137         3.65114 
         2.1844         38.9346         3.62545 
        2.19054         38.9198         3.60001 
        2.19666         38.6721         3.57484 
         2.2028         38.4679         3.54989 
        2.20893         38.2269         3.52517 
        2.21508         38.1519         3.50065 
        2.22122         37.8611         3.47636 
        2.22736         37.7416         3.45234 
        2.23349         37.6445         3.42856 
        2.23962         37.5205         3.40499 
        2.24577         37.2661         3.38162 
         2.2519         37.0831         3.35851 
        2.25802         36.9234         3.33564 
        2.26417         36.7428         3.31292 
        2.27031         36.6191          3.2904 
        2.27644         36.3936         3.26814 
        2.28257         36.3253          3.2461 
        2.28872         36.1241         3.22421 
        2.29486         35.9276         3.20253 
        2.30099         35.8167          3.1811 
        2.30712         35.6274         3.15985 
        2.31326         35.5077         3.13875 
         2.3194         35.3348         3.11787 
        2.32553         35.2005          3.0972 
        2.33166         35.0978         3.07673 
         2.3378         34.8527         3.05642 
        2.34394         34.7288         3.03629 
        2.35007         34.6232         3.01636 
        2.35619         34.4017         2.99664 
        2.36233          34.285         2.97704 
        2.36848         34.1047         2.95758 
        2.37462         34.0027         2.93834 
        2.38075         33.8359         2.91928 
        2.38689         33.6477         2.90037 
        2.39303          33.545         2.88164 
        2.39916         33.4385         2.86309 
        2.40529         33.2693          2.8447 
        2.41143         33.1505         2.82647 
        2.41757         32.9772         2.80838 
         2.4237         32.8096         2.79048 
        2.42983         32.7075         2.77274 
        2.43598         32.5631         2.75511 
        2.44211         32.3575         2.73766 
        2.44823          32.286          2.7204 
        2.45437         32.1252         2.70324 
        2.46052         31.9441         2.68622 
        2.46665         31.8088         2.66937 
        2.47279         31.6872         2.65267 
        2.47892         31.5301          2.6361 
        2.48507         31.4036         2.61966 
         2.4912         31.2578         2.60338 
