# k  (h/Mpc)    Pcb(k)  (Mpc/h)^3    Pcb_linear(k)  (Mpc/h)^3
     0.00783031         1395.57         1410.28 
       0.013688         1665.52         1667.87 
       0.019231         1615.42         1614.86 
      0.0249154         1413.72         1421.15 
      0.0312784         1163.44         1163.16 
      0.0375637          946.31         942.505 
      0.0433917         793.841         793.817 
      0.0492413         698.117         696.262 
      0.0555754         629.654         632.246 
      0.0619321         592.761         589.615 
       0.067871         550.183         552.183 
      0.0738098         505.546         507.496 
      0.0800417         448.669         451.407 
      0.0862327         391.639         391.949 
      0.0921407         340.249         339.254 
      0.0982031          295.41         295.178 
       0.104506         265.405         262.566 
       0.110769         244.568         242.259 
       0.116806         231.268         230.586 
       0.122832         223.758         222.357 
       0.129052         213.192         213.353 
       0.135211         201.226         201.372 
       0.141259         187.283         186.254 
       0.147318         171.092         169.177 
       0.153489         153.577         152.061 
       0.159709         139.158         137.175 
       0.165845         128.981          125.93 
       0.171974          120.08         118.157 
       0.178125         115.195         113.047 
       0.184229         111.603         109.427 
        0.19034         106.893         106.003 
       0.196428         103.547         101.883 
       0.202534         99.1629         96.6797 
       0.208729         92.5592          90.516 
       0.214876         85.8828         84.1122 
       0.220989         80.6728         78.1265 
       0.227147         75.0083         72.9852 
        0.23329         71.0143         68.9477 
       0.239377         68.2836          65.936 
       0.245482         65.2194         63.6162 
       0.251667         63.8244          61.595 
       0.257832         61.6462         59.5576 
       0.263955          59.382         57.3001 
       0.270079         56.8393         54.7606 
        0.27624         54.6034          52.027 
       0.282372         51.9686         49.3132 
        0.28843         49.2368         46.8154 
       0.294538         47.0067         44.6085 
       0.300721         45.5075         42.7269 
        0.30691         43.5294         41.1587 
       0.313033          42.194          39.816 
       0.319153         40.4297         38.5723 
       0.325316         39.7586         37.3206 
        0.33145         38.2786         36.0275 
       0.337538         37.0405         34.6882 
       0.343633         35.5422         33.3301 
       0.349808         34.3533         31.9857 
       0.355968         33.1447         30.7287 
       0.362074          31.947         29.5961 
       0.368217         30.9311         28.5769 
       0.374374         29.9044         27.6616 
       0.380519         29.1542         26.8215 
       0.386598         28.3836         26.0328 
       0.392688         27.7145         25.2575 
        0.39888         26.8358         24.4697 
       0.405048         26.1019          23.687 
       0.411186         25.3715         22.9172 
       0.417313         24.4983         22.1731 
       0.423458         23.8132         21.4654 
       0.429607         23.1078         20.8018 
       0.435692         22.4054         20.1907 
       0.441815          21.904         19.6175 
       0.447964         21.4875         19.0732 
       0.454126         20.7036         18.5497 
       0.460267         20.2899         18.0436 
       0.466387         19.6549         17.5496 
        0.47254         19.2846         17.0618 
       0.478662         18.8943         16.5889 
       0.484765         18.2917         16.1334 
       0.490885         17.8492         15.6951 
       0.497035         17.5978         15.2745 
       0.503198         17.0999         14.8741 
       0.509342         16.6704         14.4942 
       0.515458         16.2818         14.1318 
       0.521598         15.9598         13.7806 
       0.527764         15.5684         13.4387 
       0.533884         15.3048         13.1092 
           0.54         14.9378         12.7889 
       0.546137         14.6551         12.4761 
       0.552299         14.3744         12.1718 
       0.558452         13.9375         11.8786 
       0.564573         13.7228         11.5979 
       0.570708         13.4505         11.3272 
       0.576825         13.1062          11.067 
       0.582926         12.8626         10.8163 
       0.589034         12.5158         10.5733 
       0.595184         12.3281         10.3362 
       0.601379          12.055         10.1044 
       0.607522         11.8683         9.88117 
       0.613639         11.7033         9.66504 
       0.619772          11.381         9.45453 
       0.625918         11.2812         9.24989 
       0.632068         11.0951         9.05151 
       0.638161         10.8223         8.86122 
         0.6443         10.6019          8.6755 
       0.650464          10.385         8.49472 
       0.656582         10.2974         8.32049 
       0.662703         10.0994         8.15105 
       0.668861         9.91121         7.98522 
       0.675024         9.71195         7.82377 
       0.681124         9.54022         7.66838 
       0.687237         9.39228         7.51692 
       0.693381         9.26155         7.36893 
       0.699536         9.00902         7.22478 
       0.705665         8.91548          7.0852 
       0.711789         8.75551         6.94953 
       0.717957         8.60644         6.81654 
        0.72409         8.46083         6.68781 
       0.730186         8.34081         6.56321 
       0.736317         8.24797         6.44112 
       0.742472         8.11357         6.32171 
       0.748622         7.97871         6.20546 
        0.75476         7.81982         6.09242 
       0.760888         7.71025          5.9824 
       0.767043          7.6135          5.8747 
       0.773185          7.4606         5.76992 
       0.779291         7.39791         5.66834 
       0.785407         7.27913         5.56909 
       0.791564          7.1678         5.47162 
       0.797719         7.03398         5.37657 
       0.803834         6.98704          5.2844 
       0.809972         6.90292         5.19407 
       0.816124         6.75985         5.10568 
       0.822261          6.6474          5.0196 
       0.828378         6.56681         4.93579 
       0.834502         6.51394         4.85383 
       0.840667         6.38614         4.77322 
       0.846816         6.27793         4.69469 
       0.852925         6.22376         4.61844 
       0.859047         6.13963         4.54373 
       0.865192         6.07839         4.47046 
       0.871341         6.01039         4.39877 
       0.877463         5.91283         4.32899 
       0.883569         5.81507         4.26092 
       0.889708          5.7242         4.19398 
       0.895864         5.66173         4.12832 
       0.902008         5.59809         4.06421 
       0.908149         5.54004         4.00152 
       0.914301         5.45362         3.94006 
       0.920448         5.37742         3.87996 
       0.926574         5.30636         3.82133 
       0.932687         5.24914         3.76405 
       0.938823         5.18321         3.70775 
       0.944975         5.11729         3.65248 
       0.951105         5.06169         3.59855 
       0.957225         5.03618         3.54581 
       0.963368         4.96473         3.49395 
       0.969511         4.89749         3.44315 
       0.975621         4.83257         3.39363 
       0.981748         4.78263         3.34497 
       0.987916         4.73301         3.29697 
        0.99406          4.6521          3.2501 
        1.00019          4.5946         3.20425 
        1.00632         4.56756         3.15933 
        1.01246         4.51353         3.11521 
        1.01859          4.4513         3.07201 
        1.02471         4.40791          3.0297 
        1.03085         4.35584         2.98804 
        1.03698         4.29878         2.94726 
        1.04314         4.26474         2.90708 
        1.04929         4.21215         2.86775 
        1.05541         4.16253          2.8293 
        1.06154         4.12498         2.79148 
        1.06769         4.10094         2.75429 
        1.07382          4.0319         2.71791 
        1.07993         3.98544         2.68228 
        1.08607         3.96492         2.64714 
        1.09222          3.9155          2.6126 
        1.09836         3.87638         2.57873 
        1.10449         3.83812         2.54549 
        1.11063         3.79127         2.51282 
        1.11677         3.76296         2.48072 
         1.1229         3.72644         2.44925 
        1.12903         3.67927          2.4183 
        1.13518         3.64418         2.38787 
        1.14131         3.59874         2.35798 
        1.14745         3.55273         2.32862 
        1.15359         3.53392         2.29975 
        1.15973         3.48911         2.27137 
        1.16584         3.45836          2.2436 
        1.17197         3.42561         2.21626 
        1.17811         3.40391         2.18929 
        1.18424         3.36898         2.16285 
        1.19038         3.34413         2.13678 
        1.19652         3.30685         2.11115 
        1.20267         3.27402         2.08594 
        1.20881         3.24801         2.06115 
        1.21495         3.21749         2.03681 
        1.22108         3.18641         2.01287 
         1.2272          3.1648         1.98937 
        1.23334         3.12398          1.9662 
        1.23949         3.09283         1.94334 
        1.24562         3.07554         1.92091 
        1.25174         3.03946         1.89888 
        1.25789         3.01798         1.87712 
        1.26402         2.98844         1.85575 
        1.27014         2.96158         1.83476 
        1.27628         2.94174         1.81404 
        1.28244         2.90432          1.7936 
        1.28858          2.8906         1.77351 
        1.29471         2.85511         1.75377 
        1.30084         2.82827         1.73435 
        1.30697         2.82326          1.7152 
        1.31312         2.77349         1.69631 
        1.31925         2.75888         1.67777 
        1.32537         2.73403         1.65952 
        1.33151         2.72061         1.64148 
        1.33765         2.68488         1.62373 
        1.34378         2.66853         1.60627 
        1.34992         2.65382         1.58906 
        1.35606         2.61458         1.57206 
         1.3622         2.60608         1.55535 
        1.36833         2.58144         1.53892 
        1.37445         2.55909         1.52274 
        1.38059         2.54848         1.50674 
        1.38675         2.53047         1.49093 
        1.39288         2.50424         1.47541 
        1.39901           2.477         1.46013 
        1.40515         2.46004         1.44502 
         1.4113         2.44421         1.43014 
        1.41742         2.42492         1.41553 
        1.42355         2.40792         1.40109 
         1.4297         2.38441         1.38681 
        1.43585         2.37224         1.37274 
        1.44198         2.35765         1.35892 
        1.44809         2.33185         1.34531 
        1.45423         2.31341         1.33185 
        1.46036         2.29278         1.31859 
        1.46649         2.27846         1.30551 
        1.47263         2.25922          1.2926 
        1.47877         2.23973         1.27987 
        1.48491         2.22417         1.26729 
        1.49104         2.21138         1.25491 
        1.49718         2.19598         1.24268 
        1.50333         2.17909          1.2306 
        1.50947          2.1631         1.21871 
         1.5156         2.14605         1.20699 
        1.52172           2.131         1.19543 
        1.52787         2.11519           1.184 
          1.534         2.09851         1.17273 
        1.54013         2.08525         1.16162 
        1.54627         2.06756         1.15063 
        1.55241         2.05096         1.13979 
        1.55855         2.04089          1.1291 
        1.56467          2.0283         1.11858 
         1.5708         2.00876         1.10816 
        1.57695         1.99602         1.09787 
        1.58308         1.98071         1.08772 
        1.58922         1.97098          1.0777 
        1.59535         1.95659         1.06781 
         1.6015          1.9418         1.05803 
        1.60764         1.93082         1.04838 
        1.61376         1.91909         1.03887 
        1.61989         1.90305         1.02948 
        1.62604         1.88834         1.02018 
        1.63218         1.88382           1.011 
        1.63831          1.8637         1.00196 
        1.64444         1.85192        0.993026 
        1.65059         1.84203        0.984179 
        1.65673         1.82924        0.975451 
        1.66285          1.8154        0.966852 
        1.66898         1.80685        0.958356 
        1.67512         1.78949        0.949945 
        1.68127         1.77873        0.941629 
         1.6874         1.77425        0.933431 
        1.69353         1.75195        0.925336 
        1.69967         1.74277        0.917318 
        1.70581         1.73856          0.9094 
        1.71193         1.72243        0.901605 
        1.71806         1.71603        0.893885 
        1.72421         1.70332        0.886242 
        1.73035         1.69233        0.878696 
        1.73649         1.68145        0.871241 
        1.74262         1.67032        0.863878 
        1.74876         1.66307        0.856597 
        1.75489         1.64656        0.849414 
        1.76101         1.63731        0.842317 
        1.76715         1.63017        0.835291 
        1.77329         1.62142        0.828337 
        1.77943         1.60607         0.82146 
        1.78557         1.59747        0.814672 
        1.79171         1.59318        0.807959 
        1.79785         1.57825        0.801321 
        1.80399         1.57042         0.79476 
        1.81012         1.56296        0.788281 
        1.81625         1.55231        0.781877 
        1.82239         1.54139        0.775536 
        1.82853         1.52847        0.769268 
        1.83466         1.52427        0.763076 
        1.84078         1.51482        0.756958 
        1.84692         1.50793        0.750898 
        1.85306         1.49602        0.744897 
         1.8592         1.48706        0.738972 
        1.86533         1.47843        0.733114 
        1.87147         1.47239        0.727313 
        1.87761         1.46218        0.721573 
        1.88375         1.45204        0.715902 
        1.88988         1.44684        0.710298 
        1.89601         1.43664        0.704751 
        1.90215         1.42477         0.69926 
        1.90829         1.41655        0.693829 
        1.91442         1.41312        0.688457 
        1.92056         1.40309        0.683146 
         1.9267         1.39498        0.677886 
        1.93284          1.3917        0.672678 
        1.93897         1.38121        0.667536 
        1.94509          1.3725        0.662458 
        1.95123         1.36311        0.657421 
        1.95737         1.35641        0.652433 
        1.96349         1.34968        0.647509 
        1.96964         1.34384        0.642623 
        1.97578         1.33382        0.637784 
        1.98192         1.32769        0.633006 
        1.98805         1.31971        0.628276 
        1.99419         1.31556        0.623595 
        2.00033         1.31038        0.618959 
        2.00647         1.29831        0.614372 
         2.0126         1.29401        0.609839 
        2.01874         1.28421        0.605345 
        2.02488         1.28064        0.600893 
        2.03101         1.26914        0.596494 
        2.03714         1.26309        0.592144 
        2.04328         1.25914        0.587832 
        2.04941         1.24933        0.583566 
        2.05554         1.24465        0.579347 
        2.06167         1.23737        0.575163 
        2.06781         1.23314        0.571021 
        2.07396         1.22556        0.566913 
        2.08009         1.21923        0.562853 
        2.08622         1.21197        0.558838 
        2.09237         1.20631        0.554854 
        2.09851         1.19996        0.550909 
        2.10464         1.19688        0.547009 
        2.11077         1.18829        0.543151 
        2.11691         1.18159        0.539322 
        2.12305         1.17711        0.535529 
        2.12918          1.1707        0.531783 
        2.13531         1.16431        0.528072 
        2.14145         1.15839        0.524388 
         2.1476         1.15048        0.520735 
        2.15372         1.14638        0.517136 
        2.15985         1.13948        0.513566 
        2.16599         1.13532        0.510021 
        2.17213         1.12692        0.506513 
        2.17827         1.12435        0.503039 
         2.1844          1.1195          0.4996 
        2.19054         1.11502        0.496193 
        2.19666         1.10793        0.492822 
         2.2028          1.1021         0.48948 
        2.20893         1.09764        0.486168 
        2.21508         1.09301        0.482882 
        2.22122         1.08346        0.479626 
        2.22736         1.08015        0.476407 
        2.23349         1.07813        0.473218 
        2.23962         1.06972        0.470057 
        2.24577         1.06615        0.466922 
         2.2519         1.05948         0.46382 
        2.25802         1.05581        0.460751 
        2.26417         1.05032        0.457702 
        2.27031         1.04615        0.454677 
        2.27644         1.04015        0.451689 
        2.28257         1.03549        0.448728 
        2.28872         1.03082        0.445788 
        2.29486         1.02527        0.442875 
        2.30099         1.02009        0.439994 
        2.30712         1.01522        0.437138 
        2.31326         1.01299        0.434302 
         2.3194          1.0083        0.431493 
        2.32553         1.00428        0.428713 
        2.33166         0.99695         0.42596 
         2.3378        0.992112        0.423227 
        2.34394        0.987116        0.420517 
        2.35007        0.983492        0.417835 
        2.35619        0.981074        0.415179 
        2.36233        0.973622        0.412541 
        2.36848        0.970436         0.40992 
        2.37462         0.96626        0.407327 
        2.38075        0.962636         0.40476 
        2.38689        0.958282        0.402212 
        2.39303        0.952939        0.399687 
        2.39916        0.948997        0.397187 
        2.40529        0.945194        0.394708 
        2.41143        0.940398        0.392248 
        2.41757        0.936901        0.389809 
         2.4237        0.934239        0.387394 
        2.42983        0.928302        0.385001 
        2.43598         0.92564        0.382621 
        2.44211        0.921851        0.380266 
        2.44823        0.916731        0.377936 
        2.45437        0.913445        0.375618 
        2.46052        0.910652        0.373319 
        2.46665          0.9054        0.371043 
        2.47279        0.901233        0.368786 
        2.47892        0.896403        0.366547 
        2.48507        0.894429        0.364325 
         2.4912        0.889342        0.362125 
