# k  (h/Mpc)    Pcb(k)  (Mpc/h)^3    Pcb_linear(k)  (Mpc/h)^3
     0.00783031          6733.7         6786.26 
       0.013688         7355.24         7482.84 
       0.019231         6812.55         6868.55 
      0.0249154         5788.02         5756.88 
      0.0312784         4495.58         4492.64 
      0.0375637         3501.04         3512.12 
      0.0433917         2913.77         2899.42 
      0.0492413         2522.17         2522.22 
      0.0555754         2302.39         2285.13 
      0.0619321         2092.61         2121.89 
       0.067871         1961.75         1965.16 
      0.0738098         1776.04         1772.59 
      0.0800417         1550.39         1538.05 
      0.0862327         1311.63         1303.48 
      0.0921407         1123.93         1109.46 
      0.0982031         984.017         959.162 
       0.104506         868.397         857.366 
       0.110769         812.972         799.528 
       0.116806         786.818         766.945 
       0.122832         749.655          739.23 
       0.129052          713.79           701.7 
       0.135211         669.947         650.111 
       0.141259         604.122         588.796 
       0.147318         538.425         525.216 
       0.153489         485.585          467.23 
       0.159709         446.934         421.603 
       0.165845         407.211         390.497 
       0.171974         396.827         370.791 
       0.178125         381.352         357.813 
       0.184229         362.674         346.628 
        0.19034         352.637         333.176 
       0.196428         336.395         315.745 
       0.202534         308.808         294.753 
       0.208729         294.608         272.063 
       0.214876         276.026         250.786 
       0.220989         254.034         232.814 
       0.227147         244.696         218.749 
        0.23329         233.947         208.423 
       0.239377           228.3          200.72 
       0.245482         217.775         194.108 
       0.251667         208.622         187.268 
       0.257832         204.957         179.534 
       0.263955         192.214         170.863 
       0.270079         182.612         161.641 
        0.27624         173.589         152.498 
       0.282372          166.79         144.192 
        0.28843         163.505         137.125 
       0.294538         155.277         131.217 
       0.300721         148.903         126.247 
        0.30691         146.072         121.907 
       0.313033         139.642         117.835 
       0.319153         136.917         113.701 
       0.325316         131.916         109.341 
        0.33145         127.109         104.861 
       0.337538         122.114         100.421 
       0.343633         118.101         96.1774 
       0.349808         113.913           92.22 
       0.355968         110.726         88.6938 
       0.362074         107.983         85.5813 
       0.368217         105.289         82.7554 
       0.374374         102.357         80.1145 
       0.380519         98.0207         77.5609 
       0.386598         95.7567         75.0605 
       0.392688         92.5231          72.555 
        0.39888         90.8233         70.0333 
       0.405048         88.4093          67.596 
       0.411186         86.4284         65.2846 
       0.417313          84.045         63.1248 
       0.423458         81.6944         61.1167 
       0.429607         79.7604          59.245 
       0.435692         78.5334         57.5041 
       0.441815         75.8642         55.8337 
       0.447964         73.4647         54.2073 
       0.454126         72.0551         52.6146 
       0.460267         71.3011         51.0651 
       0.466387         69.2487         49.5625 
        0.47254         68.3469         48.1025 
       0.478662         65.8886         46.7129 
       0.484765         64.6692         45.3967 
       0.490885         62.9339         44.1427 
       0.497035         62.2976         42.9417 
       0.503198         60.9079         41.7915 
       0.509342         59.2462         40.6887 
       0.515458         58.2271         39.6261 
       0.521598         56.6997          38.589 
       0.527764         56.0046         37.5778 
       0.533884         55.3644         36.6066 
           0.54         53.8204         35.6699 
       0.546137         52.4082         34.7642 
       0.552299         51.3532          33.889 
       0.558452         50.3562         33.0494 
       0.564573         50.0285         32.2462 
       0.570708         48.5686         31.4701 
       0.576825         48.0213          30.722 
       0.582926         47.3285         29.9984 
       0.589034         46.3631         29.2951 
       0.595184         45.6941         28.6085 
       0.601379         44.6019         27.9387 
       0.607522         43.6281         27.2959 
       0.613639         43.2408         26.6765 
       0.619772         42.2935         26.0755 
       0.625918         41.8381         25.4924 
       0.632068         41.1367         24.9274 
       0.638161         40.3783          24.385 
         0.6443         39.9928         23.8552 
       0.650464         38.9573         23.3393 
       0.656582         38.7954         22.8422 
       0.662703         38.1493         22.3592 
       0.668861         37.2576         21.8871 
       0.675024         36.9971         21.4281 
       0.681124         36.5359         20.9869 
       0.687237         35.8443         20.5572 
       0.693381         35.2655         20.1379 
       0.699536         34.9289         19.7298 
       0.705665         34.3779          19.335 
       0.711789         33.8407         18.9515 
       0.717957         33.2677         18.5759 
        0.72409         32.8801         18.2126 
       0.730186         32.6404         17.8612 
       0.736317         32.0263         17.5171 
       0.742472         31.6086         17.1807 
       0.748622         31.1506         16.8535 
        0.75476          30.647         16.5356 
       0.760888         30.5512         16.2263 
       0.767043         29.8808         15.9238 
       0.773185         29.4551         15.6297 
       0.779291         29.1235         15.3448 
       0.785407         28.7964         15.0666 
       0.791564         28.6815         14.7936 
       0.797719          28.018         14.5276 
       0.803834         27.8853         14.2698 
       0.809972         27.4554         14.0174 
       0.816124         27.1501         13.7705 
       0.822261         26.7572         13.5303 
       0.828378          26.603         13.2966 
       0.834502         26.2805         13.0682 
       0.840667         26.0002         12.8436 
       0.846816         25.6094         12.6251 
       0.852925         25.3751         12.4129 
       0.859047          25.224         12.2053 
       0.865192          24.821         12.0017 
       0.871341         24.5344         11.8026 
       0.877463         24.2354          11.609 
       0.883569         24.1175         11.4202 
       0.889708         23.7858         11.2346 
       0.895864         23.5111         11.0527 
       0.902008          23.304         10.8752 
       0.908149         22.9632         10.7017 
       0.914301         22.7762         10.5318 
       0.920448         22.6127         10.3657 
       0.926574         22.3405         10.2037 
       0.932687         22.0645         10.0456 
       0.938823         21.7636         9.89026 
       0.944975         21.5908         9.73786 
       0.951105         21.4462         9.58924 
       0.957225         21.2253         9.44397 
       0.963368          21.004         9.30123 
       0.969511         20.7925         9.16145 
       0.975621         20.6417          9.0253 
       0.981748         20.3887         8.89157 
       0.987916         20.2273         8.75972 
        0.99406          19.981         8.63105 
        1.00019         19.8417         8.50523 
        1.00632         19.6993         8.38203 
        1.01246         19.4641          8.2611 
        1.01859         19.2978         8.14276 
        1.02471         19.1268         8.02688 
        1.03085         18.9949         7.91287 
        1.03698         18.8778         7.80132 
        1.04314          18.651         7.69146 
        1.04929         18.4068         7.58396 
        1.05541         18.3643         7.47896 
        1.06154         18.1836         7.37569 
        1.06769         17.9462         7.27421 
        1.07382         17.8349         7.17498 
        1.07993         17.6999         7.07783 
        1.08607          17.528         6.98208 
        1.09222         17.3835           6.888 
        1.09836          17.212         6.79578 
        1.10449         17.1474         6.70534 
        1.11063          16.979         6.61646 
        1.11677         16.9189         6.52922 
         1.1229         16.7178          6.4437 
        1.12903         16.5615         6.35964 
        1.13518         16.5029           6.277 
        1.14131         16.3594         6.19588 
        1.14745          16.179         6.11624 
        1.15359          15.996         6.03799 
        1.15973         15.9535         5.96107 
        1.16584         15.7861         5.88583 
        1.17197         15.6289         5.81179 
        1.17811         15.5387          5.7388 
        1.18424         15.3761         5.66727 
        1.19038         15.3256         5.59676 
        1.19652         15.1498         5.52748 
        1.20267         15.1028         5.45937 
        1.20881          14.944         5.39242 
        1.21495         14.8845          5.3267 
        1.22108         14.7873         5.26209 
         1.2272         14.6356          5.1987 
        1.23334         14.5745         5.13622 
        1.23949         14.4435         5.07461 
        1.24562         14.3122         5.01419 
        1.25174         14.2599         4.95484 
        1.25789         14.1583         4.89627 
        1.26402         14.0546         4.83876 
        1.27014         13.9625         4.78231 
        1.27628          13.841          4.7266 
        1.28244         13.8284         4.67166 
        1.28858          13.665         4.61767 
        1.29471          13.554         4.56466 
        1.30084         13.4587         4.51252 
        1.30697         13.3704         4.46112 
        1.31312         13.3006         4.41045 
        1.31925          13.209         4.36072 
        1.32537         13.0868         4.31181 
        1.33151         12.9883         4.26347 
        1.33765         12.9784         4.21591 
        1.34378         12.8821         4.16916 
        1.34992         12.7718         4.12309 
        1.35606          12.654         4.07761 
         1.3622          12.604          4.0329 
        1.36833         12.5456         3.98897 
        1.37445         12.4476         3.94571 
        1.38059         12.3562         3.90297 
        1.38675         12.3164         3.86075 
        1.39288         12.1997         3.81932 
        1.39901         12.1096         3.77852 
        1.40515         12.0691         3.73823 
         1.4113         11.9895         3.69853 
        1.41742         11.9172         3.65957 
        1.42355         11.8253         3.62109 
         1.4297         11.7601         3.58304 
        1.43585         11.6871         3.54556 
        1.44198          11.666         3.50876 
        1.44809         11.5748         3.47255 
        1.45423          11.495         3.43672 
        1.46036         11.4295         3.40145 
        1.46649         11.3547         3.36667 
        1.47263          11.296         3.33235 
        1.47877         11.1892         3.29852 
        1.48491         11.1696         3.26511 
        1.49104         11.0942         3.23223 
        1.49718          11.054         3.19977 
        1.50333         10.9892         3.16772 
        1.50947          10.898         3.13616 
         1.5156         10.8659         3.10509 
        1.52172         10.7894         3.07443 
        1.52787         10.7714         3.04413 
          1.534         10.6789         3.01427 
        1.54013         10.6359         2.98484 
        1.54627         10.5503         2.95575 
        1.55241         10.4766         2.92705 
        1.55855         10.4365         2.89877 
        1.56467         10.3786         2.87093 
         1.5708         10.3477         2.84339 
        1.57695         10.2803         2.81616 
        1.58308         10.2137         2.78936 
        1.58922         10.1612         2.76288 
        1.59535          10.113         2.73675 
         1.6015          10.044         2.71093 
        1.60764         9.99509         2.68545 
        1.61376         9.95169         2.66037 
        1.61989         9.86792         2.63558 
        1.62604          9.8422         2.61106 
        1.63218         9.78002         2.58686 
        1.63831         9.72717         2.56303 
        1.64444         9.68467         2.53948 
        1.65059         9.63094         2.51617 
        1.65673         9.57953         2.49319 
        1.66285          9.5203         2.47055 
        1.66898         9.48652         2.44818 
        1.67512         9.46527         2.42605 
        1.68127         9.40167         2.40417 
         1.6874         9.37361         2.38261 
        1.69353         9.28098         2.36133 
        1.69967         9.23863         2.34026 
        1.70581         9.21028         2.31945 
        1.71193         9.14686         2.29897 
        1.71806         9.10255          2.2787 
        1.72421         9.06656         2.25863 
        1.73035         9.02893         2.23883 
        1.73649         8.97965         2.21926 
        1.74262         8.94615         2.19995 
        1.74876         8.90037         2.18085 
        1.75489         8.85537         2.16202 
        1.76101         8.78837         2.14341 
        1.76715         8.77579           2.125 
        1.77329         8.72146         2.10679 
        1.77943          8.6787         2.08877 
        1.78557         8.66589           2.071 
        1.79171         8.59891         2.05343 
        1.79785         8.54576         2.03606 
        1.80399         8.51511         2.01889 
        1.81012         8.47297         2.00194 
        1.81625         8.43994          1.9852 
        1.82239         8.38713         1.96862 
        1.82853         8.35356         1.95224 
        1.83466         8.30989         1.93606 
        1.84078           8.267         1.92008 
        1.84692         8.26018         1.90425 
        1.85306         8.22024         1.88859 
         1.8592         8.18033         1.87312 
        1.86533         8.12987         1.85783 
        1.87147         8.09932          1.8427 
        1.87761         8.07011         1.82773 
        1.88375         8.03269         1.81294 
        1.88988          7.9853         1.79833 
        1.89601         7.95315         1.78388 
        1.90215         7.90838         1.76957 
        1.90829         7.87548         1.75542 
        1.91442         7.84893         1.74143 
        1.92056         7.80761          1.7276 
         1.9267          7.7897         1.71391 
        1.93284         7.76932         1.70035 
        1.93897         7.70012         1.68697 
        1.94509         7.67954         1.67377 
        1.95123         7.63853         1.66067 
        1.95737         7.60038          1.6477 
        1.96349         7.57158          1.6349 
        1.96964          7.5567          1.6222 
        1.97578         7.51743         1.60963 
        1.98192         7.49611         1.59721 
        1.98805         7.43842         1.58493 
        1.99419         7.43116         1.57278 
        2.00033         7.38015         1.56074 
        2.00647         7.34829         1.54884 
         2.0126         7.31931         1.53708 
        2.01874         7.29432         1.52542 
        2.02488         7.25824         1.51388 
        2.03101         7.24652         1.50247 
        2.03714         7.19753         1.49119 
        2.04328         7.16905         1.48002 
        2.04941         7.13372         1.46897 
        2.05554         7.11993         1.45804 
        2.06167         7.08861          1.4472 
        2.06781         7.07739         1.43647 
        2.07396         7.03674         1.42584 
        2.08009         6.98877         1.41533 
        2.08622         6.96738         1.40495 
        2.09237         6.95924         1.39464 
        2.09851         6.90545         1.38444 
        2.10464         6.89303         1.37435 
        2.11077         6.85283         1.36438 
        2.11691         6.83043         1.35448 
        2.12305         6.80013         1.34468 
        2.12918         6.76099           1.335 
        2.13531         6.75622         1.32542 
        2.14145         6.71478          1.3159 
         2.1476         6.69214         1.30647 
        2.15372         6.67991         1.29718 
        2.15985         6.63257         1.28797 
        2.16599         6.62808         1.27882 
        2.17213         6.60728         1.26977 
        2.17827         6.57952         1.26081 
         2.1844          6.5526         1.25195 
        2.19054         6.51886         1.24316 
        2.19666         6.49879         1.23448 
         2.2028         6.47101         1.22586 
        2.20893         6.45036         1.21733 
        2.21508         6.41611         1.20887 
        2.22122         6.39371         1.20048 
        2.22736         6.36819         1.19219 
        2.23349         6.34312         1.18398 
        2.23962         6.31852         1.17585 
        2.24577         6.31602         1.16778 
         2.2519          6.2789          1.1598 
        2.25802          6.2535         1.15191 
        2.26417         6.23454         1.14407 
        2.27031         6.20878         1.13629 
        2.27644          6.1963         1.12861 
        2.28257         6.14938           1.121 
        2.28872          6.1464         1.11344 
        2.29486         6.12092         1.10596 
        2.30099         6.09193         1.09856 
        2.30712         6.06013         1.09122 
        2.31326         6.04798         1.08394 
         2.3194         6.01695         1.07673 
        2.32553         5.99689          1.0696 
        2.33166         5.96478         1.06253 
         2.3378         5.96287         1.05552 
        2.34394         5.93039         1.04857 
        2.35007         5.91395         1.04169 
        2.35619         5.89305         1.03488 
        2.36233         5.86839         1.02812 
        2.36848         5.84067          1.0214 
        2.37462         5.82494         1.01476 
        2.38075         5.79451         1.00818 
        2.38689          5.7855         1.00165 
        2.39303         5.76563        0.995187 
        2.39916         5.74873        0.988784 
        2.40529         5.73373        0.982438 
        2.41143         5.70842        0.976142 
        2.41757         5.67943        0.969899 
         2.4237         5.66007        0.963721 
        2.42983         5.64759        0.957598 
        2.43598         5.62164        0.951512 
        2.44211         5.59968        0.945488 
        2.44823         5.57989        0.939531 
        2.45437         5.56778        0.933607 
        2.46052         5.54974         0.92773 
        2.46665         5.53323        0.921914 
        2.47279         5.50933        0.916149 
        2.47892         5.48443         0.91043 
        2.48507         5.46804        0.904754 
         2.4912          5.4472        0.899137 
