# k  (h/Mpc)    P(k)  (Mpc/h)^3    P_linear(k)  (Mpc/h)^3
     0.00783031           13748           13942 
       0.013688         18471.7         18319.9 
       0.019231         19480.7           19491 
      0.0249154         18414.3         18869.2 
      0.0312784         16823.3         17105.9 
      0.0375637         15000.1         15116.1 
      0.0433917         13113.7         13490.9 
      0.0492413         12008.3         12223.8 
      0.0555754         10744.7           11236 
      0.0619321         10371.8         10507.8 
       0.067871         9473.72         9915.95 
      0.0738098         8867.54         9298.45 
      0.0800417         8045.63         8570.36 
      0.0862327         7401.46         7782.79 
      0.0921407         6809.32         7030.72 
      0.0982031         6113.74         6327.56 
       0.104506         5722.81         5723.42 
       0.110769          5278.3         5269.24 
       0.116806            4951         4953.25 
       0.122832         4724.43         4719.69 
       0.129052         4411.85          4517.2 
       0.135211         4217.17         4313.42 
       0.141259         4065.83         4085.99 
       0.147318         3857.25         3827.79 
       0.153489         3551.17         3547.97 
       0.159709         3366.19         3272.77 
       0.165845         3246.24         3030.32 
       0.171974         3055.02         2830.51 
       0.178125         2905.54          2674.8 
       0.184229         2783.77         2557.21 
        0.19034         2645.75         2462.87 
       0.196428         2603.67         2377.27 
       0.202534         2511.11         2287.64 
       0.208729         2413.11         2186.21 
       0.214876         2322.94         2075.26 
       0.220989         2250.81         1960.12 
       0.227147         2156.48          1847.2 
        0.23329         2075.15         1744.82 
       0.239377         2049.87         1657.79 
       0.245482         1928.07         1585.69 
       0.251667         1920.67         1525.76 
       0.257832         1848.88         1474.59 
       0.263955         1791.34         1427.24 
       0.270079         1736.48         1379.35 
        0.27624         1719.09         1328.34 
       0.282372         1648.85         1274.74 
        0.28843         1648.07         1220.58 
       0.294538         1571.74         1167.16 
       0.300721         1563.14         1116.72 
        0.30691         1506.17         1071.43 
       0.313033         1477.06         1032.23 
       0.319153         1460.45         997.883 
       0.325316          1411.5          966.87 
        0.33145         1383.09         937.882 
       0.337538         1361.45         909.623 
       0.343633         1334.64         880.989 
       0.349808         1294.41          851.48 
       0.355968         1285.55         821.924 
       0.362074         1274.64         793.226 
       0.368217         1235.82         765.753 
       0.374374         1194.33         740.119 
       0.380519         1197.29         716.712 
       0.386598         1166.62         695.516 
       0.392688            1161         675.855 
        0.39888         1130.36         656.978 
       0.405048         1119.31         638.764 
       0.411186          1103.4         620.906 
       0.417313         1080.97         603.235 
       0.423458          1064.5         585.682 
       0.429607         1050.72         568.519 
       0.435692         1032.33         552.159 
       0.441815          1026.1         536.472 
       0.447964         1003.76         521.623 
       0.454126          996.84         507.651 
       0.460267         974.852         494.486 
       0.466387         961.633         481.977 
        0.47254         958.054         469.864 
       0.478662         947.593         458.134 
       0.484765         925.252         446.666 
       0.490885         919.736         435.412 
       0.497035         899.623         424.386 
       0.503198         895.946          413.67 
       0.509342         884.697         403.368 
       0.515458         881.782         393.542 
       0.521598         862.177         384.119 
       0.527764         844.932         375.055 
       0.533884         845.508         366.403 
           0.54         837.502         358.054 
       0.546137         828.774         349.934 
       0.552299         819.674         342.002 
       0.558452         813.309         334.274 
       0.564573         801.916         326.779 
       0.570708         795.044         319.477 
       0.576825         773.756         312.426 
       0.582926         778.428         305.628 
       0.589034         770.777         299.049 
       0.595184         763.306         292.644 
       0.601379         753.662         286.407 
       0.607522         743.492         280.419 
       0.613639         745.117         274.635 
       0.619772          728.54         268.997 
       0.625918         723.484         263.495 
       0.632068         715.752         258.127 
       0.638161         713.356         252.948 
         0.6443         700.229         247.872 
       0.650464         699.369         242.922 
       0.656582         695.003         238.153 
       0.662703         690.721         233.522 
       0.668861         678.949         228.994 
       0.675024         673.428         224.588 
       0.681124         670.375         220.344 
       0.687237         664.746         216.201 
       0.693381         657.409         212.145 
       0.699536         645.635         208.186 
       0.705665         646.929         204.345 
       0.711789         641.776         200.606 
       0.717957         635.829         196.936 
        0.72409         632.671          193.38 
       0.730186         623.351         189.934 
       0.736317         620.495         186.555 
       0.742472         617.286         183.247 
       0.748622         610.768         180.024 
        0.75476         601.358         176.887 
       0.760888         597.102         173.831 
       0.767043          595.66         170.837 
       0.773185         590.181         167.921 
       0.779291         585.557          165.09 
       0.785407         579.715         162.322 
       0.791564          574.09         159.601 
       0.797719         571.647         156.944 
       0.803834         566.768         154.365 
       0.809972         563.201         151.835 
       0.816124         562.205         149.358 
       0.822261         553.642         146.943 
       0.828378         550.765          144.59 
       0.834502           545.2         142.286 
       0.840667         541.094         140.019 
       0.846816         538.123         137.809 
       0.852925          533.33          135.66 
       0.859047         533.335         133.554 
       0.865192         526.393         131.486 
       0.871341         521.918         129.461 
       0.877463         521.277         127.489 
       0.883569         515.296         125.563 
       0.889708         513.131         123.668 
       0.895864         510.182         121.807 
       0.902008         506.243         119.989 
       0.908149         500.498          118.21 
       0.914301         497.999         116.465 
       0.920448         495.183         114.757 
       0.926574         487.068          113.09 
       0.932687          486.89         111.459 
       0.938823         481.959         109.856 
       0.944975         482.369         108.281 
       0.951105         475.736         106.743 
       0.957225         472.536         105.237 
       0.963368         468.582         103.756 
       0.969511         466.892         102.304 
       0.975621          463.67         100.888 
       0.981748         460.805          99.495 
       0.987916         457.739         98.1201 
        0.99406         450.233         96.7767 
        1.00019         449.331         95.4615 
        1.00632         447.052         94.1722 
        1.01246         443.481         92.9051 
        1.01859         443.069         91.6636 
        1.02471         437.243         90.4466 
        1.03085         435.431         89.2478 
        1.03698         433.657         88.0736 
        1.04314         429.412         86.9157 
        1.04929         424.302         85.7816 
        1.05541         425.305         84.6726 
        1.06154         419.398         83.5806 
        1.06769         416.384         82.5065 
        1.07382         414.205          81.455 
        1.07993         411.813         80.4244 
        1.08607         410.533         79.4076 
        1.09222         406.423         78.4075 
        1.09836         403.908         77.4261 
        1.10449         400.191         76.4627 
        1.11063         395.893         75.5149 
        1.11677          396.67         74.5837 
         1.1229         394.209           73.67 
        1.12903         390.606          72.771 
        1.13518         386.377         71.8864 
        1.14131         385.464         71.0171 
        1.14745         381.918         70.1629 
        1.15359         380.206         69.3228 
        1.15973         377.616         68.4962 
        1.16584          375.05         67.6869 
        1.17197         373.542         66.8897 
        1.17811         370.152         66.1031 
        1.18424         366.719         65.3315 
        1.19038         364.642         64.5702 
        1.19652         362.946         63.8214 
        1.20267         360.791         63.0847 
        1.20881         359.236         62.3598 
        1.21495         356.024         61.6476 
        1.22108         354.106         60.9468 
         1.2272         351.178         60.2586 
        1.23334         348.996         59.5796 
        1.23949         347.017         58.9095 
        1.24562         345.403         58.2517 
        1.25174         342.402         57.6051 
        1.25789         338.921         56.9664 
        1.26402         337.203         56.3386 
        1.27014         335.066         55.7219 
        1.27628         332.976         55.1127 
        1.28244         332.964         54.5116 
        1.28858         328.855         53.9203 
        1.29471         326.937         53.3391 
        1.30084         325.293         52.7672 
        1.30697          323.01         52.2029 
        1.31312         319.753          51.646 
        1.31925         319.139         51.0992 
        1.32537         317.849         50.5608 
        1.33151          314.15         50.0284 
        1.33765         312.244          49.504 
        1.34378         311.068         48.9882 
        1.34992         308.783         48.4795 
        1.35606         307.159          47.977 
         1.3622         305.069         47.4826 
        1.36833         303.112         46.9964 
        1.37445          301.39         46.5173 
        1.38059         298.344         46.0435 
        1.38675          297.04         45.5752 
        1.39288         295.355         45.1154 
        1.39901         294.152         44.6622 
        1.40515          291.89         44.2142 
         1.4113         290.519         43.7726 
        1.41742         288.131         43.3389 
        1.42355         286.165         42.9102 
         1.4297         284.482         42.4861 
        1.43585         282.964         42.0679 
        1.44198         281.198          41.657 
        1.44809         278.701         41.2525 
        1.45423         276.937         40.8519 
        1.46036         275.933         40.4573 
        1.46649         273.539         40.0679 
        1.47263         272.161         39.6834 
        1.47877         270.188         39.3041 
        1.48491          268.24         38.9292 
        1.49104         267.365         38.5601 
        1.49718         265.129         38.1955 
        1.50333         263.597         37.8351 
        1.50947         262.055         37.4801 
         1.5156         259.794         37.1302 
        1.52172         259.219         36.7848 
        1.52787         256.913         36.4432 
          1.534         255.993         36.1064 
        1.54013         253.299         35.7741 
        1.54627         252.452         35.4455 
        1.55241         250.896          35.121 
        1.55855         249.107         34.8011 
        1.56467         247.552         34.4861 
         1.5708         246.996         34.1741 
        1.57695         244.604         33.8655 
        1.58308         243.352         33.5615 
        1.58922         240.434          33.261 
        1.59535         239.596         32.9644 
         1.6015         238.861          32.671 
        1.60764         236.874         32.3813 
        1.61376         235.698          32.096 
        1.61989         234.079         31.8139 
        1.62604         232.506         31.5346 
        1.63218         231.316         31.2589 
        1.63831         229.707         30.9871 
        1.64444         228.935         30.7185 
        1.65059         227.184         30.4524 
        1.65673         225.802         30.1899 
        1.66285         224.154         29.9311 
        1.66898         222.738         29.6754 
        1.67512         221.879         29.4221 
        1.68127          219.52         29.1717 
         1.6874         218.346         28.9247 
        1.69353         217.362         28.6807 
        1.69967         215.906          28.439 
        1.70581         214.801         28.2003 
        1.71193         213.161         27.9652 
        1.71806         212.392         27.7322 
        1.72421         210.741         27.5016 
        1.73035         209.959         27.2738 
        1.73649         208.594         27.0486 
        1.74262         207.151         26.8262 
        1.74876         205.632         26.6062 
        1.75489         204.447         26.3891 
        1.76101         203.288         26.1745 
        1.76715         202.242         25.9621 
        1.77329         201.191         25.7517 
        1.77943         199.985         25.5436 
        1.78557         198.387         25.3381 
        1.79171         197.484         25.1349 
        1.79785         195.886         24.9338 
        1.80399         195.072         24.7351 
        1.81012         193.837         24.5387 
        1.81625         192.725         24.3446 
        1.82239         191.416         24.1524 
        1.82853         190.831         23.9623 
        1.83466         189.254         23.7745 
        1.84078         188.303         23.5889 
        1.84692         186.816          23.405 
        1.85306         186.141         23.2228 
         1.8592         184.781         23.0429 
        1.86533         184.029          22.865 
        1.87147         182.585         22.6888 
        1.87761         181.884         22.5144 
        1.88375         180.152          22.342 
        1.88988         178.832         22.1716 
        1.89601         178.541          22.003 
        1.90215         177.338         21.8359 
        1.90829         176.158         21.6707 
        1.91442         174.977         21.5072 
        1.92056         174.386         21.3456 
         1.9267         172.696         21.1855 
        1.93284         171.901         21.0269 
        1.93897         171.176         20.8702 
        1.94509         170.056         20.7155 
        1.95123         169.217          20.562 
        1.95737         168.144           20.41 
        1.96349         167.048         20.2599 
        1.96964         166.009         20.1109 
        1.97578         165.135         19.9633 
        1.98192         164.131         19.8175 
        1.98805         162.948         19.6732 
        1.99419         162.164         19.5303 
        2.00033         161.211         19.3887 
        2.00647         160.434         19.2486 
         2.0126         159.122         19.1102 
        2.01874         158.879         18.9729 
        2.02488         157.771         18.8368 
        2.03101         156.365         18.7024 
        2.03714         155.751         18.5693 
        2.04328           154.7         18.4375 
        2.04941         154.026          18.307 
        2.05554         152.813         18.1779 
        2.06167         152.225         18.0499 
        2.06781         151.177         17.9231 
        2.07396          150.25         17.7973 
        2.08009         149.675          17.673 
        2.08622         148.546           17.55 
        2.09237         147.633          17.428 
        2.09851         146.872         17.3071 
        2.10464         146.425         17.1875 
        2.11077         145.356         17.0693 
        2.11691         144.463         16.9519 
        2.12305         143.677         16.8356 
        2.12918         142.786         16.7206 
        2.13531         142.305         16.6068 
        2.14145         140.986         16.4937 
         2.1476         140.061         16.3816 
        2.15372         139.825         16.2711 
        2.15985         139.263         16.1615 
        2.16599         137.844         16.0526 
        2.17213         137.301         15.9449 
        2.17827          136.46         15.8381 
         2.1844         135.534         15.7325 
        2.19054          134.84         15.6278 
        2.19666          134.07         15.5241 
         2.2028         133.409         15.4214 
        2.20893         132.908         15.3195 
        2.21508         132.092         15.2184 
        2.22122         131.027         15.1183 
        2.22736         130.363         15.0192 
        2.23349         129.624          14.921 
        2.23962         128.854         14.8237 
        2.24577         128.181         14.7272 
         2.2519         127.694         14.6317 
        2.25802         126.891         14.5372 
        2.26417         126.154         14.4432 
        2.27031         125.228           14.35 
        2.27644         124.684         14.2579 
        2.28257         123.987         14.1667 
        2.28872         123.509          14.076 
        2.29486         122.458         13.9862 
        2.30099         121.917         13.8973 
        2.30712         121.255         13.8092 
        2.31326         120.519         13.7217 
         2.3194         120.008          13.635 
        2.32553          119.31         13.5493 
        2.33166          118.82         13.4643 
         2.3378         118.138         13.3799 
        2.34394         117.501         13.2962 
        2.35007         116.696         13.2133 
        2.35619         115.983         13.1313 
        2.36233           115.5         13.0498 
        2.36848         114.854         12.9688 
        2.37462         114.466         12.8886 
        2.38075         113.483         12.8093 
        2.38689         112.992         12.7305 
        2.39303          112.48         12.6524 
        2.39916         111.953         12.5751 
        2.40529         111.317         12.4984 
        2.41143         110.793         12.4223 
        2.41757         109.915         12.3467 
         2.4237         109.335          12.272 
        2.42983         108.651         12.1979 
        2.43598         108.282         12.1242 
        2.44211         107.761         12.0513 
        2.44823         107.098         11.9791 
        2.45437         106.642         11.9073 
        2.46052         105.917         11.8361 
        2.46665         105.232         11.7655 
        2.47279          104.96         11.6956 
        2.47892         104.362         11.6262 
        2.48507         103.707         11.5573 
         2.4912         103.109         11.4891 
