# k  (h/Mpc)    P(k)  (Mpc/h)^3    P_linear(k)  (Mpc/h)^3
     0.00783031         4989.39         5062.44 
       0.013688         6149.51         6143.33 
       0.019231         6097.78         6096.49 
      0.0249154         5434.32         5497.15 
      0.0312784         4587.51         4604.59 
      0.0375637         3798.13         3785.84 
      0.0433917         3184.13         3200.78 
      0.0492413         2799.25         2796.16 
      0.0555754         2491.52         2521.02 
      0.0619321         2362.79         2345.14 
       0.067871         2187.41         2209.29 
      0.0738098         2037.33         2058.69 
      0.0800417         1837.17         1866.99 
      0.0862327         1639.54         1651.34 
      0.0921407         1448.92         1445.35 
      0.0982031         1257.58         1258.37 
       0.104506         1130.25         1106.87 
       0.110769         1025.34         1003.29 
       0.116806         954.271          940.63 
       0.122832         918.227         901.437 
       0.129052         872.587         869.915 
       0.135211         836.771         834.301 
       0.141259          798.06         787.796 
       0.147318         745.125         729.539 
       0.153489         676.163          663.73 
       0.159709         619.533          599.02 
       0.165845         574.317         543.842 
       0.171974          528.14         501.167 
       0.178125         499.972          471.08 
       0.184229          479.96         451.259 
        0.19034         454.404         437.231 
       0.196428          447.76         424.571 
       0.202534         436.084         409.647 
       0.208729         413.566         390.452 
       0.214876         388.931         367.683 
       0.220989         370.654         343.228 
       0.227147         345.568         319.253 
        0.23329         326.452         298.115 
       0.239377         314.002         281.074 
       0.245482         293.515         267.999 
       0.251667          289.04         258.065 
       0.257832         280.277         250.125 
       0.263955         271.238         242.774 
       0.270079         261.796         234.841 
        0.27624         256.643         225.715 
       0.282372         246.176         215.579 
        0.28843         235.559         205.035 
       0.294538         224.441         194.614 
       0.300721         219.514         184.945 
        0.30691         208.605         176.582 
       0.313033         202.846         169.682 
       0.319153         194.129         163.942 
       0.325316         190.327         158.933 
        0.33145         183.844         154.274 
       0.337538         180.761         149.602 
       0.343633         174.612         144.691 
       0.349808         169.136         139.443 
       0.355968         165.267         134.087 
       0.362074          160.08         128.855 
       0.368217         155.304         123.893 
       0.374374         150.369         119.363 
       0.380519         147.075         115.331 
       0.386598         143.151         111.788 
       0.392688         140.695          108.56 
        0.39888         137.016         105.481 
       0.405048         133.765          102.49 
       0.411186         130.744         99.5005 
       0.417313         127.364         96.4942 
       0.423458          124.47         93.4714 
       0.429607         121.322         90.4974 
       0.435692         117.274         87.6746 
       0.441815         116.195         84.9978 
       0.447964         114.112         82.4936 
       0.454126         109.073         80.1747 
       0.460267         107.793         78.0173 
       0.466387         105.791         75.9758 
        0.47254         103.806         73.9956 
       0.478662         102.534         72.0709 
       0.484765         99.4701         70.1753 
       0.490885          97.655         68.2995 
       0.497035         96.4248         66.4573 
       0.503198         93.7244         64.6711 
       0.509342         91.7231         62.9609 
       0.515458         90.2976         61.3375 
       0.521598         88.9527         59.7931 
       0.527764         87.5356         58.3197 
       0.533884         86.1338         56.9192 
           0.54         84.3609         55.5678 
       0.546137         83.5031         54.2509 
       0.552299         82.1957         52.9633 
       0.558452         80.1114         51.7082 
       0.564573         78.6899         50.4878 
       0.570708         77.6693          49.298 
       0.576825         76.4464         48.1502 
       0.582926         74.8505         47.0482 
       0.589034         73.4306         45.9872 
       0.595184         72.5084          44.958 
       0.601379          71.519         43.9575 
       0.607522         69.8122         42.9976 
       0.613639         69.5909          42.071 
       0.619772         67.9713         41.1687 
       0.625918         67.3478          40.289 
       0.632068         66.4683         39.4311 
       0.638161         65.5387         38.6029 
         0.6443         64.5803         37.7912 
       0.650464         63.6757         37.0002 
       0.656582         62.9184         36.2394 
       0.662703         61.6826         35.5027 
       0.668861         60.9269         34.7845 
       0.675024         60.1752         34.0869 
       0.681124         59.2458         33.4159 
       0.687237         58.2138         32.7611 
       0.693381          57.716         32.1199 
       0.699536         56.7345          31.494 
       0.705665         56.9641         30.8871 
       0.711789         55.4129         30.2967 
       0.717957         54.9075          29.718 
        0.72409         54.1847         29.1582 
       0.730186         53.3001         28.6167 
       0.736317         53.0974         28.0865 
       0.742472         52.3002          27.568 
       0.748622         51.7839         27.0632 
        0.75476         51.1773         26.5723 
       0.760888         50.3864         26.0942 
       0.767043         49.8511         25.6261 
       0.773185         49.2066         25.1704 
       0.779291         48.9708         24.7285 
       0.785407         48.4836         24.2967 
       0.791564          47.764         23.8726 
       0.797719         46.9421          23.459 
       0.803834         46.8129          23.058 
       0.809972         46.0505         22.6651 
       0.816124         45.4842         22.2806 
       0.822261         45.1397         21.9063 
       0.828378         44.8456         21.5417 
       0.834502         44.2924         21.1852 
       0.840667         43.8766         20.8345 
       0.846816         43.2275         20.4928 
       0.852925         42.8756         20.1609 
       0.859047          42.321         19.8357 
       0.865192         42.0101         19.5167 
       0.871341         41.8578         19.2045 
       0.877463         40.9931         18.9006 
       0.883569         40.6949         18.6041 
       0.889708         40.4306         18.3125 
       0.895864         40.0381         18.0265 
       0.902008          39.674         17.7473 
       0.908149         39.3359         17.4742 
       0.914301         39.1258         17.2064 
       0.920448         38.5909         16.9446 
       0.926574         38.2521         16.6892 
       0.932687         37.9275         16.4396 
       0.938823         37.3711         16.1943 
       0.944975         37.2516         15.9535 
       0.951105         36.8792         15.7185 
       0.957225         36.4205         15.4886 
       0.963368         36.3922         15.2626 
       0.969511         36.0417         15.0412 
       0.975621         35.7364         14.8253 
       0.981748         35.2745         14.6132 
       0.987916         35.0963          14.404 
        0.99406         34.8182         14.1996 
        1.00019            34.4         13.9997 
        1.00632         34.2083         13.8038 
        1.01246         34.0067         13.6114 
        1.01859         33.5066          13.423 
        1.02471         33.5131         13.2385 
        1.03085          33.184         13.0568 
        1.03698         32.7518          12.879 
        1.04314         32.5161         12.7037 
        1.04929         32.2934         12.5321 
        1.05541         31.9521         12.3644 
        1.06154         31.8754         12.1994 
        1.06769         31.6085         12.0372 
        1.07382         31.3516         11.8785 
        1.07993         31.2251          11.723 
        1.08607         30.8215         11.5697 
        1.09222         30.7215          11.419 
        1.09836         30.4301         11.2711 
        1.10449         30.2152         11.1261 
        1.11063         29.8391         10.9835 
        1.11677         29.7273         10.8434 
         1.1229         29.6028         10.7061 
        1.12903         29.2032          10.571 
        1.13518         29.1133         10.4382 
        1.14131         29.0037         10.3077 
        1.14745         28.6774         10.1795 
        1.15359         28.6205         10.0535 
        1.15973         28.2758         9.92965 
        1.16584         28.0279         9.80841 
        1.17197         28.0283         9.68904 
        1.17811         27.6867         9.57129 
        1.18424         27.4547         9.45586 
        1.19038         27.4243         9.34201 
        1.19652         27.2565          9.2301 
        1.20267         27.0588         9.12002 
        1.20881         26.8208         9.01178 
        1.21495         26.6595         8.90548 
        1.22108         26.4904         8.80092 
         1.2272         26.2068          8.6983 
        1.23334         26.1369         8.59709 
        1.23949         25.9756         8.49726 
        1.24562         25.8157          8.3993 
        1.25174         25.6923         8.30305 
        1.25789         25.4832         8.20802 
        1.26402         25.3537         8.11466 
        1.27014         25.0885         8.02299 
        1.27628         24.9741         7.93247 
        1.28244         24.8578         7.84318 
        1.28858         24.7522         7.75539 
        1.29471         24.5828         7.66916 
        1.30084         24.4235         7.58432 
        1.30697         24.2603         7.50065 
        1.31312         24.0336         7.41812 
        1.31925         23.9454         7.33711 
        1.32537         23.8566         7.25739 
        1.33151         23.6626         7.17858 
        1.33765         23.6082         7.10098 
        1.34378         23.4551          7.0247 
        1.34992         23.1751         6.94948 
        1.35606         23.1124         6.87521 
         1.3622         22.9766         6.80216 
        1.36833         22.8281         6.73036 
        1.37445         22.8243         6.65963 
        1.38059         22.6277          6.5897 
        1.38675         22.3856         6.52062 
        1.39288         22.3777         6.45281 
        1.39901         22.1833           6.386 
        1.40515         22.1109         6.31999 
         1.4113          21.976         6.25494 
        1.41742         21.7668         6.19106 
        1.42355         21.7544         6.12796 
         1.4297         21.6145         6.06555 
        1.43585         21.5559         6.00404 
        1.44198         21.3523         5.94362 
        1.44809         21.2513         5.88415 
        1.45423         21.1648         5.82528 
        1.46036         21.0962         5.76733 
        1.46649         20.9468         5.71014 
        1.47263          20.809          5.6537 
        1.47877         20.7236         5.59804 
        1.48491         20.6333         5.54305 
        1.49104         20.5632         5.48892 
        1.49718         20.3678         5.43547 
        1.50333         20.3305         5.38266 
        1.50947         20.2346         5.33065 
         1.5156         20.0739         5.27942 
        1.52172         19.9501         5.22886 
        1.52787          19.943         5.17887 
          1.534         19.7716         5.12959 
        1.54013         19.6191         5.08101 
        1.54627         19.5759         5.03298 
        1.55241          19.457         4.98556 
        1.55855         19.3448         4.93881 
        1.56467         19.2673          4.8928 
         1.5708         19.2155         4.84725 
        1.57695         19.0281         4.80222 
        1.58308         19.0555         4.75786 
        1.58922         18.9148         4.71403 
        1.59535         18.7995         4.67077 
         1.6015           18.71           4.628 
        1.60764         18.6722         4.58579 
        1.61376         18.5235         4.54422 
        1.61989         18.3922         4.50314 
        1.62604         18.3903         4.46248 
        1.63218         18.2611         4.42234 
        1.63831          18.227         4.38279 
        1.64444         18.0652         4.34372 
        1.65059         17.9853         4.30503 
        1.65673         17.9247         4.26685 
        1.66285         17.8246         4.22925 
        1.66898         17.7832         4.19208 
        1.67512          17.711          4.1553 
        1.68127         17.5966         4.11892 
         1.6874         17.5019         4.08306 
        1.69353         17.4435         4.04765 
        1.69967         17.3262         4.01258 
        1.70581         17.2755         3.97794 
        1.71193         17.1858         3.94384 
        1.71806         17.0996         3.91008 
        1.72421         17.0236         3.87664 
        1.73035         16.9466         3.84363 
        1.73649         16.8848         3.81102 
        1.74262         16.8471         3.77881 
        1.74876         16.7545         3.74695 
        1.75489         16.6703         3.71553 
        1.76101         16.5889         3.68448 
        1.76715         16.5466         3.65374 
        1.77329         16.4546         3.62332 
        1.77943         16.3617         3.59323 
        1.78557         16.3241         3.56353 
        1.79171          16.261         3.53416 
        1.79785         16.1328         3.50512 
        1.80399         16.0764         3.47641 
        1.81012         16.0628         3.44806 
        1.81625         15.9541         3.42004 
        1.82239         15.9382          3.3923 
        1.82853         15.7917         3.36487 
        1.83466         15.7092         3.33778 
        1.84078         15.6254         3.31101 
        1.84692         15.6315          3.2845 
        1.85306         15.5334         3.25824 
         1.8592         15.4721         3.23232 
        1.86533         15.4246         3.20669 
        1.87147         15.3439         3.18131 
        1.87761          15.317          3.1562 
        1.88375         15.2077         3.13139 
        1.88988         15.1665         3.10687 
        1.89601          15.084          3.0826 
        1.90215         15.0208         3.05857 
        1.90829         14.9822         3.03482 
        1.91442         14.9158         3.01131 
        1.92056         14.8558         2.98807 
         1.9267          14.792         2.96506 
        1.93284         14.7109         2.94227 
        1.93897         14.6514         2.91977 
        1.94509         14.5959         2.89755 
        1.95123         14.5299         2.87551 
        1.95737         14.4921         2.85368 
        1.96349          14.424         2.83214 
        1.96964         14.3573         2.81075 
        1.97578         14.3151         2.78958 
        1.98192         14.2304         2.76867 
        1.98805          14.202         2.74797 
        1.99419         14.1152         2.72749 
        2.00033         14.0559          2.7072 
        2.00647         14.0139         2.68713 
         2.0126         13.9525         2.66729 
        2.01874         13.8793         2.64763 
        2.02488         13.8301         2.62815 
        2.03101         13.8109          2.6089 
        2.03714         13.7586         2.58986 
        2.04328         13.6715         2.57099 
        2.04941         13.5968         2.55232 
        2.05554         13.6033         2.53385 
        2.06167         13.5239         2.51555 
        2.06781         13.4921         2.49742 
        2.07396         13.4463         2.47944 
        2.08009         13.3805         2.46167 
        2.08622         13.2939          2.4441 
        2.09237         13.2646         2.42666 
        2.09851          13.225          2.4094 
        2.10464         13.1606         2.39232 
        2.11077         13.0917         2.37544 
        2.11691         13.0653         2.35868 
        2.12305         13.0147         2.34209 
        2.12918         12.9435         2.32569 
        2.13531         12.9226         2.30945 
        2.14145         12.8406         2.29333 
         2.1476         12.8311         2.27734 
        2.15372         12.7752         2.26159 
        2.15985         12.6971         2.24597 
        2.16599         12.6743         2.23045 
        2.17213         12.6286          2.2151 
        2.17827         12.5904         2.19989 
         2.1844         12.5306         2.18485 
        2.19054         12.4693         2.16994 
        2.19666         12.4572         2.15519 
         2.2028         12.4103         2.14056 
        2.20893         12.3506         2.12606 
        2.21508         12.2853         2.11168 
        2.22122         12.2388         2.09743 
        2.22736         12.2067         2.08334 
        2.23349         12.1432         2.06939 
        2.23962         12.1005         2.05555 
        2.24577         12.0512         2.04183 
         2.2519         12.0474         2.02826 
        2.25802         11.9919         2.01483 
        2.26417         11.9563         2.00148 
        2.27031         11.8852         1.98824 
        2.27644         11.8522         1.97517 
        2.28257         11.8063         1.96221 
        2.28872         11.7682         1.94934 
        2.29486          11.735         1.93659 
        2.30099         11.7009         1.92398 
        2.30712         11.6527         1.91148 
        2.31326         11.6132         1.89907 
         2.3194         11.5646         1.88678 
        2.32553         11.5208         1.87461 
        2.33166         11.4461         1.86256 
         2.3378         11.4324          1.8506 
        2.34394         11.3956         1.83874 
        2.35007         11.3367           1.827 
        2.35619         11.2867         1.81538 
        2.36233         11.2594         1.80383 
        2.36848         11.2477         1.79236 
        2.37462         11.2181         1.78102 
        2.38075         11.1352         1.76978 
        2.38689           11.11         1.75863 
        2.39303         11.0726         1.74758 
        2.39916         11.0442         1.73663 
        2.40529         10.9977         1.72578 
        2.41143         10.9666         1.71502 
        2.41757         10.9328         1.70434 
         2.4237          10.887         1.69377 
        2.42983         10.8432          1.6833 
        2.43598         10.8225         1.67288 
        2.44211          10.767         1.66257 
        2.44823         10.7228         1.65237 
        2.45437         10.7152         1.64223 
        2.46052         10.6591         1.63217 
        2.46665         10.6074         1.62221 
        2.47279         10.5652         1.61233 
        2.47892         10.5514         1.60253 
        2.48507         10.5255          1.5928 
         2.4912         10.4871         1.58318 
