# k  (h/Mpc)    Pcb(k)  (Mpc/h)^3    Pcb_linear(k)  (Mpc/h)^3
     0.00783031         1068.35          1076.6 
       0.013688         1281.71         1295.09 
       0.019231         1278.22         1283.73 
      0.0249154         1162.75          1161.8 
      0.0312784         981.561         981.623 
      0.0375637          815.08         816.178 
      0.0433917          698.88         696.915 
      0.0492413         612.835         612.789 
      0.0555754         555.399         553.125 
      0.0619321         508.938         512.183 
       0.067871         478.742         479.064 
      0.0738098         443.216         443.212 
      0.0800417          400.91         399.959 
      0.0862327         353.664         353.574 
      0.0921407         311.058         310.733 
      0.0982031         274.289         272.665 
       0.104506         242.114          242.12 
       0.110769         221.399         221.047 
       0.116806         209.269         207.697 
       0.122832          198.78         198.421 
       0.129052         190.966         190.062 
       0.135211         182.033         180.645 
       0.141259         169.906          169.26 
       0.147318          156.05         156.043 
       0.153489         142.669         141.973 
       0.159709         130.102         128.731 
       0.165845         118.096         117.766 
       0.171974          111.23         109.387 
       0.178125         105.036         103.381 
       0.184229         100.185         99.1425 
        0.19034          97.366         95.7399 
       0.196428         93.7928         92.3656 
       0.202534         88.9032         88.4442 
       0.208729         85.0266          83.748 
       0.214876          80.311         78.5781 
       0.220989         74.3439         73.3552 
       0.227147         70.3942          68.468 
        0.23329         66.3595         64.2905 
       0.239377          63.208         60.9578 
       0.245482         60.3847         58.3481 
       0.251667          57.866         56.2365 
       0.257832          56.562         54.3849 
       0.263955         54.1652          52.551 
       0.270079         52.1369         50.5657 
        0.27624         49.7303         48.3765 
       0.282372         47.5499         46.0769 
        0.28843         45.8551         43.8082 
       0.294538         43.5916         41.6582 
       0.300721         41.3878         39.7184 
        0.30691         40.1222         38.0536 
       0.313033          38.551         36.6563 
       0.319153         37.6949         35.4421 
       0.325316         36.0644         34.3198 
        0.33145         34.8772         33.2277 
       0.337538         33.8305         32.1192 
       0.343633         32.8198         30.9735 
       0.349808         31.5415         29.7913 
       0.355968         30.3586          28.629 
       0.362074         29.5193         27.5308 
       0.368217         28.4401         26.5119 
       0.374374          27.699         25.5877 
       0.380519         26.5896         24.7576 
       0.386598         25.7514         24.0087 
       0.392688         24.9698         23.3044 
        0.39888         24.4154         22.6132 
       0.405048         23.7745         21.9325 
       0.411186         23.0534         21.2558 
       0.417313          22.359         20.5862 
       0.423458         21.5971         19.9283 
       0.429607         21.1483         19.2949 
       0.435692         20.6534          18.703 
       0.441815         19.8881         18.1453 
       0.447964         19.2579          17.622 
       0.454126         18.8903         17.1308 
       0.460267         18.5801         16.6661 
       0.466387         18.0273         16.2195 
        0.47254         17.6721         15.7819 
       0.478662         17.1434         15.3559 
       0.484765         16.7269         14.9394 
       0.490885         16.2234         14.5321 
       0.497035         15.8214         14.1365 
       0.503198         15.5059         13.7569 
       0.509342         15.0393         13.3956 
       0.515458         14.7872         13.0526 
       0.521598         14.4434         12.7244 
       0.527764         14.1909         12.4088 
       0.533884         13.7629         12.1065 
           0.54         13.5137         11.8131 
       0.546137         13.1112         11.5266 
       0.552299         12.8597         11.2467 
       0.558452          12.563         10.9752 
       0.564573         12.3582         10.7131 
       0.570708         12.0735         10.4589 
       0.576825          11.838         10.2144 
       0.582926         11.5766          9.9799 
       0.589034         11.3528         9.75377 
       0.595184         11.1888         9.53394 
       0.601379         10.8866          9.3196 
       0.607522         10.6701         9.11325 
       0.613639           10.44         8.91359 
       0.619772          10.273          8.7191 
       0.625918         10.0564         8.52974 
       0.632068         9.91129         8.34568 
       0.638161          9.7064         8.16857 
         0.6443         9.51291         7.99537 
       0.650464         9.29139         7.82673 
       0.656582         9.20135         7.66447 
       0.662703         9.04785         7.50711 
       0.668861         8.80536         7.35353 
       0.675024         8.65451         7.20426 
       0.681124         8.62642         7.06064 
       0.687237         8.41948         6.92052 
       0.693381         8.20307         6.78337 
       0.699536         8.14216         6.64957 
       0.705665         7.98545          6.5199 
       0.711789          7.8157         6.39381 
       0.717957         7.65922         6.27027 
        0.72409         7.57156         6.15081 
       0.730186          7.5067         6.03529 
       0.736317         7.32767          5.9222 
       0.742472         7.23621         5.81165 
       0.748622         7.12212         5.70404 
        0.75476         6.94044         5.59939 
       0.760888         6.88347          5.4975 
       0.767043         6.72603         5.39771 
       0.773185         6.64269          5.3006 
       0.779291         6.59801         5.20642 
       0.785407         6.46234          5.1144 
       0.791564         6.37273         5.02405 
       0.797719         6.25457         4.93595 
       0.803834         6.18978         4.85056 
       0.809972         6.07373         4.76691 
       0.816124         5.99601         4.68507 
       0.822261         5.91279          4.6054 
       0.828378         5.82442         4.52783 
       0.834502         5.74558           4.452 
       0.840667         5.68214         4.37742 
       0.846816         5.56461         4.30477 
       0.852925         5.50403         4.23422 
       0.859047         5.42488         4.16511 
       0.865192         5.34881         4.09732 
       0.871341         5.27442           4.031 
       0.877463         5.19543         3.96645 
       0.883569         5.14185         3.90349 
       0.889708         5.06677         3.84157 
       0.895864               5         3.78085 
       0.902008         4.92269         3.72157 
       0.908149         4.85758         3.66361 
       0.914301         4.80531         3.60679 
       0.920448          4.7473         3.55124 
       0.926574         4.71066         3.49705 
       0.932687         4.62981         3.44412 
       0.938823         4.55003          3.3921 
       0.944975          4.5203         3.34104 
       0.951105          4.4337         3.29122 
       0.957225         4.40552          3.2425 
       0.963368         4.35058         3.19461 
       0.969511         4.29821         3.14769 
       0.975621          4.2383         3.10197 
       0.981748         4.16545         3.05705 
       0.987916           4.128         3.01273 
        0.99406          4.0964         2.96947 
        1.00019         4.04741         2.92715 
        1.00632         4.00656         2.88569 
        1.01246         3.94736         2.84498 
        1.01859         3.90299         2.80512 
        1.02471         3.84117         2.76608 
        1.03085         3.81411         2.72765 
        1.03698         3.77192         2.69004 
        1.04314         3.73115         2.65297 
        1.04929         3.68231          2.6167 
        1.05541         3.63685         2.58125 
        1.06154         3.60785         2.54638 
        1.06769         3.58369         2.51209 
        1.07382         3.52185         2.47856 
        1.07993         3.47851         2.44571 
        1.08607         3.45665         2.41333 
        1.09222         3.40802          2.3815 
        1.09836         3.39628         2.35028 
        1.10449         3.32534         2.31966 
        1.11063         3.30386         2.28955 
        1.11677         3.27453         2.25999 
         1.1229         3.23422         2.23101 
        1.12903         3.21218         2.20251 
        1.13518          3.1641         2.17448 
        1.14131         3.13351         2.14696 
        1.14745         3.09722         2.11993 
        1.15359         3.06792         2.09337 
        1.15973          3.0337         2.06725 
        1.16584         3.00801         2.04169 
        1.17197         2.97299         2.01653 
        1.17811         2.94295         1.99172 
        1.18424         2.91345         1.96739 
        1.19038         2.88758         1.94341 
        1.19652         2.86361         1.91984 
        1.20267         2.83938         1.89665 
        1.20881         2.80693         1.87386 
        1.21495         2.78091         1.85148 
        1.22108         2.75575         1.82947 
         1.2272           2.718         1.80787 
        1.23334         2.70882         1.78657 
        1.23949         2.67455         1.76556 
        1.24562         2.65376         1.74495 
        1.25174         2.63438          1.7247 
        1.25789         2.59624         1.70471 
        1.26402          2.5741         1.68508 
        1.27014         2.54994          1.6658 
        1.27628         2.52749         1.64677 
        1.28244         2.50798           1.628 
        1.28858         2.48724         1.60954 
        1.29471          2.4547         1.59142 
        1.30084         2.43538         1.57359 
        1.30697         2.42131         1.55601 
        1.31312         2.39723         1.53867 
        1.31925           2.375         1.52165 
        1.32537         2.35811         1.50491 
        1.33151         2.33194         1.48836 
        1.33765         2.31427         1.47206 
        1.34378          2.2983         1.45605 
        1.34992         2.27783         1.44026 
        1.35606         2.25838         1.42467 
         1.3622          2.2402         1.40934 
        1.36833         2.21514         1.39427 
        1.37445         2.19444         1.37943 
        1.38059         2.17754         1.36476 
        1.38675         2.16009         1.35027 
        1.39288         2.14887         1.33605 
        1.39901         2.12304         1.32204 
        1.40515         2.10853          1.3082 
         1.4113         2.09471         1.29456 
        1.41742         2.07099         1.28117 
        1.42355         2.05434         1.26794 
         1.4297         2.04247         1.25487 
        1.43585         2.02584         1.24198 
        1.44198         2.00795         1.22932 
        1.44809         1.99513         1.21686 
        1.45423          1.9785         1.20453 
        1.46036         1.96381         1.19239 
        1.46649         1.94024         1.18042 
        1.47263         1.93475          1.1686 
        1.47877         1.92234         1.15695 
        1.48491          1.8987         1.14544 
        1.49104         1.88705         1.13411 
        1.49718         1.87346         1.12292 
        1.50333         1.85673         1.11187 
        1.50947         1.84428         1.10099 
         1.5156         1.83018         1.09027 
        1.52172         1.81741          1.0797 
        1.52787         1.80358         1.06924 
          1.534          1.7929         1.05894 
        1.54013         1.77667         1.04878 
        1.54627         1.76302         1.03874 
        1.55241         1.74706         1.02882 
        1.55855         1.73754         1.01905 
        1.56467         1.72546         1.00944 
         1.5708         1.71281        0.999917 
        1.57695         1.69709        0.990506 
        1.58308         1.68272        0.981238 
        1.58922          1.6767        0.972082 
        1.59535         1.65946        0.963046 
         1.6015         1.64736        0.954113 
        1.60764         1.63961        0.945297 
        1.61376         1.62358        0.936617 
        1.61989         1.61352        0.928039 
        1.62604          1.5987        0.919549 
        1.63218         1.59416        0.911171 
        1.63831          1.5828        0.902916 
        1.64444         1.56964        0.894761 
        1.65059         1.56235        0.886688 
        1.65673         1.54576        0.878722 
        1.66285         1.53653        0.870877 
        1.66898         1.52803        0.863125 
        1.67512         1.51288        0.855452 
        1.68127         1.50369        0.847866 
         1.6874         1.49926        0.840389 
        1.69353         1.48393        0.833006 
        1.69967         1.47481        0.825695 
        1.70581         1.46999        0.818474 
        1.71193         1.45052        0.811367 
        1.71806           1.446         0.80433 
        1.72421         1.43866        0.797362 
        1.73035         1.42402        0.790484 
        1.73649         1.42027         0.78369 
        1.74262         1.40833         0.77698 
        1.74876         1.39908        0.770345 
        1.75489         1.39015        0.763801 
        1.76101         1.37823        0.757335 
        1.76715         1.37277        0.750934 
        1.77329         1.36307          0.7446 
        1.77943         1.35516        0.738337 
        1.78557         1.34798        0.732154 
        1.79171         1.33952        0.726041 
        1.79785         1.33064        0.719997 
        1.80399         1.32076        0.714023 
        1.81012         1.31263        0.708124 
        1.81625         1.30151        0.702295 
        1.82239         1.29661        0.696522 
        1.82853         1.28816        0.690817 
        1.83466         1.27781        0.685182 
        1.84078         1.27077        0.679615 
        1.84692         1.26365        0.674101 
        1.85306         1.25878        0.668642 
         1.8592          1.2471        0.663252 
        1.86533         1.24174        0.657924 
        1.87147         1.23254        0.652648 
        1.87761         1.22714        0.647428 
        1.88375          1.2183        0.642271 
        1.88988         1.21049        0.637176 
        1.89601         1.20283        0.632134 
        1.90215         1.19648        0.627142 
        1.90829         1.19097        0.622206 
        1.91442         1.18169        0.617323 
        1.92056         1.17729        0.612497 
         1.9267         1.17051        0.607717 
        1.93284          1.1609        0.602985 
        1.93897         1.15398        0.598313 
        1.94509         1.14933          0.5937 
        1.95123         1.14065        0.589125 
        1.95737         1.13655        0.584594 
        1.96349         1.12853        0.580122 
        1.96964         1.12477        0.575684 
        1.97578         1.11462        0.571291 
        1.98192         1.10696        0.566953 
        1.98805         1.10255        0.562659 
        1.99419         1.09618        0.558409 
        2.00033         1.08987        0.554201 
        2.00647         1.08614        0.550038 
         2.0126           1.081        0.545924 
        2.01874         1.07274        0.541846 
        2.02488         1.06529        0.537806 
        2.03101         1.06028        0.533815 
        2.03714         1.05591        0.529868 
        2.04328         1.04915        0.525957 
        2.04941         1.04308        0.522088 
        2.05554         1.03679        0.518261 
        2.06167         1.03128        0.514466 
        2.06781         1.02502         0.51071 
        2.07396         1.02104        0.506985 
        2.08009         1.01593        0.503304 
        2.08622         1.00887        0.499664 
        2.09237         1.00506        0.496052 
        2.09851        0.998235        0.492476 
        2.10464        0.994134         0.48894 
        2.11077        0.987561        0.485444 
        2.11691        0.981919        0.481974 
        2.12305        0.978668        0.478537 
        2.12918        0.971109        0.475143 
        2.13531        0.967055        0.471781 
        2.14145        0.961896        0.468444 
         2.1476        0.956053        0.465135 
        2.15372        0.951856        0.461875 
        2.15985        0.946583        0.458642 
        2.16599        0.943058        0.455432 
        2.17213        0.937471        0.452255 
        2.17827        0.931761         0.44911 
         2.1844         0.92709        0.445997 
        2.19054        0.922533        0.442913 
        2.19666        0.918668        0.439862 
         2.2028        0.913244        0.436837 
        2.20893        0.909276        0.433839 
        2.21508        0.904119        0.430866 
        2.22122         0.90026         0.42792 
        2.22736        0.893467        0.425007 
        2.23349        0.889414        0.422122 
        2.23962        0.887214        0.419263 
        2.24577        0.881982        0.416427 
         2.2519        0.876993        0.413622 
        2.25802        0.874344        0.410846 
        2.26417        0.868257        0.408089 
        2.27031        0.864646        0.405354 
        2.27644        0.860717        0.402652 
        2.28257        0.854517        0.399975 
        2.28872        0.853283        0.397317 
        2.29486        0.847331        0.394684 
        2.30099         0.84309         0.39208 
        2.30712        0.840693        0.389499 
        2.31326        0.835922        0.386936 
         2.3194        0.830818        0.384398 
        2.32553        0.826832        0.381887 
        2.33166        0.824636        0.379399 
         2.3378        0.820138         0.37693 
        2.34394        0.816006        0.374483 
        2.35007        0.809926         0.37206 
        2.35619        0.807703        0.369662 
        2.36233        0.803975        0.367279 
        2.36848        0.801558        0.364912 
        2.37462        0.796736        0.362572 
        2.38075        0.792831        0.360253 
        2.38689        0.790245        0.357954 
        2.39303         0.78599        0.355674 
        2.39916        0.782183        0.353417 
        2.40529        0.779624         0.35118 
        2.41143        0.773228         0.34896 
        2.41757        0.771437        0.346758 
         2.4237        0.767777         0.34458 
        2.42983        0.763307         0.34242 
        2.43598        0.760719        0.340273 
        2.44211        0.756945        0.338148 
        2.44823         0.75398        0.336046 
        2.45437        0.751062        0.333956 
        2.46052        0.748605        0.331882 
        2.46665        0.744279        0.329829 
        2.47279        0.740985        0.327794 
        2.47892           0.737        0.325775 
        2.48507        0.735452        0.323772 
         2.4912        0.730573        0.321789 
