# k  (h/Mpc)    Pcb(k)  (Mpc/h)^3    Pcb_linear(k)  (Mpc/h)^3
     0.00783031         6554.77         6633.38 
       0.013688          8582.1         8542.55 
       0.019231          8942.4         8935.41 
      0.0249154         8383.39         8506.23 
      0.0312784          7527.7         7582.24 
      0.0375637         6615.72         6617.04 
      0.0433917         5793.46         5867.23 
      0.0492413         5275.79         5305.18 
      0.0555754         4773.41         4877.54 
      0.0619321         4560.45         4557.45 
       0.067871         4197.77         4282.39 
      0.0738098         3899.17         3983.02 
      0.0800417          3522.9         3629.36 
      0.0862327         3192.62         3257.96 
      0.0921407          2893.2         2918.95 
      0.0982031         2584.73         2618.24 
       0.104506         2398.77          2374.4 
       0.110769         2220.59         2200.69 
       0.116806         2084.83         2082.68 
       0.122832         2002.29         1991.22 
       0.129052         1880.31         1901.66 
       0.135211         1784.81          1801.8 
       0.141259         1696.38         1687.92 
       0.147318         1588.06         1563.15 
       0.153489          1453.3         1436.23 
       0.159709         1360.33          1320.5 
       0.165845         1293.97         1226.24 
       0.171974         1213.43         1153.92 
       0.178125         1158.38         1099.96 
       0.184229         1117.63         1058.23 
        0.19034         1051.94         1020.64 
       0.196428         1033.35         981.143 
       0.202534         999.132         936.216 
       0.208729          946.79         885.411 
       0.214876         893.184         832.744 
       0.220989         862.046         782.184 
       0.227147         812.411         736.663 
        0.23329         778.909         698.613 
       0.239377         761.154         668.195 
       0.245482         713.629         643.447 
       0.251667         707.101         621.815 
       0.257832         683.492         601.142 
       0.263955          660.87         579.686 
       0.270079          637.87         556.571 
        0.27624         628.164         531.992 
       0.282372         601.147         507.351 
        0.28843         583.822         484.105 
       0.294538         556.684         462.852 
       0.300721         552.456          444.08 
        0.30691         527.409         427.947 
       0.313033         516.526         414.006 
       0.319153         499.621         401.244 
       0.325316         486.237         388.768 
        0.33145         472.006         376.184 
       0.337538         465.902         363.331 
       0.343633         450.739          350.27 
       0.349808         436.505         337.194 
       0.355968         431.155         324.752 
       0.362074         421.353         313.314 
       0.368217         410.216         302.878 
       0.374374         395.426         293.414 
       0.380519         390.434         284.758 
       0.386598         381.161         276.707 
       0.392688         377.715         268.875 
        0.39888         367.399         260.992 
       0.405048         359.769         253.157 
       0.411186         352.335          245.41 
       0.417313         346.002         237.862 
       0.423458         339.463         230.598 
       0.429607         331.978         223.725 
       0.435692         323.388         217.373 
       0.441815         321.181         211.401 
       0.447964         315.252         205.747 
       0.454126         303.514         200.346 
       0.460267         300.191         195.142 
       0.466387         296.669         190.061 
        0.47254         290.429         185.038 
       0.478662         288.741         180.149 
       0.484765         280.645         175.405 
       0.490885         276.902         170.808 
       0.497035          272.87         166.384 
       0.503198         266.445         162.171 
       0.509342         263.765         158.169 
       0.515458         260.445         154.355 
       0.521598         256.487         150.671 
       0.527764           252.3         147.093 
       0.533884         249.026          143.64 
           0.54         245.553         140.271 
       0.546137         244.208         136.969 
       0.552299         239.612         133.747 
       0.558452         236.356         130.636 
       0.564573         232.436          127.65 
       0.570708         228.691         124.764 
       0.576825         225.826          121.99 
       0.582926         222.909          119.32 
       0.589034         219.851         116.736 
       0.595184         217.737         114.215 
       0.601379         215.709         111.749 
       0.607522         211.139         109.365 
       0.613639          210.41         107.052 
       0.619772         205.654         104.795 
       0.625918         203.987         102.599 
       0.632068         201.606         100.468 
       0.638161         200.345         98.4232 
         0.6443         197.217         96.4258 
       0.650464          195.27         94.4797 
       0.656582         193.564         92.6028 
       0.662703         190.888         90.7764 
       0.668861          188.34         88.9881 
       0.675024         186.238         87.2463 
       0.681124         185.248         85.5685 
       0.687237         182.107         83.9315 
       0.693381         179.773         82.3299 
       0.699536         178.468         80.7678 
       0.705665         178.502         79.2533 
       0.711789         174.534         77.7796 
       0.717957         173.859         76.3339 
        0.72409         171.582         74.9337 
       0.730186         168.927         73.5778 
       0.736317         168.186         72.2488 
       0.742472         167.025         70.9482 
       0.748622         165.674         69.6814 
        0.75476         164.168         68.4486 
       0.760888         161.902         67.2478 
       0.767043         160.882         66.0713 
       0.773185         159.241         64.9257 
       0.779291         157.135         63.8139 
       0.785407         156.309         62.7268 
       0.791564         154.734         61.6584 
       0.797719         152.764         60.6157 
       0.803834         152.111         59.6039 
       0.809972         150.089         58.6119 
       0.816124         149.914         57.6406 
       0.822261         148.115         56.6941 
       0.828378         146.759          55.772 
       0.834502         146.269         54.8699 
       0.840667          144.26         53.9821 
       0.846816         143.114         53.1167 
       0.852925         141.899          52.276 
       0.859047         140.367         51.4519 
       0.865192         139.766         50.6431 
       0.871341         138.325         49.8514 
       0.877463         137.153         49.0804 
       0.883569           136.1         48.3278 
       0.889708         135.235         47.5873 
       0.895864         133.978         46.8607 
       0.902008          133.06         46.1509 
       0.908149         132.302         45.4563 
       0.914301         130.833         44.7751 
       0.920448         130.055         44.1087 
       0.926574         129.261         43.4582 
       0.932687         128.526         42.8224 
       0.938823         126.807         42.1971 
       0.944975         125.978          41.583 
       0.951105         125.187         40.9835 
       0.957225         123.644         40.3969 
       0.963368          123.06         39.8199 
       0.969511         122.526         39.2543 
       0.975621         121.986         38.7028 
       0.981748         120.994         38.1605 
       0.987916         119.735         37.6253 
        0.99406         119.188         37.1025 
        1.00019         118.127         36.5908 
        1.00632         117.509         36.0892 
        1.01246         116.511         35.5964 
        1.01859         115.121         35.1137 
        1.02471         115.438         34.6406 
        1.03085         114.197         34.1746 
        1.03698         113.242         33.7183 
        1.04314         112.282         33.2685 
        1.04929         111.711          32.828 
        1.05541         110.949         32.3973 
        1.06154         110.309         31.9733 
        1.06769         109.827         31.5563 
        1.07382         109.311         31.1483 
        1.07993         108.541         30.7484 
        1.08607         107.599         30.3539 
        1.09222         107.036         29.9661 
        1.09836         106.216         29.5855 
        1.10449         105.578         29.2121 
        1.11063         104.939         28.8447 
        1.11677         104.366         28.4839 
         1.1229         103.397         28.1299 
        1.12903         102.455         27.7817 
        1.13518         102.699         27.4391 
        1.14131         101.805         27.1025 
        1.14745          100.79         26.7719 
        1.15359         100.366         26.4467 
        1.15973         99.9494         26.1268 
        1.16584         99.1657         25.8137 
        1.17197         98.5504         25.5054 
        1.17811         97.9915         25.2011 
        1.18424         97.1775         24.9028 
        1.19038         96.7084         24.6084 
        1.19652         96.2882          24.319 
        1.20267         95.4913         24.0342 
        1.20881         94.9849         23.7541 
        1.21495         94.2745         23.4789 
        1.22108         93.7427         23.2082 
         1.2272         93.1392         22.9424 
        1.23334          92.688         22.6801 
        1.23949         92.0498         22.4214 
        1.24562         91.7939         22.1675 
        1.25174         91.1391         21.9179 
        1.25789         90.6376         21.6714 
        1.26402         90.1898         21.4292 
        1.27014         89.3008         21.1913 
        1.27628         89.1509         20.9563 
        1.28244          88.331         20.7244 
        1.28858         87.9543         20.4964 
        1.29471         87.5448         20.2724 
        1.30084          86.936         20.0519 
        1.30697         86.3725         19.8344 
        1.31312         85.9716         19.6198 
        1.31925          85.677         19.4092 
        1.32537          85.187         19.2018 
        1.33151         84.3913         18.9967 
        1.33765         83.9884         18.7948 
        1.34378          83.459         18.5962 
        1.34992         83.1493         18.4004 
        1.35606         82.6877          18.207 
         1.3622         81.9355         18.0168 
        1.36833         81.8175         17.8297 
        1.37445         81.2337         17.6454 
        1.38059         80.6735         17.4632 
        1.38675         80.2796         17.2831 
        1.39288          79.747         17.1063 
        1.39901         79.6487         16.9321 
        1.40515         79.1955         16.7599 
         1.4113         78.5486         16.5902 
        1.41742          78.325         16.4235 
        1.42355         77.7202         16.2588 
         1.4297         77.3509         16.0959 
        1.43585         76.8321         15.9353 
        1.44198         76.5829         15.7775 
        1.44809         76.0734         15.6221 
        1.45423         75.7611         15.4683 
        1.46036         75.3751         15.3168 
        1.46649         74.9134         15.1674 
        1.47263         74.5335         15.0198 
        1.47877         74.2873         14.8742 
        1.48491         73.8386         14.7304 
        1.49104         73.3509         14.5888 
        1.49718          72.922         14.4489 
        1.50333           72.59         14.3107 
        1.50947         72.0973         14.1745 
         1.5156         71.8822         14.0404 
        1.52172         71.4848          13.908 
        1.52787         71.2425          13.777 
          1.534          70.871         13.6479 
        1.54013         70.3916         13.5206 
        1.54627         70.0983         13.3947 
        1.55241         69.6388         13.2704 
        1.55855         69.2095         13.1478 
        1.56467          68.734         13.0272 
         1.5708         68.6449         12.9077 
        1.57695         68.3232         12.7896 
        1.58308         67.8905         12.6732 
        1.58922         67.7062         12.5582 
        1.59535         67.3967         12.4446 
         1.6015         66.8115         12.3324 
        1.60764         66.6854         12.2215 
        1.61376         66.2284         12.1124 
        1.61989         65.7956         12.0045 
        1.62604         65.6182         11.8977 
        1.63218          65.398         11.7922 
        1.63831         64.9629         11.6883 
        1.64444         64.6902         11.5856 
        1.65059         64.1198         11.4839 
        1.65673         63.9606         11.3835 
        1.66285         63.6555         11.2846 
        1.66898         63.3072         11.1869 
        1.67512          62.905         11.0902 
        1.68127         62.5675         10.9945 
         1.6874         62.3883         10.9001 
        1.69353         62.0108         10.8069 
        1.69967         61.7349         10.7146 
        1.70581         61.5801         10.6235 
        1.71193         61.2269         10.5337 
        1.71806         60.7065         10.4448 
        1.72421         60.6062         10.3567 
        1.73035         60.1747         10.2698 
        1.73649           59.81         10.1838 
        1.74262          59.664          10.099 
        1.74876         59.4377          10.015 
        1.75489         59.0187         9.93218 
        1.76101         58.8388         9.85032 
        1.76715           58.43         9.76928 
        1.77329         58.1916         9.68906 
        1.77943         57.9644          9.6097 
        1.78557         57.7391         9.53136 
        1.79171         57.3498         9.45388 
        1.79785         57.1321         9.37725 
        1.80399         56.7884         9.30149 
        1.81012         56.6654         9.22667 
        1.81625         56.1024         9.15271 
        1.82239         55.9466         9.07946 
        1.82853         55.5392         9.00704 
        1.83466         55.4412         8.93549 
        1.84078         54.9717          8.8648 
        1.84692         54.8074         8.79476 
        1.85306         54.5573          8.7254 
         1.8592         54.2572         8.65689 
        1.86533         53.9973         8.58916 
        1.87147          53.768         8.52209 
        1.87761         53.5723          8.4557 
        1.88375         53.3419          8.3901 
        1.88988         53.2356         8.32527 
        1.89601         52.7487         8.26109 
        1.90215         52.5493         8.19755 
        1.90829         52.3728          8.1347 
        1.91442         52.0889         8.07251 
        1.92056         51.8336         8.01104 
         1.9267         51.4635         7.95014 
        1.93284          51.232         7.88984 
        1.93897         51.0771         7.83028 
        1.94509         50.7459         7.77147 
        1.95123         50.6025         7.71312 
        1.95737         50.3597         7.65532 
        1.96349         50.0836         7.59827 
        1.96964         49.8755         7.54164 
        1.97578         49.6144         7.48556 
        1.98192         49.4018         7.43017 
        1.98805         49.2095         7.37533 
        1.99419         48.8498         7.32105 
        2.00033         48.6414         7.26729 
        2.00647          48.485         7.21408 
         2.0126          48.211          7.1615 
        2.01874         47.9876         7.10937 
        2.02488         47.8353         7.05771 
        2.03101         47.5064         7.00666 
        2.03714         47.2889         6.95617 
        2.04328         47.0372         6.90612 
        2.04941         46.7892          6.8566 
        2.05554         46.5369         6.80761 
        2.06167          46.482         6.75903 
        2.06781         46.1927         6.71093 
        2.07396         45.9394         6.66322 
        2.08009         45.7732         6.61606 
        2.08622          45.475         6.56941 
        2.09237          45.291         6.52313 
        2.09851         45.0232         6.47728 
        2.10464         44.8648         6.43195 
        2.11077         44.7082         6.38711 
        2.11691         44.4488         6.34261 
        2.12305         44.1654         6.29852 
        2.12918         44.0396         6.25496 
        2.13531         43.8239         6.21181 
        2.14145         43.6607         6.16897 
         2.1476         43.4182         6.12649 
        2.15372         43.1649         6.08462 
        2.15985         43.0608          6.0431 
        2.16599         42.9042         6.00185 
        2.17213         42.8194         5.96103 
        2.17827         42.4065          5.9206 
         2.1844         42.1903         5.88059 
        2.19054         41.9997         5.84093 
        2.19666         41.8495          5.8017 
         2.2028         41.6859         5.76279 
        2.20893         41.5171         5.72422 
        2.21508         41.3179         5.68596 
        2.22122         41.0805         5.64805 
        2.22736         40.8668         5.61055 
        2.23349         40.7386         5.57341 
        2.23962         40.4887         5.53659 
        2.24577         40.2786         5.50007 
         2.2519         40.0984         5.46393 
        2.25802         40.0463         5.42817 
        2.26417         39.7713         5.39263 
        2.27031         39.6335         5.35738 
        2.27644         39.3369         5.32255 
        2.28257         39.2299         5.28804 
        2.28872          38.997         5.25376 
        2.29486         38.8736          5.2198 
        2.30099         38.7326          5.1862 
        2.30712         38.5093         5.15289 
        2.31326         38.3729         5.11982 
         2.3194         38.1826         5.08705 
        2.32553         37.9918         5.05463 
        2.33166         37.7971         5.02251 
         2.3378         37.6695         4.99062 
        2.34394         37.3931           4.959 
        2.35007         37.2729          4.9277 
        2.35619         37.2178         4.89671 
        2.36233         37.0133         4.86591 
        2.36848         36.7537         4.83532 
        2.37462         36.7001         4.80505 
        2.38075         36.4363         4.77508 
        2.38689          36.346         4.74533 
        2.39303           36.17         4.71585 
        2.39916         35.9669         4.68664 
        2.40529         35.7284         4.65769 
        2.41143         35.6527         4.62896 
        2.41757         35.4959         4.60046 
         2.4237         35.3334         4.57226 
        2.42983         35.2035         4.54429 
        2.43598         34.9843         4.51649 
        2.44211          34.881         4.48896 
        2.44823         34.6955         4.46173 
        2.45437          34.592         4.43465 
        2.46052         34.3855         4.40777 
        2.46665         34.2471         4.38116 
        2.47279         34.1215         4.35478 
        2.47892         33.8894         4.32861 
        2.48507          33.761         4.30262 
         2.4912          33.607          4.2769 
