# k  (h/Mpc)    P(k)  (Mpc/h)^3    P_linear(k)  (Mpc/h)^3
     0.00783031         19510.2         19658.9 
       0.013688         23734.9         24503.5 
       0.019231         24478.1           24974 
      0.0249154         23148.1         23164.4 
      0.0312784         19722.6           20034 
      0.0375637         16555.4           16963 
      0.0433917         14493.4         14657.7 
      0.0492413         12734.5         12983.7 
      0.0555754         11625.5           11772 
      0.0619321         10429.9         10938.4 
       0.067871         9937.42         10275.6 
      0.0738098         9351.53          9566.6 
      0.0800417         8524.47         8706.46 
      0.0862327          7592.9         7767.73 
      0.0921407         6816.84         6881.35 
      0.0982031         6163.34         6074.84 
       0.104506            5450         5411.42 
       0.110769         5039.38         4942.83 
       0.116806         4816.37         4641.77 
       0.122832         4558.95         4435.25 
       0.129052         4320.39         4257.54 
       0.135211         4220.06         4064.08 
       0.141259         3909.55         3829.74 
       0.147318         3629.27         3552.05 
       0.153489          3399.6         3248.56 
       0.159709         3249.45         2955.08 
       0.165845         2963.37         2705.87 
       0.171974         2867.63          2511.5 
       0.178125         2777.06         2370.78 
       0.184229         2560.58          2272.8 
        0.19034         2536.33         2197.65 
       0.196428         2469.85         2126.53 
       0.202534         2333.16          2044.6 
       0.208729         2282.65         1944.36 
       0.214876         2176.71         1830.58 
       0.220989         2076.45         1712.14 
       0.227147         2011.87         1598.46 
        0.23329         1929.15         1499.52 
       0.239377         1920.76         1420.05 
       0.245482         1833.43         1358.42 
       0.251667         1768.28         1310.17 
       0.257832         1736.61         1269.74 
       0.263955         1664.23         1230.71 
       0.270079         1625.82          1188.2 
        0.27624         1558.97         1139.99 
       0.282372         1544.48         1087.63 
        0.28843         1508.26         1034.52 
       0.294538         1445.96         983.084 
       0.300721         1422.57         936.233 
        0.30691         1381.59         896.106 
       0.313033         1334.33         863.123 
       0.319153         1322.56         835.316 
       0.325316         1304.25         810.463 
        0.33145          1274.2         786.598 
       0.337538         1235.73         762.227 
       0.343633         1209.37          736.38 
       0.349808         1190.24         709.004 
       0.355968         1164.18         681.378 
       0.362074         1133.19         654.854 
       0.368217         1128.22         630.123 
       0.374374         1109.48         607.798 
       0.380519         1073.72         588.137 
       0.386598         1069.55          570.78 
       0.392688         1040.11         554.808 
        0.39888         1024.46         539.302 
       0.405048          1002.1         523.926 
       0.411186          998.27         508.416 
       0.417313         990.937         492.754 
       0.423458         963.319         477.055 
       0.429607         940.171         461.776 
       0.435692         931.424         447.446 
       0.441815         913.008         433.979 
       0.447964         905.177         421.514 
       0.454126          892.32         410.003 
       0.460267         882.866         399.235 
       0.466387         866.164         388.957 
        0.47254         854.266         378.891 
       0.478662          841.68         368.996 
       0.484765         832.527         359.176 
       0.490885         823.954          349.47 
       0.497035         807.899         339.974 
       0.503198         806.938         330.814 
       0.509342         791.511         322.101 
       0.515458         776.274         313.894 
       0.521598           777.6         306.126 
       0.527764         758.444         298.703 
       0.533884         748.334         291.617 
           0.54         745.139          284.74 
       0.546137         735.019         278.008 
       0.552299         728.684         271.395 
       0.558452         720.278         264.922 
       0.564573         718.156         258.628 
       0.570708         708.138         252.509 
       0.576825          694.53         246.633 
       0.582926         692.421          241.02 
       0.589034         683.938         235.625 
       0.595184         675.224         230.394 
       0.601379         665.175         225.302 
       0.607522         656.263         220.408 
       0.613639         655.153         215.672 
       0.619772         648.333         211.051 
       0.625918         640.887         206.535 
       0.632068          636.85         202.125 
       0.638161           627.5         197.867 
         0.6443         621.167         193.699 
       0.650464         616.639         189.644 
       0.656582         611.441         185.754 
       0.662703         604.163         181.992 
       0.668861          597.21         178.326 
       0.675024         594.503         174.764 
       0.681124          581.89         171.333 
       0.687237         582.191         167.979 
       0.693381          572.63         164.689 
       0.699536         574.383         161.474 
       0.705665         564.206         158.357 
       0.711789         563.017         155.325 
       0.717957         555.951         152.356 
        0.72409         551.243         149.486 
       0.730186         549.425         146.712 
       0.736317         542.224         143.997 
       0.742472         535.732         141.341 
       0.748622         535.663         138.756 
        0.75476         525.932          136.24 
       0.760888         525.039         133.788 
       0.767043          521.81         131.385 
       0.773185         516.852         129.046 
       0.779291         511.704         126.776 
       0.785407         507.639         124.558 
       0.791564         505.181          122.38 
       0.797719         496.931         120.256 
       0.803834         496.897         118.197 
       0.809972         489.684         116.181 
       0.816124         486.622         114.208 
       0.822261         483.006         112.287 
       0.828378         481.556         110.416 
       0.834502         474.073         108.587 
       0.840667         471.057         106.787 
       0.846816         468.282         105.033 
       0.852925         467.137         103.329 
       0.859047         460.585         101.659 
       0.865192         458.577         100.021 
       0.871341         453.796         98.4179 
       0.877463         452.614         96.8573 
       0.883569         448.725         95.3346 
       0.889708         442.896         93.8372 
       0.895864         438.512         92.3682 
       0.902008         437.756         90.9341 
       0.908149         433.189         89.5316 
       0.914301         431.303         88.1566 
       0.920448         425.945         86.8119 
       0.926574         423.856         85.5003 
       0.932687         421.755         84.2186 
       0.938823          417.54         82.9589 
       0.944975         415.769         81.7221 
       0.951105         412.663         80.5151 
       0.957225         407.522         79.3347 
       0.963368          406.77          78.174 
       0.969511         402.797         77.0366 
       0.975621         399.208         75.9281 
       0.981748         397.511         74.8386 
       0.987916          394.55         73.7637 
        0.99406         390.508         72.7141 
        1.00019         386.885         71.6871 
        1.00632         385.422         70.6809 
        1.01246         381.781         69.6927 
        1.01859         379.472         68.7249 
        1.02471         377.837         67.7769 
        1.03085         374.908         66.8435 
        1.03698          372.15         65.9297 
        1.04314         369.102         65.0292 
        1.04929         368.158         64.1477 
        1.05541         364.058         63.2862 
        1.06154         361.013         62.4384 
        1.06769         358.375         61.6049 
        1.07382         355.217         60.7895 
        1.07993         355.308         59.9907 
        1.08607         352.735         59.2031 
        1.09222         349.097         58.4288 
        1.09836         346.924         57.6694 
        1.10449          343.98         56.9244 
        1.11063         342.651         56.1917 
        1.11677          339.14         55.4723 
         1.1229         337.163         54.7668 
        1.12903         334.266          54.073 
        1.13518         333.345         53.3906 
        1.14131         330.502         52.7205 
        1.14745         327.841         52.0623 
        1.15359         324.744         51.4152 
        1.15973         323.386         50.7789 
        1.16584         321.854         50.1563 
        1.17197         319.251         49.5433 
        1.17811         315.508         48.9386 
        1.18424         314.824         48.3459 
        1.19038         313.036         47.7612 
        1.19652         309.653         47.1865 
        1.20267         307.843         46.6213 
        1.20881         306.689         46.0655 
        1.21495         303.115         45.5196 
        1.22108         302.726         44.9827 
         1.2272         298.722         44.4558 
        1.23334         296.991         43.9361 
        1.23949         295.242         43.4235 
        1.24562         293.755         42.9205 
        1.25174         291.966         42.4262 
        1.25789          289.19         41.9383 
        1.26402         287.969         41.4589 
        1.27014         285.873         40.9881 
        1.27628         284.027         40.5233 
        1.28244         281.118         40.0648 
        1.28858         280.054          39.614 
        1.29471         278.484         39.1712 
        1.30084         277.422         38.7356 
        1.30697         274.314          38.306 
        1.31312         272.716         37.8823 
        1.31925         271.051         37.4663 
        1.32537         269.851          37.057 
        1.33151         266.833         36.6524 
        1.33765         265.457         36.2541 
        1.34378         264.341         35.8625 
        1.34992         261.705         35.4764 
        1.35606         259.733         35.0952 
         1.3622         257.895         34.7202 
        1.36833         257.636         34.3517 
        1.37445         255.997         33.9887 
        1.38059         252.851         33.6299 
        1.38675         251.464         33.2754 
        1.39288         250.792         32.9274 
        1.39901         248.385         32.5846 
        1.40515         247.109         32.2459 
         1.4113         245.278         31.9121 
        1.41742         243.731         31.5844 
        1.42355         241.892         31.2606 
         1.4297         240.604         30.9405 
        1.43585         238.703         30.6249 
        1.44198         237.297         30.3149 
        1.44809         235.858         30.0099 
        1.45423         234.444         29.7079 
        1.46036         233.837         29.4106 
        1.46649         231.523         29.1172 
        1.47263         229.568         28.8277 
        1.47877         228.481         28.5422 
        1.48491         226.734         28.2601 
        1.49104         224.484         27.9824 
        1.49718         223.586         27.7083 
        1.50333         222.305         27.4374 
        1.50947         220.563         27.1707 
         1.5156         219.443         26.9079 
        1.52172          217.57         26.6487 
        1.52787         216.506         26.3923 
          1.534          215.54         26.1396 
        1.54013         213.665         25.8905 
        1.54627         212.292         25.6441 
        1.55241         211.529          25.401 
        1.55855         209.731         25.1613 
        1.56467         208.212         24.9254 
         1.5708         206.874         24.6919 
        1.57695         206.244          24.461 
        1.58308         204.813         24.2336 
        1.58922         203.038         24.0089 
        1.59535         201.781         23.7872 
         1.6015          200.75         23.5679 
        1.60764         199.452         23.3515 
        1.61376         197.841         23.1385 
        1.61989         196.687         22.9279 
        1.62604         195.622         22.7195 
        1.63218         193.965         22.5138 
        1.63831         193.035         22.3111 
        1.64444         191.662         22.1109 
        1.65059         190.753         21.9126 
        1.65673         189.377          21.717 
        1.66285         188.113         21.5243 
        1.66898         186.824         21.3339 
        1.67512         185.741         21.1454 
        1.68127         184.437         20.9591 
         1.6874          183.31         20.7753 
        1.69353         182.714          20.594 
        1.69967         181.099         20.4143 
        1.70581         179.934         20.2369 
        1.71193          178.77         20.0622 
        1.71806         177.409         19.8892 
        1.72421         176.667          19.718 
        1.73035         175.362         19.5489 
        1.73649         174.066         19.3819 
        1.74262         173.475         19.2169 
        1.74876         171.819         19.0538 
        1.75489         171.287         18.8929 
        1.76101         170.168         18.7339 
        1.76715         169.164         18.5765 
        1.77329         167.899         18.4207 
        1.77943         166.774         18.2667 
        1.78557         165.762         18.1146 
        1.79171         164.711         17.9642 
        1.79785          163.44         17.8156 
        1.80399          162.68         17.6686 
        1.81012          162.11         17.5235 
        1.81625         160.627         17.3801 
        1.82239         159.908          17.238 
        1.82853         158.727         17.0977 
        1.83466         157.653          16.959 
        1.84078          156.79          16.822 
        1.84692         156.118         16.6863 
        1.85306         154.969         16.5519 
         1.8592         153.998         16.4193 
        1.86533         152.722         16.2881 
        1.87147         152.041         16.1583 
        1.87761         151.084         16.0297 
        1.88375         150.147         15.9028 
        1.88988          149.31         15.7773 
        1.89601         148.516         15.6532 
        1.90215         147.708         15.5303 
        1.90829         146.332         15.4087 
        1.91442         145.422         15.2885 
        1.92056         144.857         15.1696 
         1.9267          143.73         15.0519 
        1.93284          142.63         14.9353 
        1.93897         142.122         14.8202 
        1.94509         141.311         14.7066 
        1.95123         140.411         14.5939 
        1.95737         139.675         14.4822 
        1.96349         138.711         14.3721 
        1.96964         137.844         14.2627 
        1.97578         136.958         14.1545 
        1.98192         136.364         14.0476 
        1.98805         135.473         13.9417 
        1.99419          134.72          13.837 
        2.00033         133.896         13.7333 
        2.00647         132.748         13.6307 
         2.0126         132.183         13.5293 
        2.01874         131.342         13.4287 
        2.02488         130.696         13.3291 
        2.03101          129.83         13.2307 
        2.03714         129.528         13.1334 
        2.04328          128.17          13.037 
        2.04941         127.469         12.9416 
        2.05554          126.81         12.8472 
        2.06167         126.197         12.7537 
        2.06781         125.375          12.661 
        2.07396         124.494         12.5692 
        2.08009         123.991         12.4784 
        2.08622         123.377         12.3886 
        2.09237         122.172         12.2995 
        2.09851         121.805         12.2113 
        2.10464         121.157         12.1241 
        2.11077         120.508         12.0378 
        2.11691         119.647         11.9522 
        2.12305         118.907         11.8674 
        2.12918         118.254         11.7837 
        2.13531         117.557         11.7007 
        2.14145         116.718         11.6184 
         2.1476         115.776         11.5367 
        2.15372         115.494         11.4563 
        2.15985          114.79         11.3765 
        2.16599         114.024         11.2973 
        2.17213         113.372         11.2189 
        2.17827         112.796         11.1413 
         2.1844         111.898         11.0644 
        2.19054         111.375         10.9883 
        2.19666         110.841          10.913 
         2.2028         110.193         10.8383 
        2.20893         109.606         10.7643 
        2.21508         108.877         10.6909 
        2.22122         108.169         10.6182 
        2.22736         107.704         10.5463 
        2.23349         107.079          10.475 
        2.23962         106.435         10.4044 
        2.24577         105.666         10.3344 
         2.2519         105.084         10.2651 
        2.25802         104.451         10.1966 
        2.26417         103.963         10.1285 
        2.27031         103.366         10.0609 
        2.27644         102.866         9.99417 
        2.28257         102.364         9.92805 
        2.28872         101.682         9.86239 
        2.29486         101.128         9.79735 
        2.30099         100.343         9.73302 
        2.30712         100.048         9.66924 
        2.31326         99.1681         9.60593 
         2.3194         98.7353         9.54322 
        2.32553         98.1091         9.48117 
        2.33166         97.7208          9.4197 
         2.3378         97.0245         9.35869 
        2.34394         96.5626         9.29821 
        2.35007          95.946         9.23834 
        2.35619         95.5066         9.17907 
        2.36233         95.0906         9.12018 
        2.36848         94.5503         9.06169 
        2.37462         94.0403         9.00383 
        2.38075         93.3752         8.94653 
        2.38689         92.9087         8.88968 
        2.39303         92.3698         8.83333 
        2.39916         92.0536         8.77753 
        2.40529         91.1993         8.72222 
        2.41143         90.9057         8.66734 
        2.41757         90.3069         8.61291 
         2.4237         89.8165         8.55905 
        2.42983         89.3794         8.50565 
        2.43598         88.7517         8.45256 
        2.44211         88.2615         8.40002 
        2.44823         87.9066         8.34804 
        2.45437         87.4283         8.29635 
        2.46052         86.8916         8.24506 
        2.46665         86.3777          8.1943 
        2.47279         85.9628         8.14397 
        2.47892         85.4377         8.09404 
        2.48507         85.1333         8.04448 
         2.4912         84.5057         7.99543 
