# k  (h/Mpc)    P(k)  (Mpc/h)^3    P_linear(k)  (Mpc/h)^3
     0.00783031         7922.15         7983.47 
       0.013688            9652         9860.36 
       0.019231         9758.38         9871.18 
      0.0249154         8969.94         8950.85 
      0.0312784         7515.04         7552.55 
      0.0375637         6224.64         6287.78 
      0.0433917         5405.39         5407.82 
      0.0492413         4784.66         4816.16 
      0.0555754         4416.29         4415.17 
      0.0619321         4035.24         4133.49 
       0.067871         3829.77          3875.7 
      0.0738098         3543.62          3567.1 
      0.0800417         3180.07         3185.11 
      0.0862327         2777.11         2786.37 
      0.0921407         2444.41         2437.47 
      0.0982031         2186.03         2148.65 
       0.104506         1947.53         1936.54 
       0.110769         1820.98         1803.92 
       0.116806         1762.24          1724.3 
       0.122832         1675.34         1662.14 
       0.129052            1602         1589.36 
       0.135211         1530.19         1494.03 
       0.141259         1402.44         1378.64 
       0.147318         1271.81          1253.5 
       0.153489         1169.71         1132.58 
       0.159709         1094.21         1030.92 
       0.165845         998.076         956.423 
       0.171974         974.113         905.922 
       0.178125         939.874         872.069 
       0.184229         885.518         845.605 
        0.19034         868.381         817.421 
       0.196428         837.121         782.205 
       0.202534         776.682           738.8 
       0.208729         752.175         689.639 
       0.214876         712.145         640.975 
       0.220989         660.343         597.586 
       0.227147         641.078         561.955 
        0.23329         615.523         534.999 
       0.239377         604.548         515.118 
       0.245482         576.065         499.132 
       0.251667         554.655         483.841 
       0.257832         548.185         467.055 
       0.263955         517.397         447.852 
       0.270079         496.945         426.549 
        0.27624          474.17         404.389 
       0.282372           460.9         383.346 
        0.28843         455.422         364.849 
       0.294538         431.972          349.16 
       0.300721         417.652         336.154 
        0.30691         410.981         325.254 
       0.313033         392.991         315.538 
       0.319153         386.584         305.926 
       0.325316          377.31         295.737 
        0.33145          367.38         284.932 
       0.337538          353.86         273.822 
       0.343633          342.62         262.805 
       0.349808         332.981         252.264 
       0.355968         325.769         242.768 
       0.362074         316.184         234.441 
       0.368217         312.327         227.074 
       0.374374         305.161         220.389 
       0.380519         292.817         214.077 
       0.386598         288.441         207.926 
       0.392688         280.836         201.667 
        0.39888          274.31         195.221 
       0.405048         268.609         188.815 
       0.411186         266.197         182.604 
       0.417313         260.883         176.739 
       0.423458         253.817         171.285 
       0.429607         247.458         166.251 
       0.435692         243.252          161.66 
       0.441815         238.356          157.32 
       0.447964         231.864         153.125 
       0.454126         228.375          149.01 
       0.460267         225.495         144.963 
       0.466387         220.591         140.965 
        0.47254         217.909          137.02 
       0.478662         211.438         133.227 
       0.484765         208.755         129.619 
       0.490885         205.586         126.183 
       0.497035          202.85         122.917 
       0.503198          200.41         119.823 
       0.509342         195.114         116.875 
       0.515458         192.518         114.036 
       0.521598         188.089         111.254 
       0.527764          186.17         108.524 
       0.533884         185.266          105.88 
           0.54         180.892         103.306 
       0.546137         176.796           100.8 
       0.552299         175.131         98.3732 
       0.558452         172.072         96.0509 
       0.564573         171.117         93.8396 
       0.570708         166.936          91.709 
       0.576825         164.746         89.6567 
       0.582926         163.018         87.6695 
       0.589034         160.507         85.7334 
       0.595184         159.101         83.8373 
       0.601379         155.855         81.9805 
       0.607522         152.892         80.1907 
       0.613639         151.806         78.4594 
       0.619772         149.939         76.7755 
       0.625918         148.746         75.1407 
       0.632068         145.369         73.5582 
       0.638161         143.995         72.0418 
         0.6443         143.077         70.5617 
       0.650464         140.233         69.1199 
       0.656582         139.495         67.7283 
       0.662703         137.994          66.372 
       0.668861         135.174         65.0418 
       0.675024         135.176          63.745 
       0.681124          132.95         62.4959 
       0.687237         131.157         61.2784 
       0.693381         129.916         60.0894 
       0.699536         128.452         58.9323 
       0.705665         126.933         57.8128 
       0.711789         125.317         56.7247 
       0.717957         123.877          55.658 
        0.72409          122.76         54.6249 
       0.730186         122.485         53.6239 
       0.736317          120.48         52.6419 
       0.742472          118.74         51.6804 
       0.748622         116.952         50.7437 
        0.75476         117.245         49.8323 
       0.760888         116.012         48.9448 
       0.767043         113.864         48.0759 
       0.773185         112.628         47.2305 
       0.779291         111.388         46.4108 
       0.785407         110.474         45.6099 
       0.791564          109.82         44.8232 
       0.797719          108.28         44.0559 
       0.803834         107.996         43.3117 
       0.809972         107.087         42.5822 
       0.816124         105.504          41.868 
       0.822261         104.483         41.1722 
       0.828378         104.238         40.4945 
       0.834502         102.759         39.8315 
       0.840667         102.197         39.1792 
       0.846816         101.191         38.5435 
       0.852925         100.038         37.9261 
       0.859047          99.463          37.321 
       0.865192         98.4772         36.7274 
       0.871341         97.4428         36.1464 
       0.877463          96.681         35.5808 
       0.883569         96.5767         35.0288 
       0.889708         95.6265         34.4859 
       0.895864         94.7987         33.9533 
       0.902008         93.7946         33.4331 
       0.908149         92.6371         32.9243 
       0.914301         92.5333         32.4254 
       0.920448         92.2394         31.9374 
       0.926574         90.3395         31.4613 
       0.932687         90.2675          30.996 
       0.938823         89.5754         30.5385 
       0.944975         88.5669         30.0893 
       0.951105         87.7994         29.6509 
       0.957225         87.6393         29.2221 
       0.963368         86.6705         28.8003 
       0.969511          86.104          28.387 
       0.975621         85.2246          27.984 
       0.981748         84.6046          27.588 
       0.987916         83.9989         27.1972 
        0.99406         83.7218         26.8154 
        1.00019          82.663         26.4419 
        1.00632         82.0907         26.0759 
        1.01246          81.636         25.7163 
        1.01859         81.2748         25.3641 
        1.02471         80.5633         25.0191 
        1.03085          79.821         24.6793 
        1.03698         79.3159         24.3466 
        1.04314          78.724         24.0187 
        1.04929         78.3455         23.6977 
        1.05541         77.7644         23.3839 
        1.06154         77.2801          23.075 
        1.06769         76.6518         22.7713 
        1.07382         75.9351         22.4741 
        1.07993         75.7368          22.183 
        1.08607         75.1196         21.8959 
        1.09222         74.8315         21.6135 
        1.09836         74.1203         21.3366 
        1.10449         73.7167         21.0649 
        1.11063         73.2011         20.7977 
        1.11677         72.7878         20.5352 
         1.1229         72.1399         20.2778 
        1.12903         71.8913         20.0246 
        1.13518         71.5515         19.7755 
        1.14131         70.9161         19.5309 
        1.14745         70.5461         19.2906 
        1.15359         69.6817         19.0543 
        1.15973         69.6538         18.8219 
        1.16584         69.1583         18.5945 
        1.17197         68.6416         18.3705 
        1.17811         68.2005         18.1496 
        1.18424         67.5291          17.933 
        1.19038         67.4615         17.7193 
        1.19652           67.04         17.5092 
        1.20267         66.5414         17.3026 
        1.20881         66.1469         17.0993 
        1.21495         65.7589         16.8997 
        1.22108         65.5962         16.7033 
         1.2272         64.8784         16.5105 
        1.23334         64.7045         16.3203 
        1.23949         64.2433         16.1327 
        1.24562          63.777         15.9486 
        1.25174         63.4535         15.7677 
        1.25789         63.3149          15.589 
        1.26402         62.8139         15.4135 
        1.27014         62.5624         15.2411 
        1.27628          61.974         15.0708 
        1.28244         61.9102         14.9029 
        1.28858         61.4242         14.7377 
        1.29471         61.0246         14.5754 
        1.30084         60.4582         14.4158 
        1.30697         60.5575         14.2583 
        1.31312         60.0516          14.103 
        1.31925         59.5992         13.9504 
        1.32537         59.3244         13.8004 
        1.33151         59.0363         13.6519 
        1.33765         58.6985         13.5058 
        1.34378         58.3774         13.3622 
        1.34992         58.1297         13.2205 
        1.35606         57.6708         13.0806 
         1.3622         57.4884          12.943 
        1.36833         57.1174         12.8077 
        1.37445         56.6115         12.6744 
        1.38059         56.5305         12.5427 
        1.38675          55.961         12.4125 
        1.39288         55.9267         12.2847 
        1.39901         55.4364         12.1587 
        1.40515         55.2702         12.0343 
         1.4113         55.0756         11.9116 
        1.41742         54.6756         11.7912 
        1.42355         54.4549         11.6722 
         1.4297         54.1542         11.5545 
        1.43585         53.7987         11.4384 
        1.44198         53.4753         11.3245 
        1.44809         53.1398         11.2123 
        1.45423         52.9784         11.1012 
        1.46036         52.6842         10.9918 
        1.46649         52.4391         10.8839 
        1.47263         52.1526         10.7774 
        1.47877         51.9592         10.6723 
        1.48491         51.6401         10.5685 
        1.49104         51.2525         10.4663 
        1.49718         51.0925         10.3654 
        1.50333         50.8408         10.2656 
        1.50947         50.5976         10.1674 
         1.5156         50.4014         10.0706 
        1.52172          50.005         9.97507 
        1.52787         49.7596         9.88061 
          1.534         49.5017         9.78749 
        1.54013         49.4545         9.69568 
        1.54627         48.9734         9.60488 
        1.55241         48.7674         9.51524 
        1.55855         48.5914         9.42688 
        1.56467         48.1826         9.33989 
         1.5708         48.1574         9.25376 
        1.57695         47.8585          9.1686 
        1.58308         47.5508         9.08471 
        1.58922         47.3606         9.00182 
        1.59535         47.2476            8.92 
         1.6015         47.1284         8.83909 
        1.60764         46.7462         8.75923 
        1.61376         46.5052         8.68059 
        1.61989         46.1656         8.60285 
        1.62604         46.0262          8.5259 
        1.63218         45.7243         8.44994 
        1.63831          45.639         8.37509 
        1.64444         45.4284         8.30112 
        1.65059         45.1348         8.22787 
        1.65673         44.8909          8.1556 
        1.66285         44.7851          8.0844 
        1.66898         44.4154         8.01403 
        1.67512          44.254         7.94438 
        1.68127         44.0925         7.87549 
         1.6874         43.8688         7.80757 
        1.69353         43.7016          7.7405 
        1.69967         43.5177         7.67407 
        1.70581          43.198         7.60845 
        1.71193          43.045         7.54385 
        1.71806          42.856         7.47987 
        1.72421         42.6747          7.4165 
        1.73035         42.4458         7.35395 
        1.73649         42.1621         7.29213 
        1.74262         41.8863         7.23108 
        1.74876         41.9571         7.17069 
        1.75489         41.6104         7.11112 
        1.76101         41.4473         7.05224 
        1.76715         41.3281         6.99396 
        1.77329          40.931         6.93626 
        1.77943         40.9669          6.8792 
        1.78557         40.7496         6.82286 
        1.79171         40.5116         6.76715 
        1.79785         40.3485         6.71205 
        1.80399         40.1165         6.65759 
        1.81012         39.9813          6.6038 
        1.81625         39.7048         6.55064 
        1.82239         39.5379         6.49798 
        1.82853         39.4038         6.44593 
        1.83466         39.1989         6.39451 
        1.84078         39.0361          6.3437 
        1.84692         38.8193         6.29337 
        1.85306         38.6207         6.24353 
         1.8592         38.4877          6.1943 
        1.86533         38.3338         6.14564 
        1.87147         38.1433         6.09745 
        1.87761         37.9357         6.04975 
        1.88375         37.7916         6.00263 
        1.88988         37.6584         5.95606 
        1.89601         37.4375         5.90996 
        1.90215         37.2419         5.86431 
        1.90829         37.1077         5.81918 
        1.91442         36.9113         5.77451 
        1.92056         36.7805         5.73036 
         1.9267         36.7085         5.68662 
        1.93284         36.4672         5.64332 
        1.93897         36.3511         5.60056 
        1.94509         36.0847         5.55833 
        1.95123         36.0043         5.51644 
        1.95737         35.7966         5.47494 
        1.96349          35.725         5.43399 
        1.96964          35.487         5.39334 
        1.97578         35.3146         5.35308 
        1.98192         35.1482         5.31332 
        1.98805         34.9836         5.27397 
        1.99419         34.8723         5.23501 
        2.00033         34.7125         5.19643 
        2.00647         34.6215         5.15825 
         2.0126         34.3957         5.12052 
        2.01874         34.2808         5.08311 
        2.02488         34.0569         5.04604 
        2.03101         33.9594         5.00941 
        2.03714         33.8088         4.97319 
        2.04328         33.6958         4.93728 
        2.04941         33.4879         4.90175 
        2.05554         33.3628         4.86661 
        2.06167         33.2207         4.83176 
        2.06781         33.0667         4.79725 
        2.07396         32.9125         4.76304 
        2.08009         32.7738         4.72921 
        2.08622         32.6495         4.69576 
        2.09237         32.4964         4.66256 
        2.09851         32.3684         4.62968 
        2.10464         32.2162         4.59718 
        2.11077         32.1289         4.56502 
        2.11691         31.8751         4.53311 
        2.12305         31.7384          4.5015 
        2.12918         31.6487         4.47027 
        2.13531         31.5048         4.43933 
        2.14145         31.3885         4.40862 
         2.1476         31.2451         4.37816 
        2.15372         31.1582         4.34815 
        2.15985         30.9372         4.31839 
        2.16599         30.7787         4.28882 
        2.17213         30.6982         4.25956 
        2.17827          30.574         4.23058 
         2.1844         30.4194          4.2019 
        2.19054         30.3349         4.17348 
        2.19666          30.148         4.14536 
         2.2028         30.0279         4.11748 
        2.20893         29.9557         4.08984 
        2.21508         29.8243         4.06242 
        2.22122         29.6806         4.03525 
        2.22736         29.5052         4.00839 
        2.23349         29.4272         3.98177 
        2.23962         29.2901         3.95539 
        2.24577         29.1743         3.92922 
         2.2519         29.0138         3.90333 
        2.25802         28.8892         3.87771 
        2.26417           28.76         3.85226 
        2.27031         28.6685         3.82701 
        2.27644         28.6137         3.80206 
        2.28257         28.4186         3.77733 
        2.28872          28.357         3.75278 
        2.29486         28.2001         3.72845 
        2.30099         28.0306         3.70439 
        2.30712         27.9672         3.68054 
        2.31326         27.8244         3.65685 
         2.3194         27.7038         3.63339 
        2.32553         27.6221         3.61017 
        2.33166         27.4965         3.58716 
         2.3378         27.3615         3.56433 
        2.34394         27.2628         3.54169 
        2.35007         27.1984         3.51928 
        2.35619         27.0779         3.49709 
        2.36233          26.912         3.47504 
        2.36848         26.8237         3.45313 
        2.37462         26.7446         3.43146 
        2.38075         26.5753            3.41 
        2.38689          26.461         3.38871 
        2.39303           26.42          3.3676 
        2.39916         26.2228         3.34669 
        2.40529         26.1528         3.32597 
        2.41143         26.0319          3.3054 
        2.41757         25.9361           3.285 
         2.4237         25.8525         3.26482 
        2.42983         25.6888          3.2448 
        2.43598         25.5859          3.2249 
        2.44211         25.5039          3.2052 
        2.44823         25.3712         3.18571 
        2.45437         25.3562         3.16633 
        2.46052         25.1918         3.14709 
        2.46665         25.0898         3.12805 
        2.47279          24.943         3.10918 
        2.47892         24.8733         3.09045 
        2.48507         24.7824         3.07185 
         2.4912          24.697         3.05344 
