# k  (h/Mpc)    P(k)  (Mpc/h)^3    P_linear(k)  (Mpc/h)^3
     0.00783031         18486.9         18666.6 
       0.013688         20805.2         21426.6 
       0.019231         19987.6         20330.2 
      0.0249154         17615.2         17536.2 
      0.0312784         13913.9         14003.5 
      0.0375637         10920.6           11050 
      0.0433917         9104.98         9088.93 
      0.0492413         7797.73          7824.6 
      0.0555754         7072.38         7028.52 
      0.0619321         6378.48         6547.22 
       0.067871          6091.3         6159.88 
      0.0738098         5679.13         5694.43 
      0.0800417         5094.45         5080.69 
      0.0862327         4405.63          4396.4 
      0.0921407         3838.71         3764.62 
      0.0982031         3369.51         3218.84 
       0.104506         2914.41         2805.14 
       0.110769         2679.39         2546.56 
       0.116806         2566.74         2407.08 
       0.122832          2445.9         2327.04 
       0.129052         2338.48          2254.7 
       0.135211         2279.93         2153.88 
       0.141259         2097.73         2010.94 
       0.147318         1919.33         1832.31 
       0.153489         1757.94         1638.26 
       0.159709         1643.14          1458.3 
       0.165845            1480         1315.61 
       0.171974         1426.75         1214.58 
       0.178125         1368.11         1150.54 
       0.184229         1270.79         1112.27 
        0.19034         1256.57         1084.33 
       0.196428         1221.88         1053.25 
       0.202534          1141.3         1010.14 
       0.208729         1117.69         952.279 
       0.214876         1056.05         885.293 
       0.220989         988.235         817.043 
       0.227147         952.599         754.453 
        0.23329         907.427         703.354 
       0.239377         897.396         665.463 
       0.245482         849.128         638.483 
       0.251667         819.284         618.529 
       0.257832         805.707          601.39 
       0.263955         765.813         583.036 
       0.270079         739.347         561.045 
        0.27624         708.242         535.022 
       0.282372         694.321         506.641 
        0.28843         682.139         478.542 
       0.294538         646.457         452.353 
       0.300721         630.097         429.639 
        0.30691          615.01         411.137 
       0.313033         587.163         396.496 
       0.319153         579.713         384.297 
       0.325316          569.98         373.058 
        0.33145         555.691          361.67 
       0.337538         534.969         349.518 
       0.343633         521.522         336.357 
       0.349808         508.367         322.484 
       0.355968         498.808         308.741 
       0.362074         479.283         295.949 
       0.368217         476.941         284.354 
       0.374374          468.85         274.187 
       0.380519         449.623         265.356 
       0.386598         445.251         257.531 
       0.392688         433.015          250.21 
        0.39888         423.007         242.892 
       0.405048         412.904         235.478 
       0.411186         412.591         227.961 
       0.417313         406.519         220.374 
       0.423458         395.655         212.896 
       0.429607         383.472         205.764 
       0.435692         378.374         199.171 
       0.441815         371.008         193.066 
       0.447964         363.898         187.464 
       0.454126         359.678         182.247 
       0.460267          353.65         177.314 
       0.466387         345.641         172.558 
        0.47254         341.852          167.85 
       0.478662         334.504         163.186 
       0.484765         329.617         158.595 
       0.490885          326.52         154.104 
       0.497035         318.806          149.75 
       0.503198         318.413         145.585 
       0.509342         311.626          141.66 
       0.515458         305.418         137.985 
       0.521598          301.81         134.484 
       0.527764          296.79         131.114 
       0.533884         293.702          127.88 
           0.54         290.318         124.737 
       0.546137         284.239         121.657 
       0.552299         282.737         118.627 
       0.558452          277.75         115.675 
       0.564573         276.641         112.828 
       0.570708         271.136         110.083 
       0.576825         266.703          107.46 
       0.582926          265.47         104.949 
       0.589034         260.164         102.529 
       0.595184         258.658          100.18 
       0.601379         254.474         97.8924 
       0.607522         248.844         95.6936 
       0.613639         248.187         93.5651 
       0.619772         246.994         91.4851 
       0.625918         242.233          89.453 
       0.632068         239.995         87.4755 
       0.638161         238.486         85.5749 
         0.6443         234.515         83.7219 
       0.650464         232.192         81.9257 
       0.656582          229.52         80.2019 
       0.662703          228.87          78.531 
       0.668861         223.769         76.8995 
       0.675024         223.212         75.3114 
       0.681124         219.601         73.7811 
       0.687237         218.607          72.288 
       0.693381         214.774         70.8278 
       0.699536           214.4          69.405 
       0.705665         211.687          68.028 
       0.711789          209.14         66.6908 
       0.717957         207.779         65.3816 
        0.72409         204.757         64.1157 
       0.730186         205.669         62.8914 
       0.736317         202.263         61.6928 
       0.742472         200.468          60.521 
       0.748622         198.583         59.3805 
        0.75476         197.726         58.2717 
       0.760888          195.42         57.1929 
       0.767043         192.585         56.1373 
       0.773185         190.754         55.1106 
       0.779291         189.613         54.1157 
       0.785407         188.307         53.1443 
       0.791564         186.857         52.1909 
       0.797719         183.777         51.2617 
       0.803834         184.459         50.3612 
       0.809972         181.924         49.4793 
       0.816124         179.341         48.6166 
       0.822261         178.157         47.7769 
       0.828378         177.464         46.9596 
       0.834502         175.433         46.1606 
       0.840667         175.396          45.375 
       0.846816         172.257           44.61 
       0.852925         172.131         43.8674 
       0.859047         170.144         43.1403 
       0.865192         169.665         42.4272 
       0.871341         168.026           41.73 
       0.877463         166.434         41.0516 
       0.883569          166.04         40.3901 
       0.889708         164.686         39.7399 
       0.895864         162.487         39.1024 
       0.902008         161.377         38.4803 
       0.908149         159.912         37.8722 
       0.914301         158.891         37.2763 
       0.920448         158.293         36.6938 
       0.926574         156.663         36.1258 
       0.932687          156.53         35.5712 
       0.938823          155.01         35.0262 
       0.944975         154.607         34.4914 
       0.951105         152.751         33.9697 
       0.957225         151.684         33.4597 
       0.963368         151.382         32.9585 
       0.969511          149.52         32.4676 
       0.975621         147.572         31.9894 
       0.981748         147.609         31.5196 
       0.987916         146.676         31.0563 
        0.99406          145.57         30.6041 
        1.00019         144.874         30.1619 
        1.00632         143.797         29.7288 
        1.01246         142.684         29.3036 
        1.01859         141.455         28.8874 
        1.02471         140.541         28.4799 
        1.03085           139.9         28.0789 
        1.03698         139.184         27.6864 
        1.04314         138.425         27.2998 
        1.04929         137.652         26.9215 
        1.05541         137.234          26.552 
        1.06154         135.782         26.1885 
        1.06769         135.001         25.8312 
        1.07382         133.797         25.4818 
        1.07993         133.358         25.1397 
        1.08607         133.036         24.8024 
        1.09222         131.469          24.471 
        1.09836         130.898         24.1461 
        1.10449         130.254         23.8274 
        1.11063         129.074         23.5142 
        1.11677         128.564         23.2067 
         1.1229         127.662         22.9053 
        1.12903         126.434         22.6089 
        1.13518          125.94         22.3176 
        1.14131          125.68         22.0316 
        1.14745         124.538         21.7507 
        1.15359         123.782         21.4747 
        1.15973         123.175         21.2033 
        1.16584         122.313         20.9379 
        1.17197          121.91         20.6767 
        1.17811         120.903         20.4191 
        1.18424         120.309         20.1666 
        1.19038         119.695         19.9177 
        1.19652         118.683         19.6731 
        1.20267         118.037         19.4327 
        1.20881         117.249         19.1963 
        1.21495         117.142         18.9642 
        1.22108         116.075          18.736 
         1.2272         115.887         18.5121 
        1.23334         114.845         18.2913 
        1.23949         114.323         18.0737 
        1.24562          113.49         17.8601 
        1.25174         113.515         17.6504 
        1.25789         112.485         17.4434 
        1.26402         111.826         17.2401 
        1.27014         111.195         17.0405 
        1.27628         110.803         16.8435 
        1.28244         110.067         16.6493 
        1.28858         109.505         16.4584 
        1.29471          108.66         16.2709 
        1.30084         108.149         16.0865 
        1.30697         107.408         15.9046 
        1.31312          107.09         15.7254 
        1.31925         106.126         15.5494 
        1.32537         105.783         15.3763 
        1.33151          105.25         15.2053 
        1.33765         104.773         15.0369 
        1.34378         104.408         14.8714 
        1.34992         103.619         14.7083 
        1.35606          103.34         14.5473 
         1.3622         102.695          14.389 
        1.36833         102.067         14.2334 
        1.37445         101.589         14.0802 
        1.38059         100.976         13.9288 
        1.38675         100.537         13.7793 
        1.39288         99.9074         13.6325 
        1.39901          99.284          13.488 
        1.40515         98.9577         13.3452 
         1.4113         98.3685         13.2046 
        1.41742         98.1666         13.0665 
        1.42355          97.532         12.9301 
         1.4297         96.8959         12.7953 
        1.43585         96.6053         12.6624 
        1.44198          95.955         12.5319 
        1.44809         95.4437         12.4036 
        1.45423          95.213         12.2765 
        1.46036         94.2805         12.1514 
        1.46649         93.8476         12.0281 
        1.47263         93.4038         11.9064 
        1.47877         93.1261         11.7864 
        1.48491         92.5736         11.6678 
        1.49104         92.0333         11.5512 
        1.49718         91.5763         11.4361 
        1.50333         90.9586         11.3223 
        1.50947         90.9157         11.2103 
         1.5156         90.2069            11.1 
        1.52172         89.5336         10.9912 
        1.52787         89.3607         10.8837 
          1.534         88.9742         10.7777 
        1.54013         88.4147         10.6732 
        1.54627         87.9579         10.5699 
        1.55241         87.6682          10.468 
        1.55855         87.0182         10.3675 
        1.56467         86.6036         10.2687 
         1.5708         86.0189         10.1709 
        1.57695         85.8792         10.0741 
        1.58308         85.2868         9.97892 
        1.58922         84.8663         9.88486 
        1.59535         84.8668         9.79204 
         1.6015         84.0895         9.70029 
        1.60764         83.6968         9.60975 
        1.61376         83.5828         9.52062 
        1.61989         83.0009         9.43254 
        1.62604         82.6915         9.34538 
        1.63218         82.0957         9.25938 
        1.63831         81.8413         9.17465 
        1.64444         81.2142         9.09095 
        1.65059         80.8517          9.0081 
        1.65673         80.7645         8.92636 
        1.66285         80.3412         8.84587 
        1.66898          79.635         8.76634 
        1.67512         79.1857         8.68764 
        1.68127         79.0597         8.60983 
         1.6874         78.7575         8.53314 
        1.69353         78.1319         8.45743 
        1.69967         77.8081         8.38247 
        1.70581         77.5082         8.30844 
        1.71193         77.1697         8.23559 
        1.71806         76.6394         8.16345 
        1.72421         76.2975         8.09204 
        1.73035         75.9332         8.02156 
        1.73649         75.6405         7.95194 
        1.74262         75.1733         7.88319 
        1.74876         74.7349         7.81522 
        1.75489         74.7048         7.74818 
        1.76101         74.3514         7.68195 
        1.76715         73.8455          7.6164 
        1.77329         73.4849         7.55154 
        1.77943         73.1132          7.4874 
        1.78557         72.9085         7.42411 
        1.79171         72.4086         7.36153 
        1.79785         72.1497         7.29966 
        1.80399         71.7915         7.23852 
        1.81012         71.3193         7.17816 
        1.81625         71.0495         7.11851 
        1.82239         70.6893         7.05945 
        1.82853         70.3687         7.00109 
        1.83466         70.0383         6.94345 
        1.84078         69.7141         6.88651 
        1.84692         69.4381         6.83012 
        1.85306         69.3273         6.77429 
         1.8592         68.9582         6.71918 
        1.86533         68.4551          6.6647 
        1.87147         68.1099         6.61077 
        1.87761         67.6458         6.55741 
        1.88375         67.5395          6.5047 
        1.88988         67.1463         6.45262 
        1.89601         66.9033         6.40109 
        1.90215         66.6964         6.35007 
        1.90829         66.1563         6.29964 
        1.91442         65.8287         6.24974 
        1.92056         65.6605         6.20043 
         1.9267         65.2836         6.15161 
        1.93284         65.1613         6.10327 
        1.93897         64.6672         6.05555 
        1.94509         64.4216         6.00844 
        1.95123          64.115         5.96171 
        1.95737          63.863         5.91545 
        1.96349          63.697         5.86979 
        1.96964         63.4225         5.82448 
        1.97578         62.8792         5.77964 
        1.98192         62.5986         5.73535 
        1.98805         62.3811         5.69152 
        1.99419         62.2295         5.64815 
        2.00033         61.7593         5.60521 
        2.00647         61.4543         5.56272 
         2.0126         61.3199         5.52075 
        2.01874         61.0515         5.47914 
        2.02488         60.7604         5.43793 
        2.03101         60.3451         5.39721 
        2.03714         60.1671         5.35695 
        2.04328         59.9735         5.31706 
        2.04941         59.6338          5.2776 
        2.05554         59.2795         5.23857 
        2.06167         59.0261         5.19989 
        2.06781         58.7807         5.16158 
        2.07396         58.4111         5.12361 
        2.08009         58.3228         5.08609 
        2.08622         57.8765         5.04898 
        2.09237          57.728         5.01217 
        2.09851         57.3665         4.97572 
        2.10464         57.1437         4.93969 
        2.11077         56.9266         4.90407 
        2.11691            56.7         4.86871 
        2.12305         56.3487          4.8337 
        2.12918         56.0524         4.79912 
        2.13531          55.894         4.76488 
        2.14145         55.5555         4.73089 
         2.1476           55.46         4.69719 
        2.15372         55.0405         4.66399 
        2.15985         54.9035         4.63107 
        2.16599         54.6644         4.59838 
        2.17213         54.4032         4.56604 
        2.17827         53.9998         4.53401 
         2.1844         53.8844         4.50232 
        2.19054         53.6802         4.47092 
        2.19666          53.353         4.43987 
         2.2028         53.1431         4.40908 
        2.20893          52.825         4.37857 
        2.21508         52.7472         4.34831 
        2.22122         52.3573         4.31833 
        2.22736         52.1334         4.28869 
        2.23349         51.9374         4.25934 
        2.23962         51.7704         4.23024 
        2.24577         51.4935          4.2014 
         2.2519         51.2067         4.17286 
        2.25802         50.9844         4.14463 
        2.26417         50.8493         4.11658 
        2.27031         50.5968         4.08877 
        2.27644         50.2528         4.06129 
        2.28257         50.1182         4.03407 
        2.28872         49.8728         4.00704 
        2.29486         49.6532         3.98027 
        2.30099         49.4146          3.9538 
        2.30712         49.2475         3.92755 
        2.31326         48.9514          3.9015 
         2.3194         48.7174          3.8757 
        2.32553         48.5396         3.85018 
        2.33166         48.3491         3.82489 
         2.3378         48.0582          3.7998 
        2.34394         47.9606         3.77493 
        2.35007         47.6385         3.75031 
        2.35619         47.4795         3.72594 
        2.36233         47.3043         3.70173 
        2.36848         47.0462         3.67768 
        2.37462         46.8484          3.6539 
        2.38075         46.5507         3.63035 
        2.38689         46.3941         3.60699 
        2.39303          46.231         3.58383 
        2.39916         46.0396         3.56091 
        2.40529         45.8471         3.53818 
        2.41143         45.6508         3.51564 
        2.41757         45.3806         3.49328 
         2.4237         45.2638         3.47116 
        2.42983         45.0342         3.44924 
        2.43598         44.8994         3.42744 
        2.44211         44.5714         3.40587 
        2.44823         44.4847         3.38453 
        2.45437         44.2101         3.36331 
        2.46052         44.0416         3.34226 
        2.46665         43.8289         3.32143 
        2.47279         43.5902         3.30078 
        2.47892         43.4038         3.28029 
        2.48507         43.2601         3.25995 
         2.4912         43.0639         3.23983 
