# k  (h/Mpc)    P(k)  (Mpc/h)^3    P_linear(k)  (Mpc/h)^3
     0.00783031         2461.55         2492.29 
       0.013688         3095.98         3095.19 
       0.019231         3192.86         3192.82 
      0.0249154         3010.44         3036.67 
      0.0312784         2719.38         2728.01 
      0.0375637         2405.82         2402.47 
      0.0433917         2126.59         2138.06 
      0.0492413         1924.07         1925.93 
      0.0555754         1734.28         1750.75 
      0.0619321         1620.85         1613.22 
       0.067871         1489.74         1500.59 
      0.0738098         1378.84         1390.14 
      0.0800417         1254.43         1270.75 
      0.0862327         1142.14         1150.54 
      0.0921407         1038.01         1040.57 
      0.0982031         933.672         939.428 
       0.104506         858.133         851.708 
       0.110769         788.527         783.082 
       0.116806         732.002         731.851 
       0.122832         695.156          690.74 
       0.129052         651.683         653.528 
       0.135211         616.081         617.535 
       0.141259         584.008         580.727 
       0.147318         548.623         542.253 
       0.153489         506.541         502.917 
       0.159709         471.928         465.397 
       0.165845         444.784         432.428 
       0.171974         413.242         404.548 
       0.178125         391.514         381.579 
       0.184229         374.192         362.815 
        0.19034         351.948         346.648 
       0.196428         341.755         331.721 
       0.202534         330.145         316.858 
       0.208729          312.76         301.367 
       0.214876         294.928         285.652 
       0.220989          283.91         270.158 
       0.227147         265.931         255.316 
        0.23329         253.355         241.807 
       0.239377         243.951         229.974 
       0.245482         229.728         219.633 
       0.251667         224.423         210.453 
       0.257832         216.198         202.204 
       0.263955         208.187         194.497 
       0.270079         200.692         186.972 
        0.27624         195.765          179.44 
       0.282372         187.853         171.981 
        0.28843         180.007         164.766 
       0.294538         172.657           157.8 
       0.300721         168.636         151.207 
        0.30691         160.823         145.144 
       0.313033         155.897         139.676 
       0.319153         148.773          134.67 
       0.325316         146.065         129.986 
        0.33145          140.82          125.57 
       0.337538         137.747         121.342 
       0.343633         133.041         117.213 
       0.349808         129.073          113.13 
       0.355968         125.652         109.172 
       0.362074          121.67         105.403 
       0.368217         118.195         101.797 
       0.374374         114.628         98.3903 
       0.380519         111.735         95.1983 
       0.386598         108.711         92.2276 
       0.392688         106.568         89.4131 
        0.39888          103.58         86.6828 
       0.405048         101.207         84.0689 
       0.411186         98.9136         81.5553 
       0.417313         95.8877         79.1227 
       0.423458         93.6354         76.7636 
       0.429607         91.1583         74.4883 
       0.435692         88.2365         72.3269 
       0.441815         87.1626         70.2467 
       0.447964         85.6998         68.2536 
       0.454126         82.1304         66.3463 
       0.460267         80.8796         64.5286 
       0.466387         78.8952         62.7905 
        0.47254         77.6832          61.107 
       0.478662         76.4121         59.4892 
       0.484765         74.2834         57.9301 
       0.490885         72.7314          56.418 
       0.497035         71.7755         54.9492 
       0.503198         69.8782         53.5295 
       0.509342         68.1492         52.1661 
       0.515458         66.9731         50.8594 
       0.521598         65.9874         49.5957 
       0.527764         64.7403         48.3729 
       0.533884         63.6104         47.2022 
           0.54         62.3727         46.0721 
       0.546137         61.5278         44.9746 
       0.552299         60.6102         43.9075 
       0.558452         58.8379         42.8759 
       0.564573         57.8969         41.8819 
       0.570708         57.1611         40.9171 
       0.576825         55.9059         39.9858 
       0.582926         54.8739         39.0865 
       0.589034         53.5569         38.2148 
       0.595184           52.93         37.3651 
       0.601379         52.1561         36.5363 
       0.607522         50.9996         35.7395 
       0.613639         50.7298         34.9699 
       0.619772         49.4375          34.221 
       0.625918         49.1929         33.4925 
       0.632068         48.4196         32.7848 
       0.638161         47.5638         32.1039 
         0.6443         46.7132         31.4375 
       0.650464         45.9795         30.7878 
       0.656582         45.6527         30.1612 
       0.662703         44.7442         29.5522 
       0.668861         44.0846         28.9568 
       0.675024         43.3975         28.3775 
       0.681124         42.6629         27.8202 
       0.687237         41.9583         27.2768 
       0.693381         41.6522         26.7454 
       0.699536         40.7092         26.2273 
       0.705665         40.7523         25.7251 
       0.711789         39.7758         25.2366 
       0.717957          39.344         24.7575 
        0.72409         38.7836         24.2937 
       0.730186          38.223         23.8446 
       0.736317         37.9209         23.4046 
       0.742472         37.2551         22.9742 
       0.748622         36.9542         22.5551 
        0.75476         36.3891         22.1474 
       0.760888         35.8678         21.7505 
       0.767043         35.4952         21.3618 
       0.773185         34.9193         20.9835 
       0.779291         34.7598         20.6165 
       0.785407         34.3664         20.2579 
       0.791564         33.7587         19.9055 
       0.797719          33.123         19.5619 
       0.803834         33.0808         19.2285 
       0.809972         32.7264         18.9018 
       0.816124         32.0124         18.5821 
       0.822261         31.8459         18.2706 
       0.828378         31.5434         17.9673 
       0.834502         31.1916         17.6707 
       0.840667         30.8518         17.3789 
       0.846816         30.3622         17.0945 
       0.852925         30.1033         16.8183 
       0.859047         29.7511         16.5477 
       0.865192         29.5011         16.2821 
       0.871341         29.3203         16.0223 
       0.877463         28.7599         15.7693 
       0.883569         28.4788         15.5224 
       0.889708         28.1694         15.2796 
       0.895864         27.9556         15.0414 
       0.902008         27.7392         14.8088 
       0.908149         27.4524         14.5812 
       0.914301         27.3284         14.3581 
       0.920448         26.7737         14.1399 
       0.926574         26.6245         13.9269 
       0.932687         26.3445         13.7189 
       0.938823         26.0098         13.5144 
       0.944975         25.7943         13.3135 
       0.951105         25.5922         13.1175 
       0.957225         25.3056         12.9258 
       0.963368         25.1345         12.7373 
       0.969511         24.9294         12.5526 
       0.975621         24.7327         12.3725 
       0.981748         24.3984         12.1955 
       0.987916         24.2679         12.0209 
        0.99406         23.9895         11.8504 
        1.00019         23.6913         11.6836 
        1.00632         23.6189         11.5201 
        1.01246         23.4039         11.3595 
        1.01859         23.0827         11.2023 
        1.02471         23.0271         11.0482 
        1.03085          22.808         10.8965 
        1.03698         22.4588         10.7481 
        1.04314         22.3323         10.6017 
        1.04929         22.0992         10.4585 
        1.05541         21.8854         10.3184 
        1.06154         21.7665         10.1807 
        1.06769         21.6353         10.0452 
        1.07382         21.3955         9.91264 
        1.07993         21.2978         9.78279 
        1.08607         21.0372         9.65474 
        1.09222         20.9172         9.52886 
        1.09836         20.6648         9.40537 
        1.10449         20.5707         9.28423 
        1.11063         20.3448         9.16509 
        1.11677         20.2723         9.04809 
         1.1229          20.166         8.93335 
        1.12903         19.9046          8.8205 
        1.13518         19.7057          8.7095 
        1.14131         19.6418         8.60049 
        1.14745          19.497          8.4934 
        1.15359         19.3736         8.38812 
        1.15973         19.1906         8.28459 
        1.16584         18.9517         8.18326 
        1.17197         18.9354         8.08349 
        1.17811         18.7397         7.98508 
        1.18424         18.5836         7.88859 
        1.19038         18.5211         7.79343 
        1.19652         18.3565         7.69987 
        1.20267         18.2018         7.60785 
        1.20881         18.1396         7.51736 
        1.21495         18.0035         7.42849 
        1.22108         17.8283         7.34107 
         1.2272         17.6762         7.25526 
        1.23334         17.5614         7.17064 
        1.23949         17.4095         7.08717 
        1.24562         17.3731         7.00526 
        1.25174         17.2574         6.92478 
        1.25789         17.1367         6.84531 
        1.26402         17.0553         6.76724 
        1.27014         16.8963         6.69059 
        1.27628         16.7077         6.61489 
        1.28244         16.6598         6.54022 
        1.28858         16.6119         6.46681 
        1.29471         16.4382          6.3947 
        1.30084         16.3048         6.32375 
        1.30697         16.2352         6.25378 
        1.31312         16.0697         6.18476 
        1.31925         15.9677         6.11701 
        1.32537         15.9254         6.05034 
        1.33151         15.7897         5.98443 
        1.33765         15.7026         5.91954 
        1.34378         15.6118         5.85574 
        1.34992         15.4505         5.79284 
        1.35606         15.4195         5.73073 
         1.3622          15.327         5.66964 
        1.36833         15.2008         5.60959 
        1.37445         15.1409         5.55044 
        1.38059         15.0587         5.49196 
        1.38675         14.9039         5.43419 
        1.39288         14.8558         5.37747 
        1.39901         14.7224          5.3216 
        1.40515         14.6679         5.26639 
         1.4113         14.5775         5.21199 
        1.41742         14.4811         5.15856 
        1.42355         14.4007         5.10579 
         1.4297         14.3169         5.05359 
        1.43585         14.2756         5.00215 
        1.44198         14.1562         4.95161 
        1.44809         14.0848         4.90187 
        1.45423          13.993         4.85263 
        1.46036         13.9291         4.80415 
        1.46649         13.8606         4.75632 
        1.47263         13.7392         4.70911 
        1.47877         13.6779         4.66255 
        1.48491         13.6066         4.61655 
        1.49104         13.5442         4.57128 
        1.49718          13.456         4.52657 
        1.50333         13.3942         4.48239 
        1.50947         13.3203          4.4389 
         1.5156         13.2243         4.39604 
        1.52172         13.1597         4.35375 
        1.52787         13.0776         4.31194 
          1.534         13.0079         4.27072 
        1.54013         12.9335         4.23009 
        1.54627         12.8497         4.18991 
        1.55241         12.8021         4.15025 
        1.55855         12.7456         4.11116 
        1.56467         12.6576         4.07268 
         1.5708         12.6386         4.03459 
        1.57695         12.5195         3.99692 
        1.58308         12.4688         3.95983 
        1.58922         12.4171         3.92318 
        1.59535         12.3566         3.88701 
         1.6015         12.2668         3.85124 
        1.60764         12.2033         3.81594 
        1.61376         12.1831         3.78118 
        1.61989          12.075         3.74683 
        1.62604         12.0496         3.71283 
        1.63218         11.9804         3.67927 
        1.63831          11.935          3.6462 
        1.64444         11.8493         3.61352 
        1.65059         11.7804         3.58117 
        1.65673         11.7539         3.54925 
        1.66285         11.6404         3.51781 
        1.66898         11.6207         3.48673 
        1.67512         11.5669         3.45598 
        1.68127         11.4942         3.42556 
         1.6874          11.452         3.39558 
        1.69353           11.39         3.36597 
        1.69967         11.3243         3.33665 
        1.70581         11.2691         3.30769 
        1.71193         11.2142         3.27918 
        1.71806         11.1949         3.25094 
        1.72421         11.1017         3.22299 
        1.73035         11.0811         3.19539 
        1.73649         11.0289         3.16813 
        1.74262         10.9696          3.1412 
        1.74876         10.9256         3.11457 
        1.75489         10.8785          3.0883 
        1.76101         10.7944         3.06234 
        1.76715         10.7881         3.03665 
        1.77329         10.7122         3.01122 
        1.77943         10.6533         2.98607 
        1.78557           10.63         2.96124 
        1.79171         10.5868         2.93669 
        1.79785         10.5137         2.91242 
        1.80399         10.4682         2.88842 
        1.81012         10.4291         2.86473 
        1.81625         10.3677         2.84131 
        1.82239         10.3336         2.81812 
        1.82853          10.261          2.7952 
        1.83466         10.2323         2.77256 
        1.84078         10.1624          2.7502 
        1.84692         10.1604         2.72804 
        1.85306         10.0953          2.7061 
         1.8592         10.0458         2.68444 
        1.86533         10.0115         2.66302 
        1.87147         9.96752         2.64181 
        1.87761         9.93017         2.62083 
        1.88375         9.87327          2.6001 
        1.88988         9.85443         2.57961 
        1.89601         9.80027         2.55934 
        1.90215         9.74862         2.53926 
        1.90829         9.70952         2.51941 
        1.91442         9.66916         2.49977 
        1.92056         9.63888         2.48036 
         1.9267          9.5884         2.46113 
        1.93284         9.54376          2.4421 
        1.93897         9.49285          2.4233 
        1.94509         9.46546         2.40474 
        1.95123         9.42324         2.38633 
        1.95737         9.37927         2.36809 
        1.96349         9.34269          2.3501 
        1.96964         9.30067         2.33224 
        1.97578          9.2619         2.31455 
        1.98192         9.21943         2.29709 
        1.98805         9.19307          2.2798 
        1.99419         9.15079         2.26269 
        2.00033         9.13075         2.24575 
        2.00647         9.08473         2.22899 
         2.0126         9.03556         2.21242 
        2.01874         9.00327           2.196 
        2.02488         8.95994         2.17973 
        2.03101         8.92799         2.16365 
        2.03714         8.88742         2.14775 
        2.04328         8.85851           2.132 
        2.04941         8.81892         2.11641 
        2.05554          8.7866         2.10099 
        2.06167         8.74089         2.08571 
        2.06781         8.72741         2.07057 
        2.07396         8.69324         2.05556 
        2.08009         8.64394         2.04073 
        2.08622         8.60205         2.02606 
        2.09237         8.59537          2.0115 
        2.09851         8.57034         1.99709 
        2.10464         8.51998         1.98284 
        2.11077         8.46849         1.96875 
        2.11691         8.43833         1.95476 
        2.12305         8.41893         1.94091 
        2.12918         8.39545         1.92722 
        2.13531         8.34951         1.91367 
        2.14145         8.32598         1.90021 
         2.1476          8.2796         1.88687 
        2.15372          8.2562         1.87373 
        2.15985         8.24646         1.86069 
        2.16599         8.19539         1.84774 
        2.17213         8.17884         1.83493 
        2.17827          8.1463         1.82225 
         2.1844         8.10809         1.80969 
        2.19054         8.05994         1.79725 
        2.19666         8.04532         1.78494 
         2.2028          8.0118         1.77274 
        2.20893         7.99588         1.76064 
        2.21508         7.94956         1.74865 
        2.22122         7.91472         1.73676 
        2.22736         7.89507         1.72501 
        2.23349         7.86687         1.71336 
        2.23962         7.84614         1.70182 
        2.24577         7.80356         1.69038 
         2.2519         7.78556         1.67905 
        2.25802         7.74874         1.66785 
        2.26417         7.71944         1.65672 
        2.27031         7.69383         1.64568 
        2.27644         7.66528         1.63477 
        2.28257         7.64323         1.62396 
        2.28872          7.6084         1.61323 
        2.29486         7.58481          1.6026 
        2.30099         7.56959         1.59209 
        2.30712         7.54246         1.58166 
        2.31326         7.48988         1.57131 
         2.3194         7.46937         1.56106 
        2.32553         7.45966         1.55092 
        2.33166          7.4283         1.54087 
         2.3378         7.40084          1.5309 
        2.34394          7.3726         1.52101 
        2.35007         7.33279         1.51122 
        2.35619         7.31362         1.50154 
        2.36233         7.28853         1.49191 
        2.36848         7.26862         1.48235 
        2.37462         7.24168         1.47289 
        2.38075         7.21888         1.46352 
        2.38689         7.19106         1.45423 
        2.39303         7.15985         1.44502 
        2.39916         7.14171         1.43589 
        2.40529          7.1169         1.42685 
        2.41143         7.08775         1.41788 
        2.41757         7.08355         1.40898 
         2.4237         7.05095         1.40017 
        2.42983         7.02427         1.39144 
        2.43598         7.00808         1.38277 
        2.44211         6.97834         1.37417 
        2.44823         6.96176         1.36568 
        2.45437         6.93205         1.35723 
        2.46052         6.89547         1.34884 
        2.46665         6.87943         1.34054 
        2.47279         6.85388         1.33231 
        2.47892         6.82392         1.32415 
        2.48507         6.80997         1.31605 
         2.4912         6.78074         1.30803 
