# k  (h/Mpc)    P(k)  (Mpc/h)^3    P_linear(k)  (Mpc/h)^3
     0.00783031         843.624         853.355 
       0.013688         1005.86         1008.54 
       0.019231         978.875         979.013 
      0.0249154         864.876         868.484 
      0.0312784         725.973         725.452 
      0.0375637         609.888         607.755 
      0.0433917         530.801         530.799 
      0.0492413         480.311         479.631 
      0.0555754         439.343         440.978 
      0.0619321          407.82          406.37 
       0.067871          369.58         370.477 
      0.0738098         329.548         330.316 
      0.0800417         286.549         287.586 
      0.0862327         250.065          249.97 
      0.0921407         222.475         221.928 
      0.0982031         201.653           201.7 
       0.104506         189.029         187.896 
       0.110769         178.763         178.075 
       0.116806         168.905         169.088 
       0.122832         159.025         158.593 
       0.129052          145.64         145.795 
       0.135211         132.212         132.229 
       0.141259          120.33         119.661 
       0.147318         110.207         109.117 
       0.153489         101.746         101.012 
       0.159709         95.9787         95.2409 
       0.165845         92.2827           91.05 
       0.171974         87.8341          87.345 
       0.178125         83.9472         83.3138 
       0.184229         79.5014         78.6723 
        0.19034         73.8153         73.5357 
       0.196428         69.1751         68.3768 
       0.202534         64.9656          63.649 
       0.208729         60.6792         59.6368 
       0.214876          57.275         56.5003 
       0.220989         55.2117         54.0482 
       0.227147         52.6464         51.9559 
        0.23329         50.6302         49.9497 
       0.239377         48.6598         47.8471 
       0.245482          46.101         45.5727 
       0.251667          44.119         43.1834 
       0.257832         41.7682         40.8652 
       0.263955         39.7293         38.7633 
       0.270079         37.9254         36.9397 
        0.27624         36.5948         35.3823 
       0.282372         35.2367         34.0445 
        0.28843         33.8461         32.8389 
       0.294538         32.6138         31.6559 
       0.300721         31.6032          30.442 
        0.30691         30.1641         29.2013 
       0.313033         28.9756         27.9799 
       0.319153         27.5412         26.8068 
       0.325316         26.8384         25.7125 
        0.33145         25.7719         24.7275 
       0.337538         24.9189         23.8482 
       0.343633         24.0109         23.0444 
       0.349808         23.3144         22.2784 
       0.355968          22.579          21.539 
       0.362074         21.8087         20.8145 
       0.368217         21.0979         20.0951 
       0.374374         20.3194         19.3907 
       0.380519         19.7293         18.7163 
       0.386598         19.1346         18.0884 
       0.392688         18.6167          17.501 
        0.39888         18.0018         16.9446 
       0.405048         17.5096         16.4247 
       0.411186         17.0326         15.9313 
       0.417313         16.4727         15.4554 
       0.423458         16.0318         14.9915 
       0.429607         15.5371         14.5388 
       0.435692         15.0728         14.1046 
       0.441815         14.6859         13.6849 
       0.447964         14.3674          13.283 
       0.454126         13.8567         12.8998 
       0.460267         13.5323         12.5373 
       0.466387         13.1126          12.193 
        0.47254          12.839         11.8606 
       0.478662         12.5613         11.5409 
       0.484765         12.1772         11.2323 
       0.490885          11.878         10.9327 
       0.497035         11.6872         10.6412 
       0.503198           11.35         10.3594 
       0.509342          11.072         10.0892 
       0.515458         10.7867         9.83109 
       0.521598         10.5574          9.5824 
       0.527764         10.2812         9.34205 
       0.533884         10.0992         9.11177 
           0.54         9.85251         8.88922 
       0.546137         9.64948         8.67306 
       0.552299         9.44991         8.46297 
       0.558452            9.17         8.25993 
       0.564573         9.01986         8.06438 
       0.570708         8.82468         7.87479 
       0.576825         8.59809         7.69207 
       0.582926         8.43919         7.51603 
       0.589034         8.20012         7.34564 
       0.595184         8.06204         7.17964 
       0.601379         7.87919          7.0177 
       0.607522         7.75643         6.86196 
       0.613639         7.63691         6.71144 
       0.619772         7.42461         6.56498 
       0.625918         7.33308         6.42261 
       0.632068         7.21051         6.28443 
       0.638161         7.02897         6.15168 
         0.6443         6.88379         6.02194 
       0.650464         6.73366         5.89558 
       0.656582          6.6593         5.77381 
       0.662703         6.52853         5.65547 
       0.668861         6.41402         5.53978 
       0.675024         6.27624         5.42723 
       0.681124         6.15629         5.31894 
       0.687237         6.06255         5.21339 
       0.693381         5.96164         5.11024 
       0.699536         5.80203         5.00972 
       0.705665         5.72274         4.91237 
       0.711789         5.62829         4.81773 
       0.717957         5.52107         4.72498 
        0.72409         5.42567          4.6352 
       0.730186          5.3399         4.54833 
       0.736317         5.28233         4.46323 
       0.742472         5.19124            4.38 
       0.748622         5.09301         4.29898 
        0.75476         4.98666         4.22019 
       0.760888         4.91465         4.14351 
       0.767043         4.85479         4.06844 
       0.773185          4.7514         3.99539 
       0.779291         4.69932         3.92457 
       0.785407         4.61809         3.85537 
       0.791564         4.54932         3.78742 
       0.797719         4.47526         3.72115 
       0.803834         4.42582         3.65691 
       0.809972          4.3628         3.59396 
       0.816124         4.27562         3.53237 
       0.822261         4.19913          3.4724 
       0.828378         4.14771         3.41402 
       0.834502         4.10736         3.35694 
       0.840667         4.01863         3.30081 
       0.846816         3.95514         3.24613 
       0.852925         3.91982         3.19304 
       0.859047         3.86118         3.14104 
       0.865192         3.81196         3.09003 
       0.871341         3.76495         3.04013 
       0.877463         3.71045         2.99157 
       0.883569         3.64288          2.9442 
       0.889708         3.58674         2.89762 
       0.895864         3.54261         2.85194 
       0.902008         3.49232         2.80734 
       0.908149         3.45394         2.76372 
       0.914301         3.39005         2.72097 
       0.920448         3.34707         2.67917 
       0.926574         3.29839          2.6384 
       0.932687         3.26101         2.59856 
       0.938823         3.22336         2.55941 
       0.944975         3.17862         2.52098 
       0.951105         3.14224         2.48349 
       0.957225         3.12103         2.44682 
       0.963368         3.07277         2.41077 
       0.969511         3.02701         2.37545 
       0.975621         2.98258         2.34102 
       0.981748         2.95424          2.3072 
       0.987916         2.91513         2.27383 
        0.99406         2.86639         2.24126 
        1.00019         2.83687         2.20938 
        1.00632         2.80516         2.17817 
        1.01246         2.77186         2.14751 
        1.01859         2.73843         2.11749 
        1.02471         2.70329         2.08809 
        1.03085         2.67226         2.05914 
        1.03698         2.63605         2.03081 
        1.04314          2.6112          2.0029 
        1.04929         2.57753         1.97558 
        1.05541         2.54767         1.94888 
        1.06154         2.51928         1.92261 
        1.06769         2.49777         1.89679 
        1.07382         2.46013         1.87153 
        1.07993         2.42642         1.84679 
        1.08607         2.41331          1.8224 
        1.09222         2.37995         1.79843 
        1.09836         2.36027         1.77491 
        1.10449         2.33271         1.75185 
        1.11063         2.30036         1.72918 
        1.11677         2.27742         1.70691 
         1.1229         2.25279         1.68508 
        1.12903         2.22487         1.66361 
        1.13518         2.20587          1.6425 
        1.14131          2.1743         1.62177 
        1.14745         2.14131         1.60142 
        1.15359         2.13004          1.5814 
        1.15973         2.09835         1.56173 
        1.16584         2.08805         1.54247 
        1.17197         2.06345         1.52352 
        1.17811         2.04538         1.50483 
        1.18424         2.02665          1.4865 
        1.19038         2.00294         1.46843 
        1.19652         1.98126         1.45067 
        1.20267          1.9647          1.4332 
        1.20881         1.93982         1.41602 
        1.21495         1.92468         1.39915 
        1.22108         1.90508         1.38256 
         1.2272         1.89131         1.36628 
        1.23334         1.86598         1.35023 
        1.23949         1.84585         1.33439 
        1.24562         1.83344         1.31886 
        1.25174         1.81141         1.30359 
        1.25789         1.79626         1.28852 
        1.26402         1.77374         1.27372 
        1.27014         1.75711         1.25919 
        1.27628         1.74897         1.24484 
        1.28244         1.72368         1.23069 
        1.28858         1.71114         1.21678 
        1.29471         1.69255         1.20312 
        1.30084         1.67485         1.18967 
        1.30697         1.66526         1.17642 
        1.31312         1.63893         1.16335 
        1.31925         1.63104         1.15052 
        1.32537         1.61552         1.13789 
        1.33151         1.60327         1.12541 
        1.33765          1.5839         1.11313 
        1.34378         1.56931         1.10105 
        1.34992         1.56146         1.08915 
        1.35606         1.53892          1.0774 
         1.3622         1.53142         1.06584 
        1.36833         1.51615         1.05448 
        1.37445         1.49948         1.04329 
        1.38059         1.48976         1.03222 
        1.38675         1.48321          1.0213 
        1.39288         1.46356         1.01057 
        1.39901         1.44916               1 
        1.40515         1.43816        0.989566 
         1.4113         1.42613        0.979281 
        1.41742         1.41431        0.969182 
        1.42355         1.40745        0.959206 
         1.4297         1.38906        0.949342 
        1.43585         1.38035         0.93962 
        1.44198         1.37228        0.930072 
        1.44809         1.35447        0.920674 
        1.45423         1.34422        0.911373 
        1.46036         1.33291        0.902216 
        1.46649         1.32205        0.893183 
        1.47263         1.31001        0.884267 
        1.47877         1.29751        0.875476 
        1.48491         1.28772        0.866791 
        1.49104         1.27853        0.858243 
        1.49718         1.27042        0.849804 
        1.50333          1.2571        0.841465 
        1.50947         1.24995        0.833255 
         1.5156         1.23826        0.825168 
        1.52172         1.22814        0.817188 
        1.52787          1.2172        0.809297 
          1.534         1.20947        0.801521 
        1.54013          1.1978        0.793855 
        1.54627          1.1874        0.786276 
        1.55241         1.17781        0.778795 
        1.55855         1.17048        0.771422 
        1.56467         1.16287        0.764165 
         1.5708          1.1497         0.75698 
        1.57695         1.14469        0.749878 
        1.58308         1.13547        0.742883 
        1.58922         1.12663        0.735972 
        1.59535         1.11797        0.729152 
         1.6015         1.10937         0.72241 
        1.60764         1.10298        0.715755 
        1.61376         1.09363        0.709203 
        1.61989         1.08504        0.702728 
        1.62604         1.07561        0.696319 
        1.63218         1.07167        0.689995 
        1.63831         1.06025        0.683763 
        1.64444          1.0522        0.677607 
        1.65059         1.04674        0.671511 
        1.65673         1.03708        0.665498 
        1.66285         1.02951        0.659575 
        1.66898         1.02502        0.653722 
        1.67512         1.01354        0.647929 
        1.68127         1.00692        0.642201 
         1.6874         1.00303        0.636555 
        1.69353         0.99188        0.630981 
        1.69967         0.98468         0.62546 
        1.70581         0.98139        0.620008 
        1.71193        0.972272        0.614641 
        1.71806        0.967789        0.609327 
        1.72421        0.959555        0.604065 
        1.73035        0.951531        0.598871 
        1.73649        0.946956        0.593739 
        1.74262        0.939945        0.588672 
        1.74876        0.933205        0.583661 
        1.75489        0.924258        0.578718 
        1.76101        0.919332        0.573834 
        1.76715        0.913705           0.569 
        1.77329        0.908147        0.564216 
        1.77943        0.899897        0.559485 
        1.78557        0.893733        0.554815 
        1.79171        0.890553        0.550198 
        1.79785        0.882701        0.545632 
        1.80399        0.877413        0.541119 
        1.81012        0.872633        0.536664 
        1.81625          0.8655         0.53226 
        1.82239        0.860236        0.527899 
        1.82853        0.851218         0.52359 
        1.83466        0.847988        0.519332 
        1.84078        0.841639        0.515127 
        1.84692        0.838496        0.510961 
        1.85306        0.832113        0.506836 
         1.8592        0.827227        0.502763 
        1.86533        0.820771        0.498738 
        1.87147        0.816502        0.494751 
        1.87761        0.810724        0.490807 
        1.88375        0.803728         0.48691 
        1.88988        0.801138         0.48306 
        1.89601        0.794678         0.47925 
        1.90215        0.789341        0.475477 
        1.90829        0.783577        0.471747 
        1.91442        0.779504        0.468057 
        1.92056        0.775127         0.46441 
         1.9267        0.769454        0.460797 
        1.93284        0.767015        0.457222 
        1.93897        0.760626         0.45369 
        1.94509        0.755922        0.450204 
        1.95123         0.75042        0.446746 
        1.95737        0.746616        0.443321 
        1.96349        0.740826        0.439941 
        1.96964        0.737432        0.436587 
        1.97578        0.732584        0.433266 
        1.98192        0.729462        0.429986 
        1.98805        0.722973         0.42674 
        1.99419        0.720627        0.423528 
        2.00033        0.717615        0.420347 
        2.00647         0.71047        0.417199 
         2.0126        0.707381        0.414089 
        2.01874        0.703091        0.411006 
        2.02488        0.699828        0.407952 
        2.03101        0.693329        0.404935 
        2.03714        0.688437         0.40195 
        2.04328        0.687456        0.398993 
        2.04941        0.682334        0.396068 
        2.05554        0.677955        0.393174 
        2.06167        0.673581        0.390305 
        2.06781        0.669644        0.387465 
        2.07396        0.664975        0.384649 
        2.08009        0.662226        0.381865 
        2.08622          0.6577        0.379113 
        2.09237        0.656001        0.376382 
        2.09851        0.652117        0.373677 
        2.10464        0.648782        0.371004 
        2.11077        0.644242         0.36836 
        2.11691        0.639788        0.365736 
        2.12305        0.636805        0.363137 
        2.12918        0.633191         0.36057 
        2.13531        0.629434        0.358027 
        2.14145        0.625951        0.355503 
         2.1476        0.621688           0.353 
        2.15372        0.619624        0.350534 
        2.15985        0.614734         0.34809 
        2.16599        0.611216        0.345661 
        2.17213        0.608236        0.343259 
        2.17827        0.606293        0.340879 
         2.1844        0.602884        0.338525 
        2.19054        0.599965        0.336192 
        2.19666        0.595792        0.333884 
         2.2028        0.592487        0.331596 
        2.20893        0.589509        0.329328 
        2.21508        0.587151        0.327079 
        2.22122        0.581359         0.32485 
        2.22736        0.578985        0.322646 
        2.23349          0.5785        0.320464 
        2.23962        0.573897          0.3183 
        2.24577        0.570031        0.316155 
         2.2519        0.567112        0.314032 
        2.25802        0.564473        0.311932 
        2.26417        0.560606        0.309846 
        2.27031        0.558192        0.307776 
        2.27644        0.555592        0.305732 
        2.28257        0.553122        0.303706 
        2.28872         0.54975        0.301695 
        2.29486        0.546808        0.299703 
        2.30099        0.543436        0.297732 
        2.30712         0.54101        0.295779 
        2.31326        0.538739        0.293839 
         2.3194         0.53705        0.291918 
        2.32553        0.533978        0.290018 
        2.33166        0.530618        0.288135 
         2.3378        0.527761        0.286266 
        2.34394        0.524176        0.284414 
        2.35007        0.522012         0.28258 
        2.35619         0.52009        0.280765 
        2.36233        0.516034        0.278962 
        2.36848        0.514394         0.27717 
        2.37462        0.511161        0.275398 
        2.38075        0.510064        0.273644 
        2.38689        0.506811        0.271903 
        2.39303        0.504875        0.270177 
        2.39916        0.500779        0.268469 
        2.40529        0.499667        0.266775 
        2.41143        0.497151        0.265095 
        2.41757        0.494749        0.263428 
         2.4237         0.49262        0.261779 
        2.42983        0.490259        0.260144 
        2.43598        0.487719        0.258518 
        2.44211        0.485797        0.256909 
        2.44823        0.483063        0.255318 
        2.45437        0.480536        0.253736 
        2.46052        0.479378        0.252165 
        2.46665        0.476167        0.250611 
        2.47279        0.473787         0.24907 
        2.47892        0.470854        0.247542 
        2.48507        0.469237        0.246024 
         2.4912        0.467117        0.244523 
