# k  (h/Mpc)    Pcb(k)  (Mpc/h)^3    Pcb_linear(k)  (Mpc/h)^3
     0.00783031         1715.83         1731.85 
       0.013688          2223.6         2223.26 
       0.019231          2342.8         2342.44 
      0.0249154         2241.41         2258.11 
      0.0312784         2037.48         2042.81 
      0.0375637         1802.83         1800.29 
      0.0433917         1591.93          1598.7 
      0.0492413         1437.26         1437.51 
      0.0555754         1298.75         1308.73 
      0.0619321         1219.44         1213.96 
       0.067871         1133.73         1140.82 
      0.0738098         1061.94         1069.63 
      0.0800417         977.683         989.157 
      0.0862327         896.276         902.479 
      0.0921407          815.25         817.917 
      0.0982031         731.361         735.968 
       0.104506         665.967         662.259 
       0.110769         607.517         604.005 
       0.116806         561.495         561.833 
       0.122832         533.351         530.643 
       0.129052         503.872         505.484 
       0.135211         481.145         482.992 
       0.141259         460.723         459.789 
       0.147318         436.751         433.782 
       0.153489          405.61         404.694 
       0.159709         377.294         374.478 
       0.165845         353.353         346.082 
       0.171974         325.749         321.076 
       0.178125         306.354          300.41 
       0.184229         291.526         284.317 
        0.19034         274.933         271.793 
       0.196428         267.687         261.564 
       0.202534         260.338         252.141 
       0.208729          248.73         242.264 
       0.214876         236.208         231.526 
       0.220989          227.85         219.917 
       0.227147         213.243         207.774 
        0.23329         202.248         195.937 
       0.239377         193.352         185.162 
       0.245482         181.726         175.745 
       0.251667         176.644         167.753 
       0.257832         170.039         161.157 
       0.263955         164.197         155.567 
       0.270079         158.992         150.466 
        0.27624         155.555         145.415 
       0.282372         149.857         140.193 
        0.28843         143.779         134.777 
       0.294538         138.107         129.145 
       0.300721         134.268         123.481 
        0.30691         127.777         118.081 
       0.313033         123.447         113.189 
       0.319153         117.563         108.837 
       0.325316         115.478         104.984 
        0.33145         111.468          101.58 
       0.337538         108.964         98.4844 
       0.343633         105.508          95.522 
       0.349808         102.651         92.5517 
       0.355968         99.8354         89.5519 
       0.362074         96.6812         86.5514 
       0.368217         93.8978         83.5449 
       0.374374         90.9048         80.6167 
       0.380519         88.4631         77.8455 
       0.386598         86.0242         75.2945 
       0.392688         84.1843          72.948 
        0.39888         81.8167          70.754 
       0.405048         79.9947         68.7258 
       0.411186         78.2457          66.815 
       0.417313         75.7737         64.9665 
       0.423458         74.0346          63.145 
       0.429607         72.0726         61.3419 
       0.435692         69.8337         59.5775 
       0.441815         68.7923         57.8422 
       0.447964         67.6289         56.1596 
       0.454126         64.9362         54.5492 
       0.460267         63.8231         53.0322 
       0.466387         62.0999         51.6097 
        0.47254         61.2187         50.2568 
       0.478662         60.1643         48.9757 
       0.484765         58.5107         47.7494 
       0.490885         57.2352         46.5564 
       0.497035         56.5187         45.3834 
       0.503198          55.079         44.2338 
       0.509342          53.677         43.1152 
       0.515458         52.6845         42.0322 
       0.521598         51.8464         40.9801 
       0.527764         50.8163         39.9645 
       0.533884         49.9364              39 
           0.54         48.9658         38.0771 
       0.546137         48.2212         37.1875 
       0.552299         47.4974         36.3271 
       0.558452         46.0606         35.4969 
       0.564573         45.4268         34.6953 
       0.570708         44.7765         33.9124 
       0.576825         43.7065         33.1508 
       0.582926         42.9487          32.411 
       0.589034         41.8597         31.6918 
       0.595184         41.3553         30.9903 
       0.601379         40.6882          30.307 
       0.607522         39.9157         29.6516 
       0.613639         39.6021         29.0205 
       0.619772         38.5859         28.4085 
       0.625918          38.425         27.8146 
       0.632068         37.7878          27.238 
       0.638161         37.0605         26.6824 
         0.6443         36.3592         26.1368 
       0.650464         35.7656         25.6031 
       0.656582         35.5428         25.0871 
       0.662703         34.8698          24.585 
       0.668861         34.2881         24.0942 
       0.675024         33.7228         23.6171 
       0.681124         33.1567         23.1585 
       0.687237         32.6338         22.7118 
       0.693381         32.3756          22.275 
       0.699536         31.5797         21.8493 
       0.705665         31.5137         21.4365 
       0.711789         30.8552         21.0348 
       0.717957         30.4744         20.6406 
        0.72409          30.027         20.2588 
       0.730186         29.6257         19.8888 
       0.736317         29.3497         19.5261 
       0.742472         28.8465          19.171 
       0.748622         28.5699         18.8251 
        0.75476         28.0828         18.4885 
       0.760888         27.7316         18.1608 
       0.767043         27.4298         17.8398 
       0.773185         26.9398         17.5274 
       0.779291         26.8142         17.2244 
       0.785407         26.4727         16.9283 
       0.791564         26.0138         16.6374 
       0.797719         25.5291         16.3535 
       0.803834         25.4788         16.0781 
       0.809972         25.2521         15.8081 
       0.816124         24.6722         15.5437 
       0.822261         24.5137          15.286 
       0.828378         24.2375          15.035 
       0.834502          24.001         14.7895 
       0.840667         23.7061         14.5478 
       0.846816          23.319         14.3123 
       0.852925         23.1134         14.0835 
       0.859047         22.8599         13.8593 
       0.865192         22.6684         13.6393 
       0.871341         22.4997         13.4239 
       0.877463         22.0977         13.2142 
       0.883569         21.8408         13.0095 
       0.889708         21.5536         12.8082 
       0.895864         21.4219         12.6106 
       0.902008         21.2487         12.4177 
       0.908149         21.0277         12.2289 
       0.914301         20.8786         12.0437 
       0.920448         20.4779         11.8626 
       0.926574         20.3356         11.6859 
       0.932687         20.1421         11.5132 
       0.938823         19.8814         11.3433 
       0.944975         19.6702         11.1766 
       0.951105         19.5271         11.0137 
       0.957225         19.3433         10.8545 
       0.963368         19.1658         10.6978 
       0.969511         19.0086         10.5443 
       0.975621         18.8399         10.3946 
       0.981748         18.6111         10.2475 
       0.987916         18.4947         10.1023 
        0.99406         18.2508         9.96046 
        1.00019         18.0025         9.82166 
        1.00632          17.991         9.68564 
        1.01246         17.7939         9.55202 
        1.01859         17.5446         9.42114 
        1.02471         17.4747         9.29289 
        1.03085         17.3129          9.1666 
        1.03698         17.0605         9.04293 
        1.04314         16.9756         8.92104 
        1.04929         16.7605         8.80169 
        1.05541         16.6034         8.68501 
        1.06154         16.4884         8.57017 
        1.06769         16.4119         8.45725 
        1.07382         16.1954         8.34674 
        1.07993          16.106         8.23846 
        1.08607         15.9462         8.13167 
        1.09222          15.826         8.02667 
        1.09836         15.6501         7.92366 
        1.10449         15.5506         7.82258 
        1.11063         15.4106         7.72316 
        1.11677         15.3377          7.6255 
         1.1229         15.2399         7.52972 
        1.12903         15.0613          7.4355 
        1.13518          14.892         7.34282 
        1.14131         14.8086         7.25178 
        1.14745         14.6948         7.16234 
        1.15359         14.5998          7.0744 
        1.15973         14.4862          6.9879 
        1.16584         14.2822         6.90325 
        1.17197         14.2225         6.81988 
        1.17811         14.1398         6.73764 
        1.18424         14.0252           6.657 
        1.19038         13.9634         6.57745 
        1.19652         13.8186         6.49924 
        1.20267         13.6813         6.42231 
        1.20881         13.6661         6.34664 
        1.21495         13.5509         6.27231 
        1.22108         13.3981         6.19919 
         1.2272         13.3153         6.12742 
        1.23334         13.1862         6.05662 
        1.23949          13.089         5.98678 
        1.24562         13.0477         5.91823 
        1.25174         12.9459         5.85087 
        1.25789         12.8651         5.78435 
        1.26402         12.7951         5.71899 
        1.27014         12.6913          5.6548 
        1.27628         12.5423         5.59141 
        1.28244          12.464         5.52887 
        1.28858         12.4482         5.46738 
        1.29471         12.3148         5.40696 
        1.30084         12.2044         5.34751 
        1.30697         12.1938         5.28887 
        1.31312         12.0208         5.23103 
        1.31925         11.9568         5.17424 
        1.32537         11.9011         5.11835 
        1.33151         11.8323         5.06309 
        1.33765          11.733         5.00868 
        1.34378         11.6478         4.95517 
        1.34992          11.565         4.90242 
        1.35606           11.51         4.85032 
         1.3622         11.4449         4.79907 
        1.36833         11.3589         4.74868 
        1.37445         11.2995         4.69905 
        1.38059          11.255         4.64997 
        1.38675         11.1485         4.60148 
        1.39288         11.0936         4.55387 
        1.39901         10.9818         4.50696 
        1.40515         10.9442         4.46061 
         1.4113         10.8872         4.41493 
        1.41742         10.8144         4.37007 
        1.42355          10.728         4.32575 
         1.4297         10.6596         4.28191 
        1.43585          10.628         4.23869 
        1.44198         10.5805         4.19624 
        1.44809         10.4896         4.15446 
        1.45423         10.4188         4.11309 
        1.46036          10.364         4.07235 
        1.46649         10.3007         4.03216 
        1.47263         10.2178         3.99248 
        1.47877         10.1695         3.95335 
        1.48491         10.1113         3.91469 
        1.49104         10.0576         3.87663 
        1.49718         10.0079         3.83904 
        1.50333         9.95021          3.8019 
        1.50947         9.88568         3.76532 
         1.5156         9.83113         3.72928 
        1.52172         9.77875         3.69371 
        1.52787          9.7154         3.65854 
          1.534         9.65677         3.62387 
        1.54013         9.61888         3.58968 
        1.54627         9.53723         3.55588 
        1.55241         9.50355          3.5225 
        1.55855         9.46293          3.4896 
        1.56467         9.38978         3.45721 
         1.5708         9.36616         3.42514 
        1.57695         9.27975         3.39343 
        1.58308         9.23408          3.3622 
        1.58922         9.20605         3.33134 
        1.59535         9.16218         3.30087 
         1.6015         9.09368         3.27075 
        1.60764         9.03587         3.24101 
        1.61376         9.01135         3.21173 
        1.61989         8.95878         3.18279 
        1.62604         8.90205         3.15414 
        1.63218         8.87828         3.12586 
        1.63831          8.8372         3.09799 
        1.64444          8.7907         3.07046 
        1.65059         8.70303         3.04319 
        1.65673         8.69036         3.01628 
        1.66285         8.60973         2.98978 
        1.66898          8.5856         2.96358 
        1.67512         8.54709         2.93765 
        1.68127         8.49942         2.91201 
         1.6874         8.47017         2.88673 
        1.69353         8.41171         2.86176 
        1.69967         8.36734         2.83704 
        1.70581         8.32513         2.81261 
        1.71193         8.29051         2.78857 
        1.71806         8.26998         2.76475 
        1.72421         8.20111         2.74117 
        1.73035         8.18369         2.71789 
        1.73649         8.14326         2.69489 
        1.74262         8.08465         2.67217 
        1.74876         8.06225         2.64969 
        1.75489         8.03493         2.62753 
        1.76101         7.96849         2.60562 
        1.76715         7.94573         2.58393 
        1.77329         7.90523         2.56247 
        1.77943         7.84943         2.54124 
        1.78557         7.84193         2.52028 
        1.79171         7.78898         2.49955 
        1.79785         7.75048         2.47905 
        1.80399           7.706         2.45879 
        1.81012         7.68578         2.43878 
        1.81625         7.63745           2.419 
        1.82239         7.61288         2.39941 
        1.82853         7.57486         2.38005 
        1.83466         7.54538         2.36092 
        1.84078         7.50069         2.34202 
        1.84692         7.49261          2.3233 
        1.85306         7.43315         2.30476 
         1.8592         7.39513         2.28645 
        1.86533         7.37312         2.26835 
        1.87147         7.34026         2.25043 
        1.87761         7.30435         2.23269 
        1.88375         7.27298         2.21516 
        1.88988         7.23826         2.19785 
        1.89601         7.21429          2.1807 
        1.90215         7.18673         2.16373 
        1.90829         7.14565         2.14694 
        1.91442         7.11909         2.13034 
        1.92056         7.08381         2.11392 
         1.9267         7.04951         2.09766 
        1.93284         7.02235         2.08156 
        1.93897         6.98992         2.06566 
        1.94509         6.95479         2.04996 
        1.95123         6.92285         2.03438 
        1.95737         6.88796         2.01896 
        1.96349         6.86898         2.00373 
        1.96964         6.84293         1.98862 
        1.97578         6.80338         1.97366 
        1.98192         6.78329         1.95888 
        1.98805         6.75833         1.94425 
        1.99419         6.73086         1.92977 
        2.00033         6.71201         1.91543 
        2.00647         6.67386         1.90124 
         2.0126         6.65377         1.88722 
        2.01874         6.61097         1.87332 
        2.02488         6.59618         1.85954 
        2.03101         6.55293         1.84593 
        2.03714         6.52917         1.83247 
        2.04328         6.50133         1.81913 
        2.04941         6.46968         1.80593 
        2.05554         6.44671         1.79287 
        2.06167         6.42687         1.77993 
        2.06781         6.40082         1.76711 
        2.07396         6.38586          1.7544 
        2.08009         6.35131         1.74183 
        2.08622         6.31649          1.7294 
        2.09237         6.31297         1.71707 
        2.09851         6.27915         1.70486 
        2.10464         6.24834         1.69278 
        2.11077         6.21591         1.68084 
        2.11691         6.19916         1.66899 
        2.12305         6.18088         1.65725 
        2.12918         6.16369         1.64565 
        2.13531         6.13016         1.63416 
        2.14145         6.10969         1.62275 
         2.1476         6.07551         1.61144 
        2.15372         6.05828          1.6003 
        2.15985         6.04716         1.58925 
        2.16599         6.00831         1.57827 
        2.17213         5.99319         1.56741 
        2.17827         5.97434         1.55665 
         2.1844         5.94276           1.546 
        2.19054         5.92589         1.53545 
        2.19666         5.89759         1.52501 
         2.2028         5.87502         1.51466 
        2.20893         5.86168          1.5044 
        2.21508         5.82774         1.49422 
        2.22122         5.80745         1.48414 
        2.22736         5.78844         1.47417 
        2.23349         5.78318         1.46429 
        2.23962         5.74884          1.4545 
        2.24577         5.72167         1.44479 
         2.2519         5.71656         1.43518 
        2.25802         5.68062         1.42567 
        2.26417         5.66143         1.41623 
        2.27031          5.6401         1.40686 
        2.27644         5.62047          1.3976 
        2.28257         5.60114         1.38843 
        2.28872         5.58551         1.37932 
        2.29486          5.5597         1.37029 
        2.30099         5.54104         1.36137 
        2.30712         5.52155         1.35252 
        2.31326         5.49113         1.34373 
         2.3194         5.48345         1.33503 
        2.32553         5.45786         1.32641 
        2.33166         5.44628         1.31788 
         2.3378         5.42448         1.30941 
        2.34394         5.40494         1.30102 
        2.35007         5.37859          1.2927 
        2.35619          5.3709         1.28448 
        2.36233         5.35344          1.2763 
        2.36848         5.32427         1.26818 
        2.37462          5.3137         1.26014 
        2.38075         5.29741         1.25219 
        2.38689         5.27225         1.24429 
        2.39303         5.25659         1.23646 
        2.39916         5.23908         1.22871 
        2.40529         5.21895         1.22103 
        2.41143         5.20614         1.21341 
        2.41757         5.19065         1.20585 
         2.4237         5.17401         1.19836 
        2.42983         5.13357         1.19094 
        2.43598         5.13756         1.18357 
        2.44211         5.11097         1.17627 
        2.44823         5.09752         1.16904 
        2.45437          5.0718         1.16186 
        2.46052         5.06148         1.15473 
        2.46665         5.04708         1.14768 
        2.47279         5.02905         1.14068 
        2.47892         5.01156         1.13374 
        2.48507         4.99912         1.12685 
         2.4912         4.97189         1.12003 
