# k  (h/Mpc)    Pcb(k)  (Mpc/h)^3    Pcb_linear(k)  (Mpc/h)^3
     0.00783031         8635.68         8741.89 
       0.013688         11287.5         11220.1 
       0.019231         11825.6         11819.9 
      0.0249154         11196.6         11393.4 
      0.0312784           10202         10306.4 
      0.0375637         9057.16         9082.49 
      0.0433917         7924.07         8065.26 
      0.0492413         7187.28         7251.92 
      0.0555754         6417.89         6602.15 
      0.0619321         6112.52         6124.02 
       0.067871         5603.09         5754.98 
      0.0738098         5245.57         5395.81 
      0.0800417         4794.84         4989.85 
      0.0862327         4418.55         4552.57 
      0.0921407         4053.16         4125.98 
      0.0982031         3631.32         3712.58 
       0.104506         3360.61         3340.74 
       0.110769         3071.72         3046.88 
       0.116806         2846.48         2834.14 
       0.122832         2704.75          2676.8 
       0.129052         2528.08         2549.88 
       0.135211         2419.43         2436.42 
       0.141259         2331.19         2319.37 
       0.147318         2215.06         2188.17 
       0.153489         2047.97         2041.44 
       0.159709         1932.45         1889.02 
       0.165845         1839.45         1745.78 
       0.171974         1714.35         1619.63 
       0.178125         1620.11         1515.38 
       0.184229         1548.48         1434.21 
        0.19034         1452.54         1371.03 
       0.196428         1430.77         1319.43 
       0.202534         1388.32         1271.89 
       0.208729         1329.09         1222.07 
       0.214876         1268.55         1167.91 
       0.220989         1231.86         1109.34 
       0.227147         1167.72         1048.09 
        0.23329         1118.56          988.38 
       0.239377         1093.42         934.027 
       0.245482         1020.59         886.524 
       0.251667         1011.12         846.206 
       0.257832         974.189         812.936 
       0.263955         943.688         784.735 
       0.270079         913.038         759.005 
        0.27624         904.607         733.525 
       0.282372         866.764         707.184 
        0.28843         851.568         679.864 
       0.294538         810.723         651.452 
       0.300721         806.604         622.883 
        0.30691          770.29         595.641 
       0.313033         755.311         570.968 
       0.319153         735.004         549.012 
       0.325316         712.533         529.576 
        0.33145         694.303         512.403 
       0.337538         686.169          496.79 
       0.343633         665.829         481.847 
       0.349808         644.784         466.864 
       0.355968         640.352         451.731 
       0.362074         629.095         436.596 
       0.368217         611.865          421.43 
       0.374374         588.023         406.659 
       0.380519         584.043          392.68 
       0.386598         570.445         379.812 
       0.392688         567.834         367.976 
        0.39888         551.224         356.908 
       0.405048         541.628         346.677 
       0.411186         531.994         337.038 
       0.417313         522.344         327.714 
       0.423458         513.976         318.526 
       0.429607         503.842          309.43 
       0.435692         492.673          300.53 
       0.441815         489.516         291.776 
       0.447964         479.727         283.289 
       0.454126         466.613         275.165 
       0.460267         460.399         267.513 
       0.466387         455.328         260.337 
        0.47254         446.502         253.513 
       0.478662         445.246         247.051 
       0.484765         432.328         240.865 
       0.490885         428.061         234.847 
       0.497035         420.568          228.93 
       0.503198         413.631         223.131 
       0.509342         410.532         217.488 
       0.515458         406.296         212.025 
       0.521598         398.651         206.718 
       0.527764         391.189         201.595 
       0.533884         388.831          196.73 
           0.54         383.588         192.074 
       0.546137         382.326         187.586 
       0.552299         374.713         183.246 
       0.558452         371.924         179.059 
       0.564573         366.012         175.015 
       0.570708         360.277         171.066 
       0.576825          354.31         167.224 
       0.582926         351.968         163.492 
       0.589034         348.372         159.865 
       0.595184         345.258         156.326 
       0.601379         341.716         152.879 
       0.607522         335.843         149.573 
       0.613639         334.616         146.389 
       0.619772         326.538         143.302 
       0.625918         325.426         140.306 
       0.632068         320.969         137.398 
       0.638161         319.733         134.595 
         0.6443         314.124         131.843 
       0.650464         311.704         129.151 
       0.656582         310.417         126.548 
       0.662703         307.541         124.015 
       0.668861         302.325         121.539 
       0.675024         299.464         119.133 
       0.681124         298.303          116.82 
       0.687237         294.585         114.566 
       0.693381         290.443         112.363 
       0.699536          288.13         110.215 
       0.705665         286.639         108.133 
       0.711789         283.125         106.107 
       0.717957         281.412         104.118 
        0.72409         278.441         102.192 
       0.730186         275.494         100.326 
       0.736317         272.912         98.4962 
       0.742472         271.763         96.7051 
       0.748622         269.539         94.9602 
        0.75476           267.3         93.2624 
       0.760888         263.713         91.6091 
       0.767043          263.41         89.9901 
       0.773185         260.093         88.4143 
       0.779291         255.831          86.886 
       0.785407          255.25         85.3922 
       0.791564         252.819         83.9247 
       0.797719         250.274         82.4927 
       0.803834         248.938         81.1034 
       0.809972         246.908         79.7413 
       0.816124         247.239         78.4075 
       0.822261         243.101         77.1079 
       0.828378         241.553         75.8417 
       0.834502         241.142          74.603 
       0.840667         237.257         73.3841 
       0.846816          236.25         72.1961 
       0.852925         234.664          71.042 
       0.859047         232.792          69.911 
       0.865192         231.065         68.8011 
       0.871341         228.764         67.7147 
       0.877463         227.403         66.6569 
       0.883569         225.838         65.6245 
       0.889708         224.102         64.6089 
       0.895864         221.382         63.6123 
       0.902008         220.849         62.6389 
       0.908149          219.79         61.6866 
       0.914301         217.275         60.7527 
       0.920448         215.626         59.8391 
       0.926574         214.614         58.9477 
       0.932687         213.978         58.0763 
       0.938823          211.48         57.2196 
       0.944975         209.865         56.3783 
       0.951105         209.005         55.5571 
       0.957225          206.75         54.7537 
       0.963368         204.722         53.9635 
       0.969511         203.877          53.189 
       0.975621         202.495          52.434 
       0.981748         202.333         51.6918 
       0.987916         199.788         50.9593 
        0.99406         198.439         50.2439 
        1.00019         198.153         49.5438 
        1.00632          196.27         48.8577 
        1.01246         195.018         48.1836 
        1.01859         193.873         47.5234 
        1.02471         192.576         46.8765 
        1.03085         190.467         46.2394 
        1.03698           189.5         45.6156 
        1.04314         188.334         45.0007 
        1.04929         186.788         44.3987 
        1.05541         186.302         43.8101 
        1.06154         184.875         43.2308 
        1.06769         184.711         42.6612 
        1.07382         183.226         42.1038 
        1.07993          181.67         41.5576 
        1.08607         180.607         41.0189 
        1.09222         179.657         40.4893 
        1.09836          178.06         39.9696 
        1.10449         176.679         39.4597 
        1.11063         175.502         38.9582 
        1.11677         175.133         38.4656 
         1.1229         173.309         37.9824 
        1.12903         172.573         37.5072 
        1.13518         172.176         37.0397 
        1.14131         170.445         36.5804 
        1.14745         169.903         36.1293 
        1.15359         168.547         35.6857 
        1.15973         168.232         35.2494 
        1.16584         166.423         34.8223 
        1.17197         165.736         34.4018 
        1.17811         164.794         33.9869 
        1.18424         163.839         33.5802 
        1.19038         163.309         33.1789 
        1.19652         162.112         32.7844 
        1.20267         161.215         32.3963 
        1.20881         159.978         32.0146 
        1.21495         159.186         31.6397 
        1.22108         158.508         31.2708 
         1.2272         157.168         30.9088 
        1.23334         156.358         30.5516 
        1.23949         154.806         30.1993 
        1.24562         154.489         29.8536 
        1.25174         152.683         29.5138 
        1.25789         152.283         29.1782 
        1.26402          151.64         28.8485 
        1.27014         150.592         28.5247 
        1.27628         149.886          28.205 
        1.28244         149.191         27.8895 
        1.28858         148.424         27.5793 
        1.29471         146.807         27.2745 
        1.30084         146.296         26.9747 
        1.30697         145.541         26.6789 
        1.31312          145.18         26.3871 
        1.31925         143.828         26.1006 
        1.32537         143.342         25.8187 
        1.33151         141.843         25.5399 
        1.33765         141.526         25.2654 
        1.34378         140.505         24.9956 
        1.34992         140.231         24.7294 
        1.35606         139.245         24.4666 
         1.3622         138.378         24.2081 
        1.36833         137.539         23.9539 
        1.37445          136.58         23.7036 
        1.38059         136.346          23.456 
        1.38675         135.146         23.2114 
        1.39288         134.728         22.9713 
        1.39901         134.198         22.7346 
        1.40515         133.346         22.5008 
         1.4113         131.882         22.2704 
        1.41742          131.79         22.0441 
        1.42355         130.773         21.8205 
         1.4297         130.018         21.5994 
        1.43585         129.016         21.3814 
        1.44198         128.927         21.1673 
        1.44809         127.805         20.9565 
        1.45423         126.859         20.7478 
        1.46036         126.637         20.5423 
        1.46649           125.9         20.3396 
        1.47263         125.355         20.1394 
        1.47877         124.659          19.942 
        1.48491          123.61          19.747 
        1.49104         123.084          19.555 
        1.49718         122.116         19.3654 
        1.50333         121.655          19.178 
        1.50947         120.958         18.9935 
         1.5156         120.477         18.8117 
        1.52172         119.616         18.6323 
        1.52787         119.254         18.4549 
          1.534         118.553           18.28 
        1.54013         117.592         18.1076 
        1.54627         117.111          17.937 
        1.55241          116.46         17.7687 
        1.55855         115.988         17.6027 
        1.56467         115.359         17.4393 
         1.5708         114.561         17.2776 
        1.57695         114.269         17.1176 
        1.58308         113.168         16.9601 
        1.58922         113.123         16.8044 
        1.59535         112.356         16.6507 
         1.6015         111.822         16.4987 
        1.60764         111.065         16.3488 
        1.61376         110.717         16.2011 
        1.61989         110.033         16.0551 
        1.62604         109.393         15.9105 
        1.63218         109.001         15.7679 
        1.63831         108.169         15.6273 
        1.64444         107.708         15.4884 
        1.65059         107.018         15.3509 
        1.65673         106.238         15.2151 
        1.66285         106.137         15.0814 
        1.66898         105.271         14.9493 
        1.67512         104.812         14.8185 
        1.68127         104.145         14.6891 
         1.6874         103.581         14.5616 
        1.69353         103.038         14.4357 
        1.69967          102.52          14.311 
        1.70581          102.11         14.1877 
        1.71193         101.708         14.0665 
        1.71806         100.808         13.9463 
        1.72421         100.513         13.8274 
        1.73035         99.8116         13.7099 
        1.73649         99.2878         13.5939 
        1.74262         98.8416         13.4793 
        1.74876         98.3676         13.3659 
        1.75489         97.5948         13.2541 
        1.76101         97.3331         13.1436 
        1.76715         96.6447         13.0342 
        1.77329         96.3126         12.9259 
        1.77943         95.7398         12.8188 
        1.78557         95.3666         12.7131 
        1.79171         94.7105         12.6086 
        1.79785         94.2905         12.5052 
        1.80399         93.8692          12.403 
        1.81012         93.4087          12.302 
        1.81625         92.7914         12.2023 
        1.82239         92.4413         12.1034 
        1.82853         92.1348         12.0058 
        1.83466         91.3869         11.9093 
        1.84078         91.2044         11.8139 
        1.84692         90.4154         11.7195 
        1.85306         89.9158          11.626 
         1.8592          89.407         11.5336 
        1.86533          89.076         11.4423 
        1.87147         88.3376         11.3519 
        1.87761         88.1239         11.2624 
        1.88375         87.7629          11.174 
        1.88988         87.2325         11.0867 
        1.89601         86.7244         11.0002 
        1.90215         86.3887         10.9146 
        1.90829         85.9687         10.8299 
        1.91442          85.468         10.7461 
        1.92056         84.8912         10.6633 
         1.9267         84.6212         10.5813 
        1.93284         83.9014         10.5001 
        1.93897         83.5822         10.4199 
        1.94509         83.1602         10.3407 
        1.95123         82.7181         10.2621 
        1.95737         82.6044         10.1843 
        1.96349         81.8884         10.1075 
        1.96964         81.3813         10.0313 
        1.97578         81.2648         9.95578 
        1.98192         80.6734         9.88123 
        1.98805         80.3089         9.80744 
        1.99419         79.7274          9.7344 
        2.00033         79.5016         9.66206 
        2.00647          79.121         9.59048 
         2.0126         78.5472         9.51975 
        2.01874         78.1186         9.44963 
        2.02488         77.8833         9.38015 
        2.03101          77.561         9.31149 
        2.03714          76.915         9.24359 
        2.04328         76.6695         9.17629 
        2.04941         76.1274         9.10971 
        2.05554         75.8633         9.04385 
        2.06167         75.5275         8.97854 
        2.06781         75.0549         8.91387 
        2.07396         74.6838         8.84975 
        2.08009         74.3664         8.78636 
        2.08622         74.0119         8.72367 
        2.09237         73.6142         8.66147 
        2.09851          73.348         8.59986 
        2.10464         72.8857         8.53896 
        2.11077         72.3777         8.47871 
        2.11691         72.1612         8.41892 
        2.12305         71.7458          8.3597 
        2.12918         71.4063         8.30119 
        2.13531         71.0137         8.24324 
        2.14145         70.5983          8.1857 
         2.1476         70.3921         8.12865 
        2.15372         70.0013         8.07243 
        2.15985         69.6063         8.01668 
        2.16599         69.2528          7.9613 
        2.17213         68.9195         7.90651 
        2.17827         68.5834         7.85224 
         2.1844         68.1161         7.79853 
        2.19054         67.8251          7.7453 
        2.19666         67.5495         7.69265 
         2.2028         67.3545         7.64044 
        2.20893         66.9199         7.58869 
        2.21508         66.5077         7.53736 
        2.22122         66.3498         7.48648 
        2.22736         65.8813         7.43619 
        2.23349         65.6013         7.38636 
        2.23962         65.1759         7.33697 
        2.24577         64.7893         7.28798 
         2.2519         64.5785         7.23951 
        2.25802         64.2652         7.19156 
        2.26417         63.8737         7.14391 
        2.27031         63.6384         7.09665 
        2.27644         63.2703         7.04995 
        2.28257          62.934         7.00367 
        2.28872         62.6982         6.95773 
        2.29486         62.4091          6.9122 
        2.30099         62.0495         6.86717 
        2.30712          61.792         6.82253 
        2.31326          61.357         6.77821 
         2.3194         61.2146          6.7343 
        2.32553         60.7452         6.69086 
        2.33166         60.4524         6.64783 
         2.3378         60.1733         6.60511 
        2.34394         59.7384         6.56275 
        2.35007         59.5018         6.52082 
        2.35619          59.296         6.47932 
        2.36233         59.0999         6.43807 
        2.36848         58.6849          6.3971 
        2.37462         58.4102         6.35657 
        2.38075         58.1607         6.31643 
        2.38689         57.8905         6.27661 
        2.39303         57.6506         6.23713 
        2.39916         57.4648         6.19803 
        2.40529         57.0615         6.15928 
        2.41143         56.7809         6.12082 
        2.41757         56.4883         6.08268 
         2.4237         56.2169         6.04493 
        2.42983         55.8697         6.00751 
        2.43598         55.6062          5.9703 
        2.44211         55.3653         5.93347 
        2.44823         55.1102         5.89703 
        2.45437         54.7809          5.8608 
        2.46052         54.4678         5.82484 
        2.46665          54.255         5.78925 
        2.47279         54.0314         5.75396 
        2.47892         53.8429         5.71895 
        2.48507         53.4908          5.6842 
         2.4912          53.324          5.6498 
