# k  (h/Mpc)    Pcb(k)  (Mpc/h)^3    Pcb_linear(k)  (Mpc/h)^3
     0.00783031         14358.5         14564.3 
       0.013688         16824.4           16684 
       0.019231         15730.6         15673.3 
      0.0249154           13170         13385.3 
      0.0312784         10649.8         10699.3 
      0.0375637         8698.28         8638.87 
      0.0433917         7328.81         7386.55 
      0.0492413         6625.38         6626.66 
      0.0555754         5978.68         6107.84 
      0.0619321         5693.36         5649.37 
       0.067871         5056.23          5137.9 
      0.0738098         4476.38         4531.07 
      0.0800417         3811.22         3869.12 
      0.0862327         3299.57         3289.18 
      0.0921407         2940.69         2870.31 
      0.0982031         2629.86         2587.23 
       0.104506         2515.65         2415.91 
       0.110769         2380.16         2310.08 
       0.116806         2260.12         2211.76 
       0.122832         2136.27         2080.61 
       0.129052         1931.65         1903.45 
       0.135211         1760.78         1705.97 
       0.141259         1625.45         1520.99 
       0.147318         1494.33         1368.76 
       0.153489         1365.16         1257.95 
       0.159709         1301.09         1186.75 
       0.165845         1262.17         1141.62 
       0.171974         1205.68         1103.53 
       0.178125         1151.92         1057.77 
       0.184229         1093.95         998.525 
        0.19034         1010.11             928 
       0.196428         970.135         854.908 
       0.202534         921.518          788.02 
       0.208729         866.352         733.053 
       0.214876         823.687         692.819 
       0.220989         796.132         664.134 
       0.227147         764.629         641.401 
        0.23329         735.288         619.396 
       0.239377         718.317         594.511 
       0.245482         667.186         565.451 
       0.251667         657.265         533.382 
       0.257832          627.69         501.647 
       0.263955         602.889         473.138 
       0.270079         577.493         449.241 
        0.27624         568.933         429.916 
       0.282372         547.436         414.278 
        0.28843         534.406         400.596 
       0.294538         507.273         386.978 
       0.300721         503.376         372.329 
        0.30691         479.837         356.648 
       0.313033         468.806         340.706 
       0.319153         453.609         325.251 
       0.325316         440.035         310.968 
        0.33145         426.041         298.477 
       0.337538         418.726         287.707 
       0.343633         405.415         278.188 
       0.349808          390.71         269.219 
       0.355968         386.737         260.475 
       0.362074         379.711         251.691 
       0.368217         368.568         242.719 
       0.374374         352.344         233.792 
       0.380519         349.913         225.189 
       0.386598         340.397         217.242 
       0.392688         336.902         209.947 
        0.39888          327.49         203.165 
       0.405048         319.749         196.942 
       0.411186         314.009         191.076 
       0.417313         307.545         185.377 
       0.423458         300.862         179.751 
       0.429607         295.704         174.195 
       0.435692         287.485         168.804 
       0.441815         284.567         163.579 
       0.447964          278.54         158.606 
       0.454126         270.389         153.912 
       0.460267         265.937          149.51 
       0.466387         262.611         145.368 
        0.47254         256.842         141.388 
       0.478662         256.123         137.551 
       0.484765         246.806         133.816 
       0.490885             244         130.169 
       0.497035         239.764         126.612 
       0.503198         235.152         123.169 
       0.509342         233.131          119.87 
       0.515458         229.752         116.731 
       0.521598         224.337         113.726 
       0.527764         221.436         110.838 
       0.533884         218.833         108.077 
           0.54         215.433         105.403 
       0.546137          214.05         102.797 
       0.552299         209.431         100.259 
       0.558452         208.024         97.8057 
       0.564573         204.865         95.4442 
       0.570708         200.293         93.1565 
       0.576825         197.391         90.9535 
       0.582926         194.758          88.833 
       0.589034         192.805         86.7842 
       0.595184         190.844         84.7924 
       0.601379         187.958          82.852 
       0.607522         184.965         80.9873 
       0.613639          183.45         79.1846 
       0.619772         179.711         77.4282 
       0.625918         178.389         75.7191 
       0.632068         175.707         74.0598 
       0.638161         174.598         72.4659 
         0.6443         171.883         70.9101 
       0.650464         170.209         69.3972 
       0.656582         167.936         67.9414 
       0.662703         167.204         66.5282 
       0.668861         164.202         65.1476 
       0.675024         161.974         63.8048 
       0.681124         161.016         62.5124 
       0.687237         158.731         61.2525 
       0.693381         156.215          60.021 
       0.699536         155.176          58.821 
       0.705665         153.914         57.6591 
       0.711789         151.797           56.53 
       0.717957         151.492          55.424 
        0.72409         149.244         54.3543 
       0.730186         147.314         53.3197 
       0.736317         145.725         52.3068 
       0.742472         144.777         51.3167 
       0.748622         143.401         50.3534 
        0.75476         142.053         49.4169 
       0.760888         140.414         48.5056 
       0.767043         139.919         47.6138 
       0.773185         138.571         46.7463 
       0.779291         135.859         45.9054 
       0.785407         135.373          45.084 
       0.791564         134.314         44.2777 
       0.797719         131.892         43.4916 
       0.803834         131.343         42.7296 
       0.809972         130.457         41.9833 
       0.816124         129.747         41.2534 
       0.822261         128.479         40.5429 
       0.828378         127.231         39.8513 
       0.834502         126.814         39.1754 
       0.840667         124.878         38.5109 
       0.846816         123.566         37.8638 
       0.852925         123.054         37.2358 
       0.859047         121.727         36.6207 
       0.865192         120.551         36.0176 
       0.871341         119.569         35.4278 
       0.877463         118.353         34.8539 
       0.883569         118.166         34.2942 
       0.889708           116.9         33.7441 
       0.895864         115.667         33.2046 
       0.902008         114.918         32.6781 
       0.908149         114.502         32.1634 
       0.914301         113.102          31.659 
       0.920448         112.277         31.1659 
       0.926574         111.466         30.6851 
       0.932687         111.463         30.2155 
       0.938823         109.713          29.754 
       0.944975         108.766         29.3011 
       0.951105         108.148         28.8594 
       0.957225         107.221         28.4275 
       0.963368         105.896          28.003 
       0.969511         105.808         27.5872 
       0.975621          105.04         27.1821 
       0.981748          104.62         26.7841 
       0.987916         103.482         26.3916 
        0.99406         102.652         26.0084 
        1.00019         102.448         25.6337 
        1.00632         101.316         25.2667 
        1.01246         100.841         24.9063 
        1.01859         99.9744         24.5536 
        1.02471         99.0288         24.2082 
        1.03085         98.1611         23.8682 
        1.03698          97.931         23.5356 
        1.04314         96.8797         23.2079 
        1.04929         96.4816         22.8872 
        1.05541         95.7244         22.5739 
        1.06154         95.2906         22.2657 
        1.06769         94.9789         21.9628 
        1.07382         94.0839         21.6666 
        1.07993         93.4767         21.3765 
        1.08607         92.7419         21.0906 
        1.09222         92.5809         20.8096 
        1.09836         91.6959         20.5341 
        1.10449         91.0283         20.2639 
        1.11063         90.3686         19.9983 
        1.11677         89.9402         19.7376 
         1.1229         89.2044         19.4819 
        1.12903         88.7035         19.2306 
        1.13518         88.5278         18.9835 
        1.14131         87.7693         18.7409 
        1.14745         87.2255         18.5027 
        1.15359         86.7054         18.2686 
        1.15973         86.3351         18.0384 
        1.16584          85.445         17.8133 
        1.17197         85.0306         17.5917 
        1.17811         84.6659         17.3732 
        1.18424         84.1433          17.159 
        1.19038         83.8267         16.9478 
        1.19652         83.1809         16.7403 
        1.20267         82.4823         16.5362 
        1.20881         82.1304         16.3356 
        1.21495         81.5053         16.1387 
        1.22108         81.2814          15.945 
         1.2272         80.4024         15.7549 
        1.23334         80.1184         15.5676 
        1.23949         79.6693         15.3828 
        1.24562         79.1344         15.2016 
        1.25174         78.7386         15.0235 
        1.25789         78.4307         14.8478 
        1.26402         77.6151         14.6752 
        1.27014         77.3719         14.5057 
        1.27628         77.0117         14.3385 
        1.28244         76.5401         14.1735 
        1.28858         76.3888         14.0114 
        1.29471         75.7462         13.8522 
        1.30084         75.4059         13.6956 
        1.30697         74.8698         13.5412 
        1.31312          74.461          13.389 
        1.31925         73.9891         13.2395 
        1.32537         73.6975         13.0926 
        1.33151         73.0412         12.9473 
        1.33765         72.7912         12.8043 
        1.34378         72.4315         12.6638 
        1.34992         72.0923         12.5252 
        1.35606         71.6664         12.3885 
         1.3622         71.0875          12.254 
        1.36833         70.9381         12.1219 
        1.37445         70.4564         11.9918 
        1.38059         69.9389         11.8632 
        1.38675          69.597         11.7362 
        1.39288         69.3799         11.6115 
        1.39901         68.9717         11.4887 
        1.40515         68.5033         11.3674 
         1.4113         68.2103         11.2479 
        1.41742         68.0108         11.1306 
        1.42355         67.5282         11.0147 
         1.4297         67.3504         10.9001 
        1.43585         66.8031         10.7872 
        1.44198         66.3746         10.6763 
        1.44809         66.1265         10.5672 
        1.45423         65.9107         10.4593 
        1.46036         65.5615          10.353 
        1.46649         65.0936         10.2482 
        1.47263         64.7565         10.1447 
        1.47877         64.5767         10.0427 
        1.48491          64.111         9.94197 
        1.49104         63.9005         9.84283 
        1.49718         63.5091         9.74495 
        1.50333         63.2531         9.64826 
        1.50947         62.9065         9.55308 
         1.5156         62.5917         9.45932 
        1.52172         62.2428         9.36682 
        1.52787         62.0727         9.27538 
          1.534         61.5734         9.18526 
        1.54013         61.2254         9.09644 
        1.54627         61.1198         9.00863 
        1.55241         60.5884         8.92197 
        1.55855         60.4166         8.83657 
        1.56467         60.1221         8.75253 
         1.5708         59.8763         8.66934 
        1.57695         59.7452         8.58711 
        1.58308          59.217         8.50613 
        1.58922         58.9589         8.42614 
        1.59535         58.8317         8.34721 
         1.6015         58.3073         8.26919 
        1.60764         58.1669         8.19219 
        1.61376         57.8603         8.11639 
        1.61989         57.5559         8.04148 
        1.62604         57.3122         7.96735 
        1.63218         57.1413          7.8942 
        1.63831         56.5604         7.82213 
        1.64444         56.4151         7.75094 
        1.65059         56.2743         7.68047 
        1.65673         55.8956         7.61094 
        1.66285         55.5878         7.54247 
        1.66898         55.4279         7.47483 
        1.67512         54.9482         7.40788 
        1.68127         54.8638         7.34168 
         1.6874         54.5583         7.27645 
        1.69353         54.2857         7.21204 
        1.69967         54.0395         7.14827 
        1.70581          53.888         7.08529 
        1.71193         53.6807         7.02331 
        1.71806          53.201         6.96193 
        1.72421         53.0971         6.90117 
        1.73035         52.8404         6.84121 
        1.73649         52.5372         6.78197 
        1.74262         52.3216         6.72347 
        1.74876         52.0557         6.66563 
        1.75489         51.8548         6.60859 
        1.76101         51.6632         6.55223 
        1.76715         51.2781         6.49645 
        1.77329          51.076         6.44125 
        1.77943         50.8022         6.38667 
        1.78557         50.6139          6.3328 
        1.79171         50.3862         6.27954 
        1.79785         50.0261         6.22689 
        1.80399         50.0112         6.17485 
        1.81012         49.6819         6.12348 
        1.81625         49.3803         6.07271 
        1.82239         49.2193         6.02244 
        1.82853         48.9532         5.97276 
        1.83466         48.7292          5.9237 
        1.84078         48.4511         5.87523 
        1.84692         48.2281         5.82723 
        1.85306         48.0079         5.77971 
         1.8592         47.7872         5.73279 
        1.86533         47.5874         5.68641 
        1.87147         47.2967          5.6405 
        1.87761         47.1878         5.59507 
        1.88375         46.9499         5.55019 
        1.88988         46.7229         5.50586 
        1.89601         46.5377         5.46198 
        1.90215         46.2502         5.41855 
        1.90829          46.131          5.3756 
        1.91442         45.9407         5.33312 
        1.92056         45.6281         5.29114 
         1.9267         45.4595         5.24957 
        1.93284         45.1651         5.20841 
        1.93897         45.0784         5.16778 
        1.94509         44.8771         5.12767 
        1.95123         44.6374         5.08788 
        1.95737         44.4264         5.04848 
        1.96349         44.1837         5.00961 
        1.96964         44.0415         4.97102 
        1.97578         43.7832         4.93283 
        1.98192         43.6325         4.89512 
        1.98805         43.5004         4.85779 
        1.99419         43.2213         4.82085 
        2.00033         43.0382         4.78428 
        2.00647         42.9098          4.7481 
         2.0126         42.5227         4.71235 
        2.01874         42.4967         4.67691 
        2.02488         42.3088         4.64181 
        2.03101         42.1155         4.60713 
        2.03714         41.9079         4.57284 
        2.04328           41.71         4.53886 
        2.04941          41.486         4.50525 
        2.05554         41.3074           4.472 
        2.06167         41.1695         4.43905 
        2.06781         40.9096         4.40642 
        2.07396         40.8093         4.37407 
        2.08009         40.6515          4.3421 
        2.08622         40.3347         4.31049 
        2.09237         40.2243         4.27913 
        2.09851         40.1118         4.24808 
        2.10464         39.9114         4.21739 
        2.11077         39.7072         4.18704 
        2.11691         39.4698         4.15692 
        2.12305         39.3534         4.12709 
        2.12918         39.2198         4.09762 
        2.13531         38.9538         4.06845 
        2.14145         38.7468         4.03948 
         2.1476         38.6022         4.01077 
        2.15372         38.3871         3.98248 
        2.15985          38.325         3.95443 
        2.16599         38.1108         3.92657 
        2.17213         37.9994         3.89901 
        2.17827         37.7757         3.87172 
         2.1844         37.6047         3.84472 
        2.19054         37.4114         3.81796 
        2.19666         37.2252          3.7915 
         2.2028         37.1169         3.76526 
        2.20893         36.9953         3.73926 
        2.21508         36.8309         3.71347 
        2.22122         36.6751         3.68792 
        2.22736         36.5135         3.66266 
        2.23349         36.3305         3.63765 
        2.23962         36.1059         3.61285 
        2.24577         35.9478         3.58827 
         2.2519          35.776         3.56394 
        2.25802         35.7481         3.53988 
        2.26417         35.5098         3.51598 
        2.27031         35.3418         3.49227 
        2.27644         35.2195         3.46885 
        2.28257         35.0488         3.44565 
        2.28872         34.8582         3.42261 
        2.29486         34.7647         3.39979 
        2.30099          34.641         3.37723 
        2.30712         34.4966         3.35486 
        2.31326         34.2879         3.33265 
         2.3194         34.1162         3.31065 
        2.32553         33.9792          3.2889 
        2.33166         33.8606         3.26734 
         2.3378          33.694         3.24595 
        2.34394          33.625         3.22474 
        2.35007         33.4106         3.20376 
        2.35619         33.2285         3.18298 
        2.36233          33.128         3.16234 
        2.36848         33.0544         3.14184 
        2.37462         32.7781         3.12156 
        2.38075          32.764         3.10149 
        2.38689          32.586         3.08157 
        2.39303         32.4062         3.06183 
        2.39916         32.2354         3.04228 
        2.40529         32.1537         3.02291 
        2.41143         32.0196         3.00369 
        2.41757         31.8613         2.98463 
         2.4237         31.7834         2.96576 
        2.42983         31.6055         2.94707 
        2.43598         31.4958         2.92848 
        2.44211         31.3265         2.91009 
        2.44823          31.225         2.89189 
        2.45437         31.0209          2.8738 
        2.46052         30.9018         2.85585 
        2.46665         30.7966         2.83808 
        2.47279         30.6261         2.82047 
        2.47892         30.5624           2.803 
        2.48507         30.4121         2.78566 
         2.4912          30.284          2.7685 
