# k  (h/Mpc)    Pcb(k)  (Mpc/h)^3    Pcb_linear(k)  (Mpc/h)^3
     0.00783031          1526.5         1540.41 
       0.013688         2072.67          2072.5 
       0.019231         2256.65         2257.13 
      0.0249154          2223.7         2241.02 
      0.0312784         2084.77         2091.55 
      0.0375637         1900.44         1899.43 
      0.0433917         1722.14         1731.83 
      0.0492413         1591.02          1593.8 
      0.0555754         1465.76         1479.32 
      0.0619321         1392.35         1389.14 
       0.067871          1302.5         1313.05 
      0.0738098         1222.57         1234.15 
      0.0800417         1127.37         1143.49 
      0.0862327          1037.2          1047.6 
      0.0921407         950.749         956.956 
      0.0982031         863.697         872.035 
       0.104506         798.834         797.944 
       0.110769         740.776         740.422 
       0.116806         693.564         698.279 
       0.122832         664.285          665.09 
       0.129052         629.063         635.019 
       0.135211          598.74         605.029 
       0.141259         570.681         572.988 
       0.147318         538.873         538.179 
       0.153489         499.942         501.622 
       0.159709         467.105         466.256 
       0.165845         441.756         435.138 
       0.171974         412.176         409.116 
       0.178125         392.057         388.148 
       0.184229         377.053         371.469 
        0.19034         357.482         357.315 
       0.196428         348.294         344.096 
       0.202534         337.739         330.453 
       0.208729         321.259          315.61 
       0.214876         303.557         300.016 
       0.220989         293.024         284.317 
       0.227147         274.269         269.187 
        0.23329         261.788         255.516 
       0.239377          252.38         243.769 
       0.245482         239.175         233.784 
       0.251667         234.141          225.15 
       0.257832         226.331         217.476 
       0.263955         218.791         210.226 
       0.270079          211.86          202.92 
        0.27624         206.828         195.325 
       0.282372         198.642         187.571 
        0.28843          190.47         179.918 
       0.294538         183.151         172.495 
       0.300721         178.754         165.519 
        0.30691         170.913         159.226 
       0.313033           165.9         153.678 
       0.319153         158.684         148.705 
       0.325316         156.283         144.092 
        0.33145         151.173         139.715 
       0.337538         147.959         135.433 
       0.343633         143.274         131.144 
       0.349808         139.243         126.791 
       0.355968         135.424         122.506 
       0.362074         131.313         118.397 
       0.368217         127.821         114.483 
       0.374374         124.002         110.831 
       0.380519         120.979          107.46 
       0.386598         117.919          104.37 
       0.392688         115.718          101.46 
        0.39888         112.654         98.6303 
       0.405048          110.31         95.8929 
       0.411186         108.041         93.2127 
       0.417313         104.604         90.5794 
       0.423458          102.32         87.9931 
       0.429607         99.6398         85.4806 
       0.435692         96.6247         83.0971 
       0.441815         95.4371         80.8169 
       0.447964         94.0017         78.6477 
       0.454126         90.3992         76.5907 
       0.460267         88.9181         74.6407 
       0.466387         86.7235         72.7736 
        0.47254         85.6053         70.9553 
       0.478662          84.166         69.1948 
       0.484765         82.0522          67.481 
       0.490885         80.3013         65.8033 
       0.497035         79.2954         64.1656 
       0.503198         77.3747         62.5811 
       0.509342         75.5037         61.0613 
       0.515458          74.223          59.608 
       0.521598         73.1957         58.2083 
       0.527764          71.828         56.8585 
       0.533884         70.6027         55.5665 
           0.54         69.4122         54.3152 
       0.546137         68.4102         53.0945 
       0.552299         67.4588         51.9023 
       0.558452         65.4695         50.7448 
       0.564573         64.5827         49.6247 
       0.570708         63.7975         48.5344 
       0.576825         62.3085         47.4809 
       0.582926         61.3238         46.4649 
       0.589034         59.7845         45.4818 
       0.595184         59.1248         44.5242 
       0.601379         58.3399         43.5895 
       0.607522         57.1863         42.6896 
       0.613639         56.8731         41.8183 
       0.619772         55.4336         40.9687 
       0.625918         55.2507         40.1404 
       0.632068         54.3597         39.3339 
       0.638161         53.4048         38.5562 
         0.6443         52.4575         37.7939 
       0.650464         51.6519         37.0499 
       0.656582          51.354         36.3321 
       0.662703         50.4082         35.6344 
       0.668861         49.6656         34.9524 
       0.675024         48.9065         34.2885 
       0.681124         48.1131          33.649 
       0.687237         47.3897         33.0245 
       0.693381         47.0271         32.4126 
       0.699536         45.9732         31.8149 
       0.705665         45.9352         31.2346 
       0.711789         44.9916         30.6694 
       0.717957         44.5084         30.1146 
        0.72409         43.8659          29.577 
       0.730186         43.3184         29.0563 
       0.736317         42.9672         28.5457 
       0.742472         42.2368         28.0459 
       0.748622         41.8867         27.5587 
        0.75476         41.2177         27.0843 
       0.760888         40.7574         26.6219 
       0.767043         40.3309         26.1685 
       0.773185         39.6626         25.7265 
       0.779291         39.4746         25.2974 
       0.785407         39.0068         24.8776 
       0.791564         38.3389         24.4647 
       0.797719          37.725         24.0616 
       0.803834         37.6509         23.6704 
       0.809972         37.3061         23.2866 
       0.816124         36.4545         22.9106 
       0.822261         36.3518         22.5441 
       0.828378         35.9377         22.1869 
       0.834502         35.5451         21.8372 
       0.840667         35.1932          21.493 
       0.846816          34.668         21.1572 
       0.852925         34.3952         20.8307 
       0.859047         34.0036         20.5106 
       0.865192         33.7602         20.1962 
       0.871341         33.5367         19.8883 
       0.877463         32.9571         19.5883 
       0.883569         32.5967         19.2953 
       0.889708         32.2385         19.0069 
       0.895864          32.063         18.7237 
       0.902008         31.8086         18.4469 
       0.908149         31.4999          18.176 
       0.914301         31.3084         17.9102 
       0.920448         30.6921           17.65 
       0.926574         30.5412          17.396 
       0.932687         30.2578         17.1476 
       0.938823         29.8965         16.9032 
       0.944975         29.6059          16.663 
       0.951105          29.431         16.4285 
       0.957225         29.1146         16.1989 
       0.963368         28.8724          15.973 
       0.969511         28.6748         15.7514 
       0.975621         28.4598         15.5353 
       0.981748           28.12         15.3227 
       0.987916         27.9462         15.1129 
        0.99406         27.6277         14.9077 
        1.00019         27.2725         14.7069 
        1.00632         27.2744           14.51 
        1.01246          26.975         14.3164 
        1.01859         26.6353         14.1267 
        1.02471         26.5537         13.9407 
        1.03085         26.3193         13.7575 
        1.03698         25.9428          13.578 
        1.04314          25.814          13.401 
        1.04929         25.5208         13.2275 
        1.05541         25.3113         13.0579 
        1.06154         25.1325         12.8909 
        1.06769         25.0263         12.7266 
        1.07382         24.7286         12.5657 
        1.07993         24.6224          12.408 
        1.08607         24.3633         12.2524 
        1.09222         24.1892         12.0993 
        1.09836         23.9234          11.949 
        1.10449         23.8386         11.8015 
        1.11063         23.6229         11.6564 
        1.11677         23.5106         11.5138 
         1.1229         23.3777         11.3738 
        1.12903         23.1221         11.2361 
        1.13518         22.8816         11.1005 
        1.14131         22.7762         10.9673 
        1.14745         22.6212         10.8364 
        1.15359         22.4714         10.7076 
        1.15973         22.3041         10.5809 
        1.16584         22.0305         10.4569 
        1.17197         21.9735         10.3346 
        1.17811         21.8108          10.214 
        1.18424         21.6346         10.0956 
        1.19038         21.5459         9.97885 
        1.19652          21.347         9.86398 
        1.20267         21.1516         9.75093 
        1.20881         21.1426         9.63969 
        1.21495         20.9709         9.53039 
        1.22108         20.7569         9.42281 
         1.2272         20.6116         9.31717 
        1.23334         20.4334         9.21291 
        1.23949         20.3036         9.11002 
        1.24562         20.2696         9.00901 
        1.25174         20.1056         8.90969 
        1.25789          20.003         8.81158 
        1.26402         19.8881         8.71513 
        1.27014         19.7358         8.62038 
        1.27628         19.5231         8.52676 
        1.28244         19.4436         8.43437 
        1.28858         19.3896         8.34348 
        1.29471         19.1982         8.25415 
        1.30084         19.0444         8.16622 
        1.30697         19.0065         8.07946 
        1.31312         18.7744         7.99384 
        1.31925         18.6844         7.90974 
        1.32537          18.619         7.82695 
        1.33151         18.4857         7.74506 
        1.33765         18.3531          7.6644 
        1.34378         18.2483         7.58506 
        1.34992         18.0978          7.5068 
        1.35606         18.0441         7.42949 
         1.3622         17.9549         7.35341 
        1.36833         17.8303         7.27859 
        1.37445         17.7397         7.20486 
        1.38059         17.6694         7.13193 
        1.38675          17.502         7.05985 
        1.39288          17.407         6.98907 
        1.39901         17.2482         6.91929 
        1.40515         17.2147         6.85032 
         1.4113         17.1375         6.78233 
        1.41742         17.0245         6.71552 
        1.42355         16.9142          6.6495 
         1.4297         16.7854         6.58418 
        1.43585         16.7496         6.51977 
        1.44198         16.6587         6.45647 
        1.44809         16.5458         6.39414 
        1.45423          16.444         6.33241 
        1.46036         16.3816         6.27161 
        1.46649         16.2818         6.21159 
        1.47263         16.1561         6.15232 
        1.47877         16.0924         6.09385 
        1.48491         15.9933         6.03606 
        1.49104          15.932         5.97914 
        1.49718          15.844         5.92293 
        1.50333         15.7524         5.86735 
        1.50947         15.6667         5.81261 
         1.5156         15.5833         5.75865 
        1.52172         15.4875         5.70538 
        1.52787         15.3974         5.65269 
          1.534         15.3319         5.60073 
        1.54013          15.263         5.54948 
        1.54627           15.15         5.49879 
        1.55241         15.0988         5.44872 
        1.55855         15.0333         5.39936 
        1.56467         14.9263         5.35075 
         1.5708          14.898          5.3026 
        1.57695         14.7638         5.25498 
        1.58308         14.7135         5.20806 
        1.58922         14.6505         5.16168 
        1.59535         14.5895         5.11589 
         1.6015         14.4863          5.0706 
        1.60764         14.4209         5.02588 
        1.61376         14.3875         4.98183 
        1.61989         14.2796         4.93828 
        1.62604         14.2227         4.89515 
        1.63218         14.1664         4.85257 
        1.63831         14.1094          4.8106 
        1.64444          14.034         4.76911 
        1.65059         13.9252         4.72802 
        1.65673         13.8783         4.68746 
        1.66285         13.7696         4.64749 
        1.66898         13.7389         4.60798 
        1.67512         13.6858         4.56885 
        1.68127          13.608         4.53015 
         1.6874         13.5552         4.49199 
        1.69353         13.4923         4.45429 
        1.69967         13.4037         4.41693 
        1.70581         13.3235         4.38003 
        1.71193         13.2968         4.34369 
        1.71806         13.2686         4.30769 
        1.72421         13.1569         4.27202 
        1.73035         13.1243         4.23681 
        1.73649         13.0795           4.202 
        1.74262         12.9803         4.16762 
        1.74876         12.9446         4.13359 
        1.75489         12.9093         4.10003 
        1.76101         12.8123         4.06684 
        1.76715         12.7726         4.03399 
        1.77329         12.7198         4.00145 
        1.77943         12.6328         3.96927 
        1.78557         12.6168         3.93749 
        1.79171         12.5417         3.90605 
        1.79785         12.4885         3.87496 
        1.80399         12.4179         3.84421 
        1.81012         12.3753         3.81384 
        1.81625         12.2992         3.78381 
        1.82239         12.2686         3.75406 
        1.82853         12.1958         3.72465 
        1.83466         12.1595         3.69559 
        1.84078         12.0825         3.66687 
        1.84692         12.0769         3.63841 
        1.85306         11.9987         3.61022 
         1.8592         11.9375         3.58237 
        1.86533         11.9071         3.55484 
        1.87147         11.8477         3.52756 
        1.87761         11.7957         3.50056 
        1.88375          11.758         3.47388 
        1.88988         11.7037         3.44751 
        1.89601         11.6618          3.4214 
        1.90215          11.611         3.39554 
        1.90829          11.563         3.36996 
        1.91442          11.515         3.34464 
        1.92056         11.4638         3.31961 
         1.9267         11.4168         3.29482 
        1.93284         11.3608         3.27026 
        1.93897         11.3185           3.246 
        1.94509         11.2629         3.22204 
        1.95123          11.215         3.19826 
        1.95737         11.1665         3.17471 
        1.96349         11.1228         3.15145 
        1.96964         11.0851         3.12837 
        1.97578         11.0366          3.1055 
        1.98192         10.9906         3.08292 
        1.98805         10.9562         3.06055 
        1.99419         10.9169         3.03841 
        2.00033         10.8854         3.01648 
        2.00647         10.8306         2.99477 
         2.0126         10.7953         2.97332 
        2.01874         10.7324         2.95204 
        2.02488         10.6998         2.93095 
        2.03101         10.6495         2.91011 
        2.03714         10.6072          2.8895 
        2.04328         10.5602         2.86906 
        2.04941         10.5278         2.84884 
        2.05554         10.4766         2.82883 
        2.06167         10.4392         2.80898 
        2.06781         10.4113         2.78932 
        2.07396         10.3819         2.76983 
        2.08009          10.325         2.75055 
        2.08622         10.2683         2.73149 
        2.09237           10.28         2.71256 
        2.09851         10.2292         2.69382 
        2.10464         10.1773         2.67528 
        2.11077         10.1232         2.65694 
        2.11691         10.0979         2.63874 
        2.12305         10.0711          2.6207 
        2.12918         10.0381         2.60288 
        2.13531         9.97813         2.58522 
        2.14145         9.94864         2.56769 
         2.1476         9.90484          2.5503 
        2.15372          9.8733         2.53316 
        2.15985         9.85532         2.51616 
        2.16599         9.80123         2.49927 
        2.17213         9.77839         2.48256 
        2.17827          9.7447           2.466 
         2.1844         9.69939         2.44961 
        2.19054         9.66326         2.43336 
        2.19666         9.62483         2.41729 
         2.2028         9.58135         2.40134 
        2.20893         9.57272         2.38554 
        2.21508         9.51677         2.36985 
        2.22122         9.47965         2.35431 
        2.22736         9.45165         2.33894 
        2.23349         9.43858         2.32371 
        2.23962         9.38624         2.30861 
        2.24577         9.34185         2.29362 
         2.2519         9.33518          2.2788 
        2.25802         9.28632         2.26413 
        2.26417         9.24624         2.24955 
        2.27031         9.21967         2.23508 
        2.27644          9.1875         2.22079 
        2.28257         9.15743         2.20662 
        2.28872         9.12739         2.19255 
        2.29486         9.09466          2.1786 
        2.30099         9.06383         2.16481 
        2.30712         9.03758         2.15113 
        2.31326         8.98215         2.13754 
         2.3194         8.96702         2.12408 
        2.32553          8.9353         2.11077 
        2.33166         8.90676         2.09757 
         2.3378         8.88514         2.08446 
        2.34394         8.84762         2.07147 
        2.35007         8.79888          2.0586 
        2.35619         8.78528         2.04587 
        2.36233         8.75449         2.03321 
        2.36848         8.71893         2.02063 
        2.37462         8.68481         2.00818 
        2.38075         8.67275         1.99585 
        2.38689         8.62091         1.98362 
        2.39303         8.60219         1.97149 
        2.39916         8.58131         1.95947 
        2.40529         8.54181         1.94756 
        2.41143         8.52399         1.93574 
        2.41757         8.50149         1.92401 
         2.4237         8.47403          1.9124 
        2.42983         8.42801         1.90089 
        2.43598         8.42046         1.88944 
        2.44211         8.38489         1.87811 
        2.44823         8.35583          1.8669 
        2.45437         8.31838         1.85574 
        2.46052         8.29103         1.84467 
        2.46665         8.26724         1.83371 
        2.47279         8.24052         1.82284 
        2.47892         8.21508         1.81206 
        2.48507         8.19741         1.80135 
         2.4912         8.15335         1.79075 
