# k  (h/Mpc)    Pcb(k)  (Mpc/h)^3    Pcb_linear(k)  (Mpc/h)^3
     0.00783031         1268.09         1277.58 
       0.013688         1519.34         1535.77 
       0.019231         1518.14         1525.08 
      0.0249154         1385.02         1383.71 
      0.0312784         1171.35         1171.68 
      0.0375637         972.772         974.455 
      0.0433917         832.749         830.438 
      0.0492413         727.569         727.622 
      0.0555754          657.07         654.207 
      0.0619321         600.356         604.506 
       0.067871         565.367         565.775 
      0.0738098         525.009         524.987 
      0.0800417         477.039         475.879 
      0.0862327         422.444         422.432 
      0.0921407         372.343         371.997 
      0.0982031         328.141         326.087 
       0.104506         288.301         288.279 
       0.110769          262.09         261.541 
       0.116806         246.567         244.397 
       0.122832         233.459          232.81 
       0.129052         224.468         223.162 
       0.135211          214.86         212.949 
       0.141259          201.56         200.656 
       0.147318         186.025         185.998 
       0.153489         170.692         169.813 
       0.159709         155.788          153.98 
       0.165845         140.865         140.364 
       0.171974         132.134         129.602 
       0.178125         124.057         121.715 
       0.184229         117.765         116.208 
        0.19034          114.38         112.079 
       0.196428         110.394         108.352 
       0.202534         104.957         104.213 
       0.208729         100.969         99.2051 
       0.214876         95.7939          93.484 
       0.220989         88.7824         87.4453 
       0.227147         84.1078          81.542 
        0.23329         79.0863         76.2931 
       0.239377         75.0745         71.9842 
       0.245482         71.3967         68.5817 
       0.251667          68.222         65.8976 
       0.257832         66.7275         63.6927 
       0.263955         63.9274         61.6571 
       0.270079         61.7024         59.5244 
        0.27624         59.0376           57.16 
       0.282372         56.6139         54.5963 
        0.28843         54.7325         51.9661 
       0.294538         51.9894         49.3749 
       0.300721         49.2617         46.9581 
        0.30691         47.6807         44.8429 
       0.313033         45.6857         43.0642 
       0.319153         44.6343         41.5582 
       0.325316         42.6852         40.2243 
        0.33145         41.3056         38.9851 
       0.337538         40.1265         37.7577 
       0.343633         38.9984         36.4897 
       0.349808         37.5385         35.1563 
       0.355968         36.1637         33.8071 
       0.362074         35.1887          32.496 
       0.368217         33.8828         31.2476 
       0.374374          32.964         30.1024 
       0.380519         31.5843         29.0724 
       0.386598         30.5745         28.1583 
       0.392688         29.6368         27.3216 
        0.39888         29.0069         26.5204 
       0.405048         28.2742         25.7469 
       0.411186         27.4452         24.9806 
       0.417313         26.6319         24.2141 
       0.423458         25.7467         23.4503 
       0.429607         25.2218         22.7007 
       0.435692         24.6426         21.9878 
       0.441815         23.6975         21.3112 
       0.447964          22.933         20.6763 
       0.454126         22.4943         20.0835 
       0.460267         22.1434         19.5315 
       0.466387         21.4838         19.0092 
        0.47254         21.0819         18.5024 
       0.478662         20.4446         18.0107 
       0.484765         19.9584         17.5299 
       0.490885         19.3579         17.0555 
       0.497035         18.9042         16.5896 
       0.503198         18.5187         16.1383 
       0.509342         17.9582         15.7069 
       0.515458         17.6662         15.2968 
       0.521598         17.2476         14.9048 
       0.527764          16.951         14.5303 
       0.533884          16.454          14.175 
           0.54         16.1556         13.8325 
       0.546137         15.6678         13.4986 
       0.552299         15.3724         13.1721 
       0.558452         15.0193         12.8546 
       0.564573         14.7913         12.5472 
       0.570708         14.4423         12.2476 
       0.576825         14.1717         11.9584 
       0.582926         13.8645           11.68 
       0.589034         13.5893         11.4119 
       0.595184         13.3995         11.1523 
       0.601379         13.0337         10.9001 
       0.607522         12.7816         10.6582 
       0.613639          12.515         10.4243 
       0.619772         12.3114         10.1964 
       0.625918         12.0509         9.97447 
       0.632068          11.891         9.75855 
       0.638161         11.6438         9.55053 
         0.6443         11.4159         9.34679 
       0.650464         11.1418         9.14819 
       0.656582         11.0416         8.95692 
       0.662703         10.8664         8.77142 
       0.668861         10.5722         8.59063 
       0.675024         10.3932          8.4152 
       0.681124         10.3616         8.24666 
       0.687237         10.1174         8.08243 
       0.693381          9.8597         7.92176 
       0.699536         9.79234         7.76493 
       0.705665         9.60136         7.61279 
       0.711789         9.40341         7.46473 
       0.717957         9.20925         7.31957 
        0.72409         9.11179         7.17913 
       0.730186         9.03972         7.04335 
       0.736317         8.82428         6.91052 
       0.742472          8.7135         6.78073 
       0.748622         8.57526         6.65449 
        0.75476          8.3531         6.53177 
       0.760888         8.29182         6.41232 
       0.767043         8.11131         6.29536 
       0.773185         8.00966         6.18151 
       0.779291         7.95409         6.07108 
       0.785407         7.79296         5.96318 
       0.791564         7.69191         5.85721 
       0.797719          7.5428         5.75389 
       0.803834         7.47531         5.65373 
       0.809972         7.33064         5.55563 
       0.816124         7.23973         5.45968 
       0.822261         7.14161         5.36629 
       0.828378         7.03871         5.27538 
       0.834502         6.94704         5.18652 
       0.840667         6.86996         5.09915 
       0.846816         6.72339         5.01404 
       0.852925         6.66085         4.93142 
       0.859047         6.56511         4.85048 
       0.865192         6.47247         4.77108 
       0.871341         6.38205         4.69342 
       0.877463         6.29084         4.61783 
       0.883569           6.231          4.5441 
       0.889708         6.13426          4.4716 
       0.895864         6.05475         4.40051 
       0.902008         5.96608         4.33111 
       0.908149         5.88396         4.26326 
       0.914301         5.82535         4.19675 
       0.920448         5.75275         4.13173 
       0.926574         5.71182         4.06832 
       0.932687         5.61255         4.00638 
       0.938823         5.51953         3.94551 
       0.944975         5.48503         3.88577 
       0.951105         5.38472         3.82748 
       0.957225         5.35203          3.7705 
       0.963368         5.28088         3.71448 
       0.969511         5.21769         3.65961 
       0.975621         5.14957         3.60614 
       0.981748         5.06431         3.55361 
       0.987916         5.01926         3.50179 
        0.99406         4.97938         3.45121 
        1.00019         4.92359         3.40172 
        1.00632         4.87374         3.35326 
        1.01246         4.80275         3.30567 
        1.01859         4.74897         3.25909 
        1.02471         4.67553         3.21346 
        1.03085         4.64753         3.16855 
        1.03698         4.59535         3.12459 
        1.04314         4.54509         3.08129 
        1.04929         4.48234          3.0389 
        1.05541         4.43434         2.99749 
        1.06154         4.39632         2.95675 
        1.06769         4.37034          2.9167 
        1.07382         4.29282         2.87753 
        1.07993         4.24262         2.83917 
        1.08607         4.21724         2.80135 
        1.09222         4.15888         2.76419 
        1.09836         4.14573         2.72774 
        1.10449         4.05908         2.69199 
        1.11063         4.03733         2.65684 
        1.11677         4.00107         2.62233 
         1.1229         3.95544          2.5885 
        1.12903         3.92648         2.55523 
        1.13518         3.86774         2.52252 
        1.14131         3.83039          2.4904 
        1.14745         3.78494         2.45886 
        1.15359         3.75017         2.42786 
        1.15973         3.70974         2.39739 
        1.16584         3.68038         2.36757 
        1.17197         3.63909         2.33822 
        1.17811         3.60263         2.30927 
        1.18424         3.56768          2.2809 
        1.19038         3.53824         2.25293 
        1.19652         3.50903         2.22543 
        1.20267         3.47828          2.1984 
        1.20881         3.43962         2.17182 
        1.21495         3.40867         2.14572 
        1.22108         3.37724         2.12006 
         1.2272         3.33392         2.09487 
        1.23334         3.32513         2.07004 
        1.23949         3.28052         2.04555 
        1.24562         3.25686         2.02153 
        1.25174         3.23433         1.99793 
        1.25789          3.1855         1.97463 
        1.26402         3.16254         1.95175 
        1.27014          3.1351         1.92929 
        1.27628         3.10422         1.90711 
        1.28244         3.08346         1.88524 
        1.28858          3.0603         1.86374 
        1.29471         3.01878         1.84262 
        1.30084         2.99328         1.82185 
        1.30697         2.97875         1.80137 
        1.31312         2.94874         1.78118 
        1.31925         2.92181         1.76135 
        1.32537         2.90216         1.74185 
        1.33151         2.87089         1.72258 
        1.33765         2.84926         1.70361 
        1.34378          2.8333         1.68496 
        1.34992         2.80611         1.66658 
        1.35606         2.78401         1.64843 
         1.3622         2.76072         1.63058 
        1.36833         2.73091         1.61304 
        1.37445         2.70512         1.59577 
        1.38059         2.68435         1.57869 
        1.38675         2.66374         1.56183 
        1.39288         2.65102         1.54528 
        1.39901         2.61844         1.52897 
        1.40515         2.60314         1.51287 
         1.4113         2.58404           1.497 
        1.41742         2.55785         1.48142 
        1.42355         2.53785         1.46603 
         1.4297         2.52218         1.45081 
        1.43585         2.50377         1.43582 
        1.44198         2.48062          1.4211 
        1.44809         2.46623         1.40661 
        1.45423          2.4456         1.39226 
        1.46036         2.42811         1.37815 
        1.46649          2.4011         1.36422 
        1.47263         2.39429         1.35048 
        1.47877         2.37714         1.33693 
        1.48491         2.35178         1.32355 
        1.49104         2.33618         1.31037 
        1.49718         2.32161         1.29737 
        1.50333         2.29971         1.28452 
        1.50947         2.28293         1.27187 
         1.5156           2.268         1.25942 
        1.52172         2.25224         1.24712 
        1.52787         2.23597         1.23497 
          1.534         2.22224           1.223 
        1.54013         2.20401         1.21119 
        1.54627         2.18641         1.19952 
        1.55241         2.16735           1.188 
        1.55855         2.15687         1.17665 
        1.56467         2.14227         1.16548 
         1.5708         2.12624         1.15442 
        1.57695          2.1064         1.14349 
        1.58308         2.08984         1.13272 
        1.58922         2.08309         1.12209 
        1.59535         2.06315         1.11159 
         1.6015         2.04743         1.10122 
        1.60764         2.03908         1.09098 
        1.61376         2.01868          1.0809 
        1.61989         2.00522         1.07093 
        1.62604         1.98919         1.06108 
        1.63218          1.9832         1.05135 
        1.63831         1.97113         1.04176 
        1.64444         1.95399          1.0323 
        1.65059         1.94575         1.02292 
        1.65673         1.92512         1.01367 
        1.66285         1.91413         1.00457 
        1.66898         1.90269         0.99557 
        1.67512         1.88612        0.986664 
        1.68127          1.8747        0.977859 
         1.6874         1.86875        0.969181 
        1.69353         1.84988        0.960614 
        1.69967         1.83836        0.952129 
        1.70581         1.83253        0.943751 
        1.71193         1.80922        0.935505 
        1.71806         1.80401        0.927339 
        1.72421         1.79507        0.919255 
        1.73035         1.77887        0.911277 
        1.73649         1.77186        0.903394 
        1.74262         1.75929        0.895611 
        1.74876         1.74803        0.887915 
        1.75489           1.736        0.880324 
        1.76101         1.72255        0.872825 
        1.76715         1.71678        0.865402 
        1.77329         1.70335        0.858057 
        1.77943         1.69371        0.850793 
        1.78557         1.68434        0.843624 
        1.79171         1.67473        0.836537 
        1.79785         1.66474        0.829529 
        1.80399         1.65289        0.822603 
        1.81012         1.64312        0.815764 
        1.81625         1.62892        0.809007 
        1.82239         1.62364        0.802315 
        1.82853         1.61327        0.795703 
        1.83466         1.59933        0.789171 
        1.84078         1.59137        0.782718 
        1.84692         1.58257        0.776328 
        1.85306          1.5758        0.770001 
         1.8592         1.56301        0.763754 
        1.86533          1.5564         0.75758 
        1.87147         1.54689        0.751467 
        1.87761         1.53961        0.745418 
        1.88375         1.52817        0.739443 
        1.88988         1.51933         0.73354 
        1.89601         1.50865        0.727698 
        1.90215         1.50077        0.721914 
        1.90829         1.49538        0.716197 
        1.91442         1.48325         0.71054 
        1.92056         1.47852         0.70495 
         1.9267         1.47014        0.699414 
        1.93284         1.45909        0.693933 
        1.93897         1.44961        0.688522 
        1.94509          1.4434        0.683181 
        1.95123         1.43459        0.677882 
        1.95737         1.42921        0.672635 
        1.96349         1.41898        0.667457 
        1.96964          1.4142        0.662319 
        1.97578         1.40281        0.657232 
        1.98192         1.39223        0.652209 
        1.98805         1.38783        0.647238 
        1.99419         1.37907        0.642318 
        2.00033         1.37084        0.637447 
        2.00647         1.36749        0.632628 
         2.0126         1.36064        0.627866 
        2.01874         1.35116        0.623147 
        2.02488         1.34305        0.618471 
        2.03101         1.33569        0.613852 
        2.03714         1.33054        0.609284 
        2.04328         1.32273        0.604758 
        2.04941         1.31539        0.600281 
        2.05554          1.3076        0.595853 
        2.06167         1.30024        0.591463 
        2.06781          1.2938        0.587116 
        2.07396         1.28781        0.582807 
        2.08009         1.28253        0.578549 
        2.08622         1.27369        0.574338 
        2.09237         1.26962         0.57016 
        2.09851         1.26011        0.566023 
        2.10464         1.25542        0.561934 
        2.11077         1.24921         0.55789 
        2.11691         1.24079        0.553877 
        2.12305         1.23546        0.549903 
        2.12918         1.22722        0.545977 
        2.13531         1.22292        0.542089 
        2.14145         1.21674         0.53823 
         2.1476           1.208        0.534404 
        2.15372         1.20372        0.530634 
        2.15985         1.19688        0.526897 
        2.16599         1.19304        0.523185 
        2.17213         1.18678        0.519512 
        2.17827          1.1795        0.515876 
         2.1844         1.17352        0.512278 
        2.19054         1.16746        0.508712 
        2.19666         1.16301        0.505186 
         2.2028         1.15629        0.501689 
        2.20893         1.15163        0.498224 
        2.21508         1.14535        0.494788 
        2.22122         1.14012        0.491383 
        2.22736         1.13269        0.488017 
        2.23349          1.1273        0.484683 
        2.23962         1.12532        0.481379 
        2.24577         1.11819        0.478102 
         2.2519         1.11195         0.47486 
        2.25802         1.10856        0.471654 
        2.26417         1.10214        0.468468 
        2.27031         1.09711        0.465308 
        2.27644         1.09176        0.462187 
        2.28257          1.0849        0.459094 
        2.28872          1.0828        0.456024 
        2.29486         1.07605        0.452982 
        2.30099         1.07016        0.449974 
        2.30712          1.0681        0.446993 
        2.31326         1.06172        0.444033 
         2.3194         1.05534        0.441101 
        2.32553         1.05134        0.438201 
        2.33166         1.04791        0.435328 
         2.3378         1.04281        0.432477 
        2.34394         1.03701         0.42965 
        2.35007         1.02997        0.426853 
        2.35619         1.02794        0.424084 
        2.36233         1.02323        0.421333 
        2.36848         1.01926          0.4186 
        2.37462         1.01368        0.415897 
        2.38075         1.00925        0.413221 
        2.38689         1.00631        0.410566 
        2.39303         1.00106        0.407935 
        2.39916         0.99594        0.405329 
        2.40529        0.991985        0.402747 
        2.41143        0.985319        0.400185 
        2.41757        0.983003        0.397644 
         2.4237        0.978095        0.395129 
        2.42983        0.972993        0.392637 
        2.43598        0.969958        0.390159 
        2.44211        0.965096        0.387707 
        2.44823         0.96154        0.385281 
        2.45437        0.957359         0.38287 
        2.46052        0.954072        0.380476 
        2.46665        0.949581        0.378108 
        2.47279         0.94531         0.37576 
        2.47892        0.940669        0.373431 
        2.48507        0.937849        0.371119 
         2.4912        0.932676        0.368831 
