# k  (h/Mpc)    Pcb(k)  (Mpc/h)^3    Pcb_linear(k)  (Mpc/h)^3
     0.00783031          1566.9         1576.05 
       0.013688          2041.6         2065.59 
       0.019231         2192.85         2204.77 
      0.0249154         2148.04         2148.23 
      0.0312784         1961.01         1966.41 
      0.0375637         1747.41         1756.12 
      0.0433917         1581.83         1581.37 
      0.0492413         1437.02         1442.18 
      0.0555754         1330.95         1329.95 
      0.0619321         1228.36         1243.28 
       0.067871         1164.64         1170.53 
      0.0738098         1090.95         1094.86 
      0.0800417         1006.75         1007.85 
      0.0862327         912.777         916.346 
      0.0921407         827.579         830.857 
      0.0982031         752.888         752.048 
       0.104506         680.565         684.689 
       0.110769         630.711          633.61 
       0.116806         599.591         596.994 
       0.122832         566.465         568.451 
       0.129052         542.446         542.312 
       0.135211         518.422         515.611 
       0.141259         486.613         486.571 
       0.147318         451.869         454.879 
       0.153489         421.899         421.803 
       0.159709         393.624         390.256 
       0.165845         361.839         363.034 
       0.171974           346.1         340.777 
       0.178125         328.882         323.235 
       0.184229         311.821         309.473 
        0.19034         302.944         297.742 
       0.196428         291.624         286.533 
       0.202534         275.882          274.66 
       0.208729         266.328         261.546 
       0.214876           254.7         247.748 
       0.220989         237.132         233.974 
       0.227147         228.838         220.902 
        0.23329         218.293         209.321 
       0.239377         209.812          199.57 
       0.245482          200.24          191.41 
       0.251667          192.06         184.399 
       0.257832         188.434         178.115 
       0.263955         179.802         172.052 
       0.270079         173.632         165.824 
        0.27624         165.963         159.275 
       0.282372         160.126         152.578 
        0.28843         156.713         146.024 
       0.294538         149.615         139.744 
       0.300721         142.832         133.943 
        0.30691         139.623         128.781 
       0.313033         134.277         124.286 
       0.319153         131.876         120.261 
       0.325316         126.316         116.506 
        0.33145         122.536         112.891 
       0.337538         119.089         109.314 
       0.343633         115.687         105.694 
       0.349808         111.893         102.022 
       0.355968         108.367         98.4212 
       0.362074         106.065         95.0013 
       0.368217          102.96         91.7825 
       0.374374         100.794         88.8054 
       0.380519         96.5474         86.0814 
       0.386598         93.9996         83.5841 
       0.392688          91.444         81.2249 
        0.39888         89.7447         78.9166 
       0.405048         87.6587         76.6612 
       0.411186         85.4883         74.4449 
       0.417313         83.1678         72.2639 
       0.423458         80.8498         70.1245 
       0.429607         79.4711         68.0611 
       0.435692         78.0314         66.1169 
       0.441815          75.192         64.2655 
       0.447964         73.0635         62.5156 
       0.454126         71.7982         60.8592 
       0.460267         71.1674          59.284 
       0.466387         69.2145         57.7713 
        0.47254         68.2575         56.2946 
       0.478662           66.14         54.8584 
       0.484765         64.8543         53.4574 
       0.490885         63.0853         52.0893 
       0.497035         62.2186         50.7587 
       0.503198         60.7341         49.4747 
       0.509342         59.2253         48.2466 
       0.515458         58.5345         47.0773 
       0.521598         57.1689         45.9541 
       0.527764         56.4664         44.8693 
       0.533884         55.2807         43.8285 
           0.54         54.1649         42.8194 
       0.546137         52.6076          41.835 
       0.552299         51.7955          40.873 
       0.558452         50.7986         39.9379 
       0.564573         50.3818         39.0338 
       0.570708         49.0046          38.156 
       0.576825         48.3992         37.3109 
       0.582926         47.6273         36.4975 
       0.589034         46.7478         35.7104 
       0.595184         46.1454         34.9434 
       0.601379         44.9268         34.1946 
       0.607522         44.3219         33.4739 
       0.613639         43.6329         32.7766 
       0.619772         42.9424         32.0966 
       0.625918         42.1089         31.4333 
       0.632068         41.7829         30.7873 
       0.638161         40.9407         30.1648 
         0.6443         40.3624         29.5554 
       0.650464         39.3934         28.9616 
       0.656582         39.1827         28.3898 
       0.662703         38.7585         27.8344 
       0.668861         37.7652         27.2915 
       0.675024         37.3756         26.7628 
       0.681124         37.0934         26.2533 
       0.687237         36.3774         25.7555 
       0.693381           35.68         25.2681 
       0.699536         35.5446         24.7922 
       0.705665         34.8998         24.3308 
       0.711789         34.2973         23.8817 
       0.717957         33.6605         23.4413 
        0.72409         33.3829         23.0148 
       0.730186         33.2195         22.6018 
       0.736317         32.5788         22.1969 
       0.742472         32.1834         21.8005 
       0.748622         31.6888         21.4142 
        0.75476         30.9499         21.0381 
       0.760888         30.8559         20.6716 
       0.767043         30.3645         20.3125 
       0.773185         30.0867         19.9626 
       0.779291         29.8023         19.6231 
       0.785407          29.292         19.2911 
       0.791564         29.1262         18.9648 
       0.797719          28.543         18.6464 
       0.803834         28.4032         18.3374 
       0.809972         27.8986         18.0344 
       0.816124         27.6139         17.7376 
       0.822261         27.3285         17.4485 
       0.828378         27.0412         17.1667 
       0.834502         26.7955         16.8909 
       0.840667         26.5212         16.6195 
       0.846816         25.9652         16.3549 
       0.852925         25.8996         16.0977 
       0.859047         25.5985         15.8456 
       0.865192           25.26          15.598 
       0.871341         24.9432         15.3557 
       0.877463         24.7206         15.1197 
       0.883569         24.5878         14.8892 
       0.889708         24.2024         14.6625 
       0.895864         23.9163         14.4399 
       0.902008         23.6387         14.2225 
       0.908149         23.3788         14.0098 
       0.914301         23.2743         13.8011 
       0.920448         22.9289         13.5968 
       0.926574         22.7658         13.3975 
       0.932687         22.4867         13.2026 
       0.938823         22.2267          13.011 
       0.944975         22.0411         12.8227 
       0.951105         21.8163         12.6389 
       0.957225         21.7023          12.459 
       0.963368         21.3856         12.2821 
       0.969511         21.1846         12.1086 
       0.975621         20.9934         11.9394 
       0.981748         20.7389         11.7731 
       0.987916         20.6041         11.6089 
        0.99406         20.4116         11.4484 
        1.00019         20.2453         11.2914 
        1.00632         20.0719         11.1374 
        1.01246         19.9014         10.9862 
        1.01859         19.6654          10.838 
        1.02471         19.4632         10.6927 
        1.03085         19.4023         10.5496 
        1.03698         19.2185         10.4095 
        1.04314         18.9989         10.2713 
        1.04929         18.7747          10.136 
        1.05541         18.7133         10.0037 
        1.06154         18.5602         9.87346 
        1.06769         18.4225         9.74535 
        1.07382         18.1441         9.61995 
        1.07993         18.0012         9.49706 
        1.08607         17.9304         9.37582 
        1.09222         17.7174          9.2566 
        1.09836         17.6537          9.1396 
        1.10449         17.4161         9.02479 
        1.11063         17.3528         8.91183 
        1.11677          17.249         8.80086 
         1.1229         17.0849         8.69199 
        1.12903         16.9746         8.58489 
        1.13518         16.7391         8.47951 
        1.14131         16.6693         8.37597 
        1.14745         16.4492         8.27424 
        1.15359         16.3402         8.17419 
        1.15973         16.2026         8.07576 
        1.16584         16.0882         7.97941 
        1.17197         15.9562          7.8845 
        1.17811           15.83         7.79086 
        1.18424          15.735         7.69903 
        1.19038         15.6503         7.60842 
        1.19652         15.5166         7.51931 
        1.20267         15.4055         7.43164 
        1.20881         15.2544         7.34539 
        1.21495         15.1351         7.26066 
        1.22108          15.098         7.17729 
         1.2272         14.9612         7.09543 
        1.23334         14.8908         7.01467 
        1.23949         14.7509         6.93498 
        1.24562         14.6305         6.85675 
        1.25174         14.5548         6.77986 
        1.25789         14.3923         6.70392 
        1.26402         14.3577         6.62928 
        1.27014         14.2772         6.55597 
        1.27628         14.0978         6.48356 
        1.28244         14.0944         6.41211 
        1.28858         13.9694         6.34183 
        1.29471         13.7876         6.27278 
        1.30084         13.7153         6.20482 
        1.30697         13.7054         6.13777 
        1.31312         13.5544         6.07163 
        1.31925          13.487         6.00667 
        1.32537         13.4035         5.94274 
        1.33151         13.3053         5.87951 
        1.33765         13.2075         5.81724 
        1.34378         13.1858         5.75601 
        1.34992         13.0581         5.69562 
        1.35606         12.9549         5.63597 
         1.3622         12.8632         5.57729 
        1.36833         12.8099         5.51959 
        1.37445         12.7337         5.46274 
        1.38059         12.6675         5.40652 
        1.38675         12.5686         5.35096 
        1.39288         12.4586         5.29641 
        1.39901         12.4028         5.24265 
        1.40515         12.3211         5.18952 
         1.4113         12.2297         5.13715 
        1.41742         12.1859         5.08571 
        1.42355         12.0732         5.03487 
         1.4297         12.0352         4.98459 
        1.43585         11.9674         4.93501 
        1.44198         11.8965          4.8863 
        1.44809         11.8318         4.83834 
        1.45423         11.7338         4.79086 
        1.46036         11.6825          4.7441 
        1.46649         11.6072         4.69795 
        1.47263         11.5556         4.65238 
        1.47877         11.4787         4.60743 
        1.48491         11.4251         4.56302 
        1.49104         11.3302         4.51929 
        1.49718          11.302          4.4761 
        1.50333         11.2241         4.43341 
        1.50947         11.1371         4.39136 
         1.5156         11.1158         4.34993 
        1.52172         11.0502         4.30903 
        1.52787         10.9834         4.26858 
          1.534         10.9282          4.2287 
        1.54013         10.8712         4.18938 
        1.54627         10.8033         4.15048 
        1.55241         10.7177         4.11207 
        1.55855         10.7113         4.07421 
        1.56467         10.6235         4.03693 
         1.5708          10.584         4.00002 
        1.57695         10.5006         3.96351 
        1.58308         10.4374         3.92754 
        1.58922         10.4007           3.892 
        1.59535         10.3358         3.85691 
         1.6015         10.2614         3.82221 
        1.60764         10.2375         3.78796 
        1.61376         10.2009         3.75422 
        1.61989         10.1017         3.72087 
        1.62604         10.0789         3.68784 
        1.63218         10.0306         3.65525 
        1.63831         9.97736         3.62312 
        1.64444         9.89663         3.59137 
        1.65059         9.85367         3.55993 
        1.65673         9.82601         3.52889 
        1.66285         9.77679         3.49832 
        1.66898         9.71699          3.4681 
        1.67512         9.66052         3.43818 
        1.68127         9.60168         3.40859 
         1.6874         9.57918         3.37941 
        1.69353         9.51608         3.35059 
        1.69967         9.47666         3.32205 
        1.70581         9.40866         3.29384 
        1.71193         9.39692         3.26608 
        1.71806         9.35274         3.23858 
        1.72421         9.28137         3.21134 
        1.73035         9.24313         3.18444 
        1.73649          9.2072         3.15787 
        1.74262         9.13619         3.13161 
        1.74876         9.13285         3.10564 
        1.75489         9.07715         3.08002 
        1.76101         9.01421          3.0547 
        1.76715         8.99981         3.02963 
        1.77329         8.95847         3.00481 
        1.77943         8.88831         2.98026 
        1.78557         8.88116         2.95601 
        1.79171         8.83807         2.93204 
        1.79785         8.79087         2.90833 
        1.80399         8.71336         2.88488 
        1.81012         8.70237         2.86173 
        1.81625         8.64821         2.83884 
        1.82239         8.61233         2.81617 
        1.82853         8.56664         2.79376 
        1.83466         8.51506         2.77162 
        1.84078         8.49597         2.74974 
        1.84692         8.46131         2.72806 
        1.85306         8.42542         2.70659 
         1.8592         8.39767         2.68539 
        1.86533         8.36278         2.66442 
        1.87147         8.30527         2.64366 
        1.87761         8.29432         2.62311 
        1.88375         8.24029          2.6028 
        1.88988         8.19845         2.58273 
        1.89601         8.17799         2.56286 
        1.90215          8.1146         2.54319 
        1.90829         8.10578         2.52373 
        1.91442         8.05174         2.50447 
        1.92056         8.04489         2.48544 
         1.9267         7.98642         2.46658 
        1.93284         7.98123         2.44791 
        1.93897         7.92663         2.42946 
        1.94509         7.87994         2.41125 
        1.95123         7.86356         2.39318 
        1.95737          7.8346         2.37528 
        1.96349         7.77136         2.35761 
        1.96964         7.75314         2.34007 
        1.97578         7.72408         2.32271 
        1.98192         7.68351         2.30555 
        1.98805         7.66114         2.28857 
        1.99419         7.64069         2.27175 
        2.00033         7.58565          2.2551 
        2.00647          7.5767         2.23862 
         2.0126         7.53832         2.22234 
        2.01874         7.51089         2.20619 
        2.02488         7.47689         2.19018 
        2.03101         7.42864         2.17437 
        2.03714          7.4034         2.15873 
        2.04328         7.38213         2.14322 
        2.04941         7.34315         2.12789 
        2.05554         7.32852         2.11271 
        2.06167         7.29124         2.09766 
        2.06781         7.26127         2.08275 
        2.07396         7.22974         2.06797 
        2.08009         7.20799         2.05336 
        2.08622          7.1824         2.03891 
        2.09237         7.16801         2.02456 
        2.09851         7.10989         2.01036 
        2.10464          7.0948         1.99631 
        2.11077         7.07153         1.98242 
        2.11691         7.05891         1.96863 
        2.12305         7.01426         1.95497 
        2.12918         6.99357         1.94147 
        2.13531         6.95858          1.9281 
        2.14145         6.94213         1.91482 
         2.1476         6.90734         1.90165 
        2.15372         6.88258         1.88868 
        2.15985         6.86374         1.87581 
        2.16599         6.83513         1.86303 
        2.17213         6.82112         1.85038 
        2.17827         6.77284         1.83785 
         2.1844         6.75099         1.82544 
        2.19054         6.73071         1.81315 
        2.19666          6.7082         1.80099 
         2.2028         6.66725         1.78893 
        2.20893         6.66235         1.77698 
        2.21508         6.64265         1.76512 
        2.22122         6.58661         1.75336 
        2.22736         6.58311         1.74174 
        2.23349         6.55516         1.73023 
        2.23962         6.53967         1.71881 
        2.24577         6.49567         1.70749 
         2.2519         6.48937         1.69628 
        2.25802         6.44825          1.6852 
        2.26417         6.43357         1.67418 
        2.27031         6.40675         1.66325 
        2.27644         6.38282         1.65245 
        2.28257         6.36314         1.64175 
        2.28872         6.34802         1.63112 
        2.29486         6.31931         1.62059 
        2.30099         6.29099         1.61018 
        2.30712         6.27382         1.59985 
        2.31326         6.24953         1.58959 
         2.3194         6.22654         1.57943 
        2.32553         6.19779         1.56938 
        2.33166         6.18433         1.55942 
         2.3378         6.16319         1.54953 
        2.34394         6.14054         1.53973 
        2.35007         6.10783         1.53002 
        2.35619         6.10241         1.52041 
        2.36233         6.06892         1.51086 
        2.36848         6.05971         1.50137 
        2.37462         6.03397         1.49199 
        2.38075         6.02114         1.48269 
        2.38689         5.99753         1.47346 
        2.39303         5.97058         1.46432 
        2.39916         5.95272         1.45526 
        2.40529          5.9281         1.44628 
        2.41143         5.91631         1.43737 
        2.41757         5.90034         1.42853 
         2.4237         5.87062         1.41978 
        2.42983         5.86222         1.41111 
        2.43598         5.84426         1.40248 
        2.44211         5.81646         1.39394 
        2.44823          5.7868          1.3855 
        2.45437          5.7722          1.3771 
        2.46052         5.75722         1.36876 
        2.46665         5.74378         1.36051 
        2.47279         5.70194         1.35232 
        2.47892         5.69393          1.3442 
        2.48507         5.68423         1.33614 
         2.4912         5.66144         1.32816 
