# k  (h/Mpc)    P(k)  (Mpc/h)^3    P_linear(k)  (Mpc/h)^3
     0.00783031         10707.8         10869.5 
       0.013688         12876.2         12799.9 
       0.019231         12406.4         12380.1 
      0.0249154         10765.7         10933.8 
      0.0312784         9017.04         9067.24 
      0.0375637         7552.24         7522.64 
      0.0433917         6446.47          6508.3 
      0.0492413         5828.42         5840.43 
      0.0555754         5248.57         5358.98 
      0.0619321         4985.71         4957.26 
       0.067871         4474.55         4549.42 
      0.0738098         4022.16         4081.89 
      0.0800417         3493.19         3563.53 
      0.0862327         3070.05         3086.28 
      0.0921407         2747.01         2715.52 
      0.0982031         2452.86         2439.55 
       0.104506          2319.3          2251.4 
       0.110769         2178.26          2128.5 
       0.116806         2060.95         2030.84 
       0.122832         1960.21         1923.04 
       0.129052         1795.87         1786.74 
       0.135211         1658.03         1631.73 
       0.141259         1541.33         1477.11 
       0.147318          1421.2         1338.11 
       0.153489         1295.79         1224.92 
       0.159709         1225.69         1142.17 
       0.165845         1181.46         1085.11 
       0.171974         1123.15         1041.58 
       0.178125         1075.62         1000.18 
       0.184229         1028.95         953.617 
        0.19034         955.707          899.27 
       0.196428         923.668         840.144 
       0.202534         880.775          781.29 
       0.208729         827.767         727.516 
       0.214876         782.832          683.32 
       0.220989         755.592         648.752 
       0.227147         721.412         621.333 
        0.23329         694.093         598.061 
       0.239377         678.946         575.783 
       0.245482         633.051         552.104 
       0.251667         624.707         526.214 
       0.257832         598.935         499.339 
       0.263955         575.581         473.194 
       0.270079         551.772         449.135 
        0.27624         542.901         427.947 
       0.282372         521.404         409.989 
        0.28843          507.67         394.693 
       0.294538         483.062          380.79 
       0.300721         479.559         367.295 
        0.30691         457.317         353.712 
       0.313033         447.222         340.007 
       0.319153         432.117          326.25 
       0.325316         419.507         312.769 
        0.33145         406.057         300.166 
       0.337538         399.702         288.713 
       0.343633          386.51         278.366 
       0.349808         373.236         268.836 
       0.355968         369.122         260.021 
       0.362074         361.553         251.663 
       0.368217         351.379          243.44 
       0.374374         336.981         235.304 
       0.380519         333.817         227.313 
       0.386598         325.109         219.656 
       0.392688         321.732         212.338 
        0.39888         312.833         205.333 
       0.405048         305.422         198.828 
       0.411186         299.524         192.762 
       0.417313         293.646         187.036 
       0.423458         287.703         181.547 
       0.429607         282.015         176.228 
       0.435692         274.218         171.103 
       0.441815         271.826         166.091 
       0.447964         266.376         161.219 
       0.454126         257.249         156.523 
       0.460267         253.732         152.055 
       0.466387         250.725          147.82 
        0.47254         244.981         143.761 
       0.478662         244.177         139.898 
       0.484765          235.93           136.2 
       0.490885         233.028         132.622 
       0.497035         229.374         129.137 
       0.503198           224.3         125.751 
       0.509342         222.097         122.485 
       0.515458         219.018         119.348 
       0.521598         214.614         116.316 
       0.527764         211.582         113.384 
       0.533884             209         110.584 
           0.54         205.746         107.892 
       0.546137         204.463         105.286 
       0.552299         200.208         102.757 
       0.558452          198.28         100.311 
       0.564573         195.172         97.9508 
       0.570708         191.161         95.6587 
       0.576825         188.672         93.4463 
       0.582926         185.938         91.3118 
       0.589034         183.948         89.2444 
       0.595184         181.936         87.2301 
       0.601379         179.673         85.2663 
       0.607522         176.302         83.3802 
       0.613639         175.161         81.5599 
       0.619772         171.465         79.7902 
       0.625918          169.98           78.07 
       0.632068         167.783         76.3998 
       0.638161         166.653         74.7931 
         0.6443         164.148         73.2211 
       0.650464         162.542         71.6887 
       0.656582         160.559         70.2117 
       0.662703         159.151         68.7766 
       0.668861         156.434         67.3743 
       0.675024         154.545         66.0109 
       0.681124         153.759         64.6998 
       0.687237         151.253         63.4222 
       0.693381         149.017         62.1735 
       0.699536         148.079         60.9566 
       0.705665         147.419         59.7776 
       0.711789         144.702          58.631 
       0.717957         144.352         57.5069 
        0.72409         142.224         56.4187 
       0.730186         140.248         55.3656 
       0.736317         139.094         54.3338 
       0.742472         138.231         53.3249 
       0.748622         136.883         52.3428 
        0.75476         135.669         51.3878 
       0.760888          133.89         50.4583 
       0.767043         133.359         49.5484 
       0.773185         131.962         48.6631 
       0.779291         129.681         47.8046 
       0.785407         129.122         46.9657 
       0.791564         128.087         46.1419 
       0.797719          125.94         45.3385 
       0.803834         125.405         44.5594 
       0.809972         124.207          43.796 
       0.816124         123.782         43.0491 
       0.822261         122.412         42.3217 
       0.828378         121.279         41.6134 
       0.834502         120.885         40.9209 
       0.840667          119.08         40.2398 
       0.846816          117.82         39.5763 
       0.852925          117.28         38.9321 
       0.859047         115.861          38.301 
       0.865192         115.047         37.6819 
       0.871341         114.041         37.0762 
       0.877463         112.902         36.4868 
       0.883569          112.43         35.9117 
       0.889708         111.438         35.3462 
       0.895864         110.347         34.7916 
       0.902008         109.599         34.2501 
       0.908149         109.069         33.7205 
       0.914301         107.884         33.2015 
       0.920448         107.074         32.6939 
       0.926574         106.364         32.1988 
       0.932687         106.252         31.7151 
       0.938823         104.569         31.2396 
       0.944975         103.538         30.7729 
       0.951105         103.075         30.3175 
       0.957225         101.993         29.8721 
       0.963368         101.123         29.4343 
       0.969511         100.984         29.0053 
       0.975621         100.396         28.5872 
       0.981748         99.6765         28.1763 
       0.987916         98.6455          27.771 
        0.99406         97.9493         27.3752 
        1.00019         97.5084          26.988 
        1.00632         96.6787         26.6086 
        1.01246         96.1189         26.2361 
        1.01859         94.9998         25.8713 
        1.02471         94.6259         25.5139 
        1.03085         93.7349         25.1621 
        1.03698         93.3913         24.8177 
        1.04314         92.4535         24.4784 
        1.04929         91.9377         24.1462 
        1.05541         91.2281         23.8216 
        1.06154         90.8719         23.5022 
        1.06769         90.5474         23.1882 
        1.07382         89.8839          22.881 
        1.07993         89.1937         22.5801 
        1.08607         88.5355         22.2834 
        1.09222         88.2523         21.9918 
        1.09836         87.4779         21.7058 
        1.10449         86.9786         21.4252 
        1.11063          86.307         21.1494 
        1.11677         85.9555         20.8785 
         1.1229         85.0567         20.6128 
        1.12903         84.4279         20.3516 
        1.13518         84.5537         20.0948 
        1.14131         83.8745         19.8425 
        1.14745         83.1246         19.5947 
        1.15359         82.7284         19.3512 
        1.15973         82.3389         19.1117 
        1.16584         81.6221         18.8774 
        1.17197         81.2479         18.6467 
        1.17811         80.7678         18.4191 
        1.18424         80.2467         18.1961 
        1.19038         79.7966         17.9761 
        1.19652         79.3761         17.7598 
        1.20267         78.6759         17.5472 
        1.20881         78.3071         17.3381 
        1.21495         77.7859         17.1327 
        1.22108          77.504         16.9307 
         1.2272         76.6809         16.7325 
        1.23334         76.4726          16.537 
        1.23949         75.9832         16.3442 
        1.24562          75.561          16.155 
        1.25174         75.1257          15.969 
        1.25789         74.8559         15.7855 
        1.26402         74.3582         15.6052 
        1.27014          73.794         15.4281 
        1.27628         73.5153         15.2533 
        1.28244         72.9745         15.0809 
        1.28858         72.8299         14.9114 
        1.29471         72.3349         14.7448 
        1.30084          71.911          14.581 
        1.30697         71.4857         14.4194 
        1.31312           71.09         14.2601 
        1.31925          70.691         14.1037 
        1.32537         70.4445         13.9498 
        1.33151         69.7475         13.7977 
        1.33765          69.466         13.6479 
        1.34378          69.075         13.5007 
        1.34992         68.8258         13.3555 
        1.35606         68.4469         13.2122 
         1.3622         67.8495         13.0713 
        1.36833         67.7066         12.9327 
        1.37445         67.2881         12.7963 
        1.38059         66.8126         12.6614 
        1.38675          66.465         12.5281 
        1.39288         66.0972         12.3973 
        1.39901         65.9223         12.2685 
        1.40515         65.4844         12.1412 
         1.4113         65.1679         12.0157 
        1.41742         65.0561         11.8925 
        1.42355         64.4488         11.7708 
         1.4297         64.2763         11.6505 
        1.43585         63.7459         11.5319 
        1.44198          63.443         11.4154 
        1.44809         63.1924         11.3007 
        1.45423          62.875         11.1872 
        1.46036         62.6766         11.0755 
        1.46649          62.286         10.9652 
        1.47263         61.8696         10.8564 
        1.47877         61.6835         10.7491 
        1.48491         61.3983         10.6431 
        1.49104         61.0178         10.5388 
        1.49718         60.5791         10.4357 
        1.50333         60.3619         10.3339 
        1.50947         60.1048         10.2337 
         1.5156         59.7468          10.135 
        1.52172         59.5295         10.0375 
        1.52787         59.3827         9.94119 
          1.534          58.911         9.84623 
        1.54013         58.5467         9.75261 
        1.54627         58.4209         9.66005 
        1.55241         57.9206         9.56867 
        1.55855         57.7232         9.47862 
        1.56467         57.3442         9.38997 
         1.5708         57.2852         9.30221 
        1.57695         57.0416         9.21545 
        1.58308         56.5637            9.13 
        1.58922         56.4617         9.04558 
        1.59535         56.2879         8.96226 
         1.6015         55.7326         8.87988 
        1.60764         55.5857         8.79857 
        1.61376         55.2921         8.71852 
        1.61989          54.984          8.6394 
        1.62604         54.8317         8.56109 
        1.63218         54.6507          8.4838 
        1.63831         54.2483         8.40765 
        1.64444         54.0099         8.33241 
        1.65059         53.7302         8.25791 
        1.65673          53.551         8.18441 
        1.66285          53.165         8.11201 
        1.66898         52.9946         8.04046 
        1.67512         52.6175         7.96964 
        1.68127         52.4089         7.89961 
         1.6874         52.2266         7.83058 
        1.69353         51.9582         7.76242 
        1.69967         51.6923         7.69492 
        1.70581         51.5923         7.62824 
        1.71193         51.3882         7.56261 
        1.71806         50.8654         7.49762 
        1.72421         50.7968         7.43327 
        1.73035         50.5637         7.36974 
        1.73649         50.1669         7.30698 
        1.74262         50.0938           7.245 
        1.74876         49.8301          7.1837 
        1.75489         49.5934         7.12323 
        1.76101         49.4187         7.06349 
        1.76715         49.0781         7.00435 
        1.77329         48.8916         6.94581 
        1.77943         48.5953         6.88792 
        1.78557         48.4624         6.83078 
        1.79171         48.2198         6.77428 
        1.79785         47.9698         6.71841 
        1.80399         47.8702         6.66319 
        1.81012         47.5829         6.60866 
        1.81625         47.2115         6.55476 
        1.82239         47.1282         6.50139 
        1.82853         46.8047         6.44864 
        1.83466         46.6332         6.39653 
        1.84078         46.3499         6.34505 
        1.84692         46.1369         6.29406 
        1.85306         45.9487         6.24357 
         1.8592         45.6455         6.19371 
        1.86533         45.5678         6.14442 
        1.87147         45.3608         6.09562 
        1.87761         45.1861         6.04733 
        1.88375         44.9337         5.99962 
        1.88988         44.8533         5.95248 
        1.89601         44.5586         5.90582 
        1.90215          44.361         5.85962 
        1.90829         44.2632         5.81394 
        1.91442         43.9743         5.76875 
        1.92056          43.684         5.72408 
         1.9267         43.5111         5.67983 
        1.93284         43.3425         5.63603 
        1.93897         43.1934         5.59277 
        1.94509          42.903         5.55007 
        1.95123         42.7992          5.5077 
        1.95737         42.5808         5.46574 
        1.96349         42.3147         5.42433 
        1.96964         42.3014         5.38323 
        1.97578         41.9751         5.34254 
        1.98192         41.8179         5.30236 
        1.98805         41.7126         5.26258 
        1.99419         41.4373         5.22321 
        2.00033         41.2473         5.18423 
        2.00647         41.0542         5.14565 
         2.0126         40.8114         5.10754 
        2.01874         40.7723         5.06975 
        2.02488         40.5866         5.03231 
        2.03101         40.3517         4.99532 
        2.03714         40.1666         4.95874 
        2.04328         39.9764         4.92249 
        2.04941         39.7517         4.88663 
        2.05554         39.5601         4.85115 
        2.06167         39.4861         4.81598 
        2.06781         39.2543         4.78115 
        2.07396          39.128         4.74662 
        2.08009         38.9695         4.71248 
        2.08622         38.6992         4.67873 
        2.09237         38.5689         4.64524 
        2.09851         38.4066         4.61207 
        2.10464         38.2507         4.57928 
        2.11077         38.1362         4.54685 
        2.11691         37.8663         4.51467 
        2.12305         37.7078         4.48279 
        2.12918         37.5377          4.4513 
        2.13531         37.3475         4.42012 
        2.14145         37.2035         4.38915 
         2.1476         37.0567         4.35846 
        2.15372         36.8401          4.3282 
        2.15985          36.717         4.29821 
        2.16599         36.6446         4.26842 
        2.17213         36.4928         4.23894 
        2.17827         36.2266         4.20974 
         2.1844         36.1228         4.18085 
        2.19054          35.938         4.15222 
        2.19666          35.782          4.1239 
         2.2028          35.583         4.09582 
        2.20893         35.5211         4.06799 
        2.21508         35.3791         4.04039 
        2.22122         35.1451         4.01303 
        2.22736         35.0562         3.98598 
        2.23349         34.9057         3.95919 
        2.23962          34.647         3.93264 
        2.24577         34.5248          3.9063 
         2.2519         34.3703         3.88024 
        2.25802         34.2872         3.85446 
        2.26417         34.1068         3.82885 
        2.27031          33.997         3.80344 
        2.27644         33.7808         3.77834 
        2.28257         33.6949         3.75347 
        2.28872         33.4894         3.72877 
        2.29486         33.4321         3.70431 
        2.30099          33.241         3.68011 
        2.30712         33.1349         3.65612 
        2.31326         32.9687          3.6323 
         2.3194         32.8427         3.60871 
        2.32553         32.7019         3.58537 
        2.33166         32.5948         3.56224 
         2.3378         32.3245         3.53929 
        2.34394         32.2397         3.51654 
        2.35007         32.1134         3.49401 
        2.35619         31.9922         3.47172 
        2.36233          31.893         3.44956 
        2.36848         31.7152         3.42755 
        2.37462         31.5792         3.40578 
        2.38075         31.4937         3.38422 
        2.38689         31.3876         3.36283 
        2.39303          31.199         3.34163 
        2.39916         31.0054         3.32064 
        2.40529         30.8555         3.29982 
        2.41143         30.8218         3.27917 
        2.41757         30.7164         3.25869 
         2.4237         30.5585         3.23842 
        2.42983         30.3683         3.21833 
        2.43598         30.2603         3.19835 
        2.44211         30.1237         3.17858 
        2.44823         30.0313         3.15901 
        2.45437         29.8914         3.13956 
        2.46052         29.6916         3.12026 
        2.46665         29.6645         3.10115 
        2.47279         29.5236         3.08221 
        2.47892          29.369         3.06342 
        2.48507         29.2581         3.04477 
         2.4912         29.1579         3.02631 
