# k  (h/Mpc)    P(k)  (Mpc/h)^3    P_linear(k)  (Mpc/h)^3
     0.00783031         334.283         337.898 
       0.013688         397.041         398.564 
       0.019231          385.61         385.781 
      0.0249154         339.974         340.861 
      0.0312784         283.156         282.754 
      0.0375637         235.437         234.631 
      0.0433917         203.301         203.018 
      0.0492413         182.594           182.2 
      0.0555754         166.942         167.193 
      0.0619321         155.109         154.668 
       0.067871         141.765         141.949 
      0.0738098         127.218         127.365 
      0.0800417         110.999         111.194 
      0.0862327         96.4203         96.3044 
      0.0921407         84.9308         84.7367 
      0.0982031         76.1963         76.1262 
       0.104506         70.5963          70.256 
       0.110769         66.6418         66.4214 
       0.116806         63.3463         63.3746 
       0.122832           60.12         60.0109 
       0.129052         55.7094         55.7581 
       0.135211         50.8953         50.9209 
       0.141259         46.2379         46.0961 
       0.147318         42.0201         41.7586 
       0.153489          38.407         38.2264 
       0.159709         35.8182         35.6442 
       0.165845         34.1673         33.8635 
       0.171974         32.6098         32.5053 
       0.178125         31.3484         31.2132 
       0.184229         29.9351         29.7602 
        0.19034         28.1069         28.0642 
       0.196428         26.3674         26.2191 
       0.202534           24.66         24.3824 
       0.208729         22.9103         22.7043 
       0.214876         21.4743         21.3251 
       0.220989         20.4929         20.2463 
       0.227147         19.5245         19.3907 
        0.23329         18.7915         18.6644 
       0.239377         18.1174         17.9692 
       0.245482         17.3177         17.2302 
       0.251667         16.6025         16.4223 
       0.257832         15.7365         15.5835 
       0.263955         14.9468         14.7676 
       0.270079         14.2012         14.0168 
        0.27624         13.5945         13.3556 
       0.282372         13.0326         12.7951 
        0.28843         12.5057         12.3178 
       0.294538         12.0665         11.8839 
       0.300721         11.6923         11.4627 
        0.30691         11.2113         11.0388 
       0.313033         10.7914         10.6111 
       0.319153         10.2966         10.1818 
       0.325316         9.97707         9.76107 
        0.33145         9.56967         9.36776 
       0.337538         9.20935         9.01035 
       0.343633         8.86023         8.68744 
       0.349808         8.58605         8.39002 
       0.355968         8.31017         8.11491 
       0.362074         8.03479         7.85407 
       0.368217         7.78184         7.59743 
       0.374374         7.50094         7.34353 
       0.380519         7.27589         7.09415 
       0.386598         7.05003          6.8552 
       0.392688         6.83743          6.6268 
        0.39888         6.60425         6.40819 
       0.405048         6.40529         6.20518 
       0.411186         6.22008         6.01585 
       0.417313         6.02319         5.83717 
       0.423458         5.86309         5.66584 
       0.429607         5.67981         5.49986 
       0.435692         5.51664         5.33991 
       0.441815         5.36356         5.18351 
       0.447964         5.23271         5.03146 
       0.454126         5.05973         4.88491 
       0.460267         4.92457         4.74545 
       0.466387         4.77782         4.61329 
        0.47254         4.66119         4.48661 
       0.478662         4.54903         4.36605 
       0.484765         4.41709         4.25063 
       0.490885         4.30796         4.13897 
       0.497035         4.22608         4.03021 
       0.503198         4.10348         3.92453 
       0.509342         4.00514         3.82261 
       0.515458         3.89942         3.72472 
       0.521598         3.80697         3.63008 
       0.527764          3.7028         3.53859 
       0.533884         3.63353         3.45121 
           0.54         3.54154         3.36718 
       0.546137         3.46313         3.28585 
       0.552299         3.38404         3.20692 
       0.558452         3.29344         3.13059 
       0.564573         3.22912         3.05694 
       0.570708          3.1555          2.9854 
       0.576825         3.07791         2.91635 
       0.582926         3.01888         2.84974 
       0.589034         2.93503         2.78522 
       0.595184         2.87813         2.72236 
       0.601379         2.81389         2.66107 
       0.607522         2.76456          2.6022 
       0.613639         2.71544          2.5454 
       0.619772         2.64231         2.49017 
       0.625918         2.59677         2.43648 
       0.632068         2.55079         2.38436 
       0.638161          2.4904         2.33421 
         0.6443         2.43939         2.28515 
       0.650464          2.3838         2.23733 
       0.656582         2.34664         2.19123 
       0.662703         2.30014         2.14644 
       0.668861         2.26234         2.10268 
       0.675024         2.21195         2.06013 
       0.681124         2.16497         2.01921 
       0.687237         2.13161         1.97934 
       0.693381         2.09223         1.94037 
       0.699536          2.0399         1.90239 
       0.705665         2.00576          1.8656 
       0.711789         1.97336         1.82981 
       0.717957         1.93305         1.79473 
        0.72409         1.89943         1.76077 
       0.730186         1.86367          1.7279 
       0.736317          1.8424          1.6957 
       0.742472         1.80745         1.66421 
       0.748622         1.77122         1.63356 
        0.75476         1.73681         1.60376 
       0.760888         1.70654         1.57475 
       0.767043         1.68712         1.54636 
       0.773185          1.6508         1.51872 
       0.779291         1.62616         1.49193 
       0.785407         1.59806         1.46575 
       0.791564         1.57372         1.44004 
       0.797719         1.55012         1.41497 
       0.803834         1.52638         1.39065 
       0.809972         1.50006         1.36683 
       0.816124         1.47265         1.34352 
       0.822261         1.44604         1.32082 
       0.828378          1.4268         1.29871 
       0.834502         1.40891          1.2771 
       0.840667         1.37837         1.25584 
       0.846816         1.35789         1.23514 
       0.852925         1.34369         1.21503 
       0.859047         1.32233         1.19533 
       0.865192         1.29963         1.17601 
       0.871341         1.28093         1.15711 
       0.877463         1.26547         1.13872 
       0.883569         1.24204         1.12077 
       0.889708         1.22358         1.10312 
       0.895864         1.20581         1.08581 
       0.902008         1.18595         1.06891 
       0.908149         1.17064         1.05238 
       0.914301         1.14767         1.03618 
       0.920448         1.13369         1.02034 
       0.926574         1.11679         1.00489 
       0.932687         1.10074        0.989795 
       0.938823         1.09019        0.974958 
       0.944975         1.07348        0.960392 
       0.951105          1.0597        0.946179 
       0.957225         1.04798         0.93228 
       0.963368         1.03193        0.918615 
       0.969511         1.01578        0.905226 
       0.975621        0.999917        0.892177 
       0.981748        0.990832        0.879355 
       0.987916        0.975661        0.866705 
        0.99406        0.960792        0.854353 
        1.00019        0.951704        0.842269 
        1.00632        0.935367         0.83043 
        1.01246        0.923548        0.818802 
        1.01859        0.913219        0.807418 
        1.02471        0.899962        0.796265 
        1.03085        0.891487        0.785285 
        1.03698        0.877474        0.774538 
        1.04314         0.86768        0.763947 
        1.04929         0.85509         0.75358 
        1.05541        0.846259        0.743449 
        1.06154        0.834008        0.733481 
        1.06769        0.823372        0.723681 
        1.07382        0.813618        0.714094 
        1.07993        0.801371        0.704704 
        1.08607        0.795889        0.695444 
        1.09222        0.783667        0.686343 
        1.09836        0.777327        0.677417 
        1.10449        0.767544        0.668661 
        1.11063        0.755416        0.660051 
        1.11677        0.745629        0.651597 
         1.1229         0.73814        0.643307 
        1.12903        0.728579        0.635155 
        1.13518        0.721667        0.627138 
        1.14131        0.711723        0.619266 
        1.14745        0.699693        0.611533 
        1.15359        0.694923        0.603932 
        1.15973        0.684402        0.596458 
        1.16584        0.680747        0.589145 
        1.17197        0.671751        0.581945 
        1.17811        0.664941        0.574844 
        1.18424        0.658843        0.567882 
        1.19038        0.649238        0.561017 
        1.19652        0.640589        0.554268 
        1.20267        0.636375        0.547631 
        1.20881        0.627322        0.541105 
        1.21495        0.622334        0.534696 
        1.22108        0.614907        0.528392 
         1.2272        0.609475        0.522205 
        1.23334        0.601586        0.516104 
        1.23949        0.595092        0.510086 
        1.24562        0.589118        0.504181 
        1.25174        0.583269        0.498379 
        1.25789        0.577472        0.492651 
        1.26402         0.56942        0.487023 
        1.27014        0.563725        0.481498 
        1.27628        0.559963        0.476042 
        1.28244        0.551202         0.47066 
        1.28858        0.546577         0.46537 
        1.29471        0.542141        0.460172 
        1.30084        0.535176         0.45506 
        1.30697        0.529734        0.450018 
        1.31312        0.522332        0.445045 
        1.31925        0.518625        0.440164 
        1.32537        0.514109        0.435361 
        1.33151        0.509784        0.430613 
        1.33765        0.504013        0.425939 
        1.34378        0.497485        0.421344 
        1.34992         0.49395        0.416814 
        1.35606        0.488308        0.412341 
         1.3622        0.483814        0.407942 
        1.36833        0.478926        0.403619 
        1.37445        0.472735         0.39936 
        1.38059        0.468813         0.39515 
        1.38675        0.467064        0.390992 
        1.39288        0.460816        0.386909 
        1.39901        0.456632        0.382888 
        1.40515        0.452524        0.378915 
         1.4113        0.447173           0.375 
        1.41742        0.443125        0.371155 
        1.42355         0.44089        0.367357 
         1.4297        0.434906        0.363602 
        1.43585        0.431029          0.3599 
        1.44198        0.428984        0.356264 
        1.44809        0.423337        0.352686 
        1.45423        0.419635        0.349144 
        1.46036        0.415844        0.345656 
        1.46649        0.412509        0.342216 
        1.47263        0.408205        0.338819 
        1.47877        0.403864        0.335471 
        1.48491         0.40073        0.332162 
        1.49104        0.396162        0.328906 
        1.49718        0.393357        0.325691 
        1.50333        0.390237        0.322513 
        1.50947        0.386709        0.319385 
         1.5156        0.382673        0.316304 
        1.52172        0.379693        0.313263 
        1.52787        0.375956        0.310256 
          1.534        0.372941        0.307292 
        1.54013        0.369036         0.30437 
        1.54627        0.366408        0.301482 
        1.55241        0.362732         0.29863 
        1.55855        0.359239        0.295819 
        1.56467        0.357978        0.293053 
         1.5708        0.353735        0.290314 
        1.57695        0.351114        0.287606 
        1.58308         0.34793        0.284939 
        1.58922        0.345134        0.282305 
        1.59535        0.341889        0.279704 
         1.6015        0.339043        0.277133 
        1.60764        0.336568        0.274596 
        1.61376        0.332797        0.272097 
        1.61989        0.330789        0.269628 
        1.62604        0.327982        0.267184 
        1.63218        0.325738        0.264772 
        1.63831        0.322952        0.262396 
        1.64444        0.320028        0.260047 
        1.65059        0.317597        0.257722 
        1.65673        0.314775        0.255428 
        1.66285        0.312647        0.253169 
        1.66898        0.310429        0.250936 
        1.67512        0.307037        0.248726 
        1.68127        0.304406         0.24654 
         1.6874        0.303086        0.244386 
        1.69353        0.299962        0.242259 
        1.69967        0.297937        0.240152 
        1.70581        0.295143        0.238071 
        1.71193        0.293102        0.236023 
        1.71806        0.290516        0.233994 
        1.72421        0.288543        0.231986 
        1.73035        0.285815        0.230003 
        1.73649        0.284305        0.228045 
        1.74262        0.281886         0.22611 
        1.74876        0.279443        0.224197 
        1.75489         0.27755         0.22231 
        1.76101         0.27514        0.220446 
        1.76715        0.273065          0.2186 
        1.77329        0.270936        0.216773 
        1.77943        0.268691        0.214966 
        1.78557        0.267173        0.213183 
        1.79171        0.265187         0.21142 
        1.79785        0.263002        0.209676 
        1.80399        0.260996        0.207953 
        1.81012        0.259287        0.206251 
        1.81625        0.257246        0.204569 
        1.82239        0.255588        0.202903 
        1.82853        0.252977        0.201257 
        1.83466          0.2514         0.19963 
        1.84078        0.249418        0.198024 
        1.84692        0.247703        0.196432 
        1.85306        0.246381        0.194857 
         1.8592         0.24425        0.193301 
        1.86533        0.242858        0.191762 
        1.87147        0.240929        0.190239 
        1.87761        0.239423        0.188732 
        1.88375        0.237125        0.187243 
        1.88988        0.235737        0.185772 
        1.89601        0.233761        0.184316 
        1.90215        0.232486        0.182874 
        1.90829        0.230559        0.181448 
        1.91442        0.229311        0.180038 
        1.92056        0.227442        0.178644 
         1.9267        0.225729        0.177263 
        1.93284        0.224125        0.175896 
        1.93897        0.222648        0.174546 
        1.94509        0.221413        0.173213 
        1.95123        0.219525        0.171891 
        1.95737        0.218444        0.170581 
        1.96349        0.216607        0.169289 
        1.96964        0.215083        0.168006 
        1.97578        0.213532        0.166736 
        1.98192        0.212333        0.165482 
        1.98805        0.211099        0.164241 
        1.99419         0.20937        0.163012 
        2.00033        0.207936        0.161796 
        2.00647        0.207031        0.160592 
         2.0126        0.205174        0.159402 
        2.01874        0.204048        0.158223 
        2.02488        0.202737        0.157055 
        2.03101        0.201188          0.1559 
        2.03714        0.199751        0.154758 
        2.04328        0.198742        0.153627 
        2.04941        0.197309        0.152508 
        2.05554        0.196144        0.151401 
        2.06167        0.195073        0.150303 
        2.06781        0.193055        0.149216 
        2.07396        0.192015        0.148138 
        2.08009        0.190804        0.147073 
        2.08622        0.189816         0.14602 
        2.09237        0.188793        0.144974 
        2.09851        0.187517        0.143939 
        2.10464        0.186192        0.142916 
        2.11077        0.185014        0.141904 
        2.11691        0.183791        0.140899 
        2.12305        0.182665        0.139905 
        2.12918        0.181657        0.138922 
        2.13531        0.180249        0.137948 
        2.14145        0.179124        0.136982 
         2.1476        0.178179        0.136024 
        2.15372        0.177326         0.13508 
        2.15985        0.175842        0.134144 
        2.16599        0.174528        0.133214 
        2.17213        0.173865        0.132294 
        2.17827        0.172723        0.131383 
         2.1844        0.171857        0.130481 
        2.19054        0.170602        0.129588 
        2.19666        0.169138        0.128704 
         2.2028        0.168604        0.127828 
        2.20893        0.167803        0.126959 
        2.21508        0.166268        0.126098 
        2.22122        0.165179        0.125244 
        2.22736        0.164597          0.1244 
        2.23349         0.16343        0.123564 
        2.23962        0.162737        0.122735 
        2.24577        0.161399        0.121913 
         2.2519        0.160757          0.1211 
        2.25802        0.159533        0.120295 
        2.26417        0.158695        0.119496 
        2.27031         0.15766        0.118703 
        2.27644        0.156839        0.117919 
        2.28257        0.155922        0.117143 
        2.28872         0.15497        0.116372 
        2.29486        0.154138        0.115609 
        2.30099        0.153212        0.114854 
        2.30712        0.152368        0.114105 
        2.31326        0.151203        0.113361 
         2.3194        0.151056        0.112625 
        2.32553        0.150096        0.111897 
        2.33166        0.149278        0.111175 
         2.3378        0.148326        0.110459 
        2.34394         0.14717        0.109749 
        2.35007         0.14645        0.109046 
        2.35619        0.145506         0.10835 
        2.36233        0.144588        0.107658 
        2.36848        0.144041        0.106971 
        2.37462        0.142989        0.106292 
        2.38075        0.142567        0.105619 
        2.38689        0.141571        0.104952 
        2.39303         0.14116         0.10429 
        2.39916        0.139826        0.103635 
        2.40529        0.139284        0.102985 
        2.41143        0.138546        0.102341 
        2.41757         0.13772        0.101701 
         2.4237        0.137129        0.101069 
        2.42983        0.136168        0.100442 
        2.43598        0.135819       0.0998183 
        2.44211        0.134842       0.0992012 
        2.44823        0.134394       0.0985906 
        2.45437         0.13322       0.0979836 
        2.46052        0.132738       0.0973812 
        2.46665        0.131897       0.0967849 
        2.47279        0.131201       0.0961938 
        2.47892        0.130442       0.0956073 
        2.48507        0.129637       0.0950251 
         2.4912        0.129179       0.0944489 
