# k  (h/Mpc)    P(k)  (Mpc/h)^3    P_linear(k)  (Mpc/h)^3
     0.00783031         6893.33          6950.1 
       0.013688         8591.05          8772.2 
       0.019231         8862.66         8964.14 
      0.0249154         8315.52         8308.13 
      0.0312784         7143.66         7187.04 
      0.0375637         6052.49         6120.53 
      0.0433917         5339.48         5350.32 
      0.0492413         4770.45         4811.86 
      0.0555754         4418.41         4427.31 
      0.0619321         4036.96         4142.51 
       0.067871          3827.9         3881.03 
      0.0738098          3545.6         3577.57 
      0.0800417         3197.92         3212.25 
      0.0862327         2817.18         2836.48 
      0.0921407         2503.62         2508.61 
      0.0982031         2258.56         2235.24 
       0.104506         2027.52         2030.32 
       0.110769         1899.66         1896.44 
       0.116806         1836.61         1809.86 
       0.122832         1740.26         1738.13 
       0.129052         1661.05         1656.09 
       0.135211         1583.94          1554.8 
       0.141259         1454.94         1437.57 
       0.147318         1323.76         1313.76 
       0.153489         1225.39         1195.71 
       0.159709         1152.01         1096.62 
       0.165845         1054.73          1023.1 
       0.171974         1031.16         971.509 
       0.178125         995.328         934.614 
       0.184229         936.651         903.812 
        0.19034         917.012         870.902 
       0.196428          882.96         831.546 
       0.202534         820.297         785.205 
       0.208729         794.654         734.461 
       0.214876         754.625         685.307 
       0.220989         701.579         641.948 
       0.227147         683.126         606.302 
        0.23329         657.304         578.875 
       0.239377         645.515         557.878 
       0.245482         615.305         540.145 
       0.251667         592.403         522.662 
       0.257832         585.457         503.613 
       0.263955          552.65         482.404 
       0.270079         531.556         459.554 
        0.27624         507.409         436.349 
       0.282372         493.785         414.667 
        0.28843         488.647         395.752 
       0.294538         464.138         379.645 
       0.300721         448.876         366.073 
        0.30691         442.023         354.371 
       0.313033          423.34         343.641 
       0.319153         416.438         332.878 
       0.325316         406.351         321.522 
        0.33145         395.936         309.658 
       0.337538         381.738         297.678 
       0.343633         369.763         285.986 
       0.349808         359.561         274.921 
       0.355968         351.951         264.994 
       0.362074          342.24         256.252 
       0.368217         338.046         248.418 
       0.374374         330.579         241.186 
       0.380519         317.342         234.255 
       0.386598         312.648         227.449 
       0.392688          304.93         220.538 
        0.39888         297.732         213.478 
       0.405048         291.972         206.534 
       0.411186          289.31         199.869 
       0.417313         283.713         193.617 
       0.423458         276.003         187.811 
       0.429607         269.521         182.437 
       0.435692         264.884         177.495 
       0.441815         259.727          172.78 
       0.447964         252.864         168.185 
       0.454126         249.105          163.66 
       0.460267         246.047         159.211 
       0.466387         241.038         154.835 
        0.47254         238.101         150.541 
       0.478662         231.095         146.434 
       0.484765         228.335          142.54 
       0.490885          224.99         138.836 
       0.497035         222.205         135.308 
       0.503198         219.444          131.95 
       0.509342         213.651         128.735 
       0.515458         211.103         125.627 
       0.521598         206.337         122.574 
       0.527764         204.142         119.578 
       0.533884         203.444         116.681 
           0.54          198.66         113.869 
       0.546137         194.239         111.139 
       0.552299         192.638           108.5 
       0.558452          189.28         105.973 
       0.564573          188.22         103.564 
       0.570708         183.812         101.239 
       0.576825         181.392         98.9954 
       0.582926         179.484         96.8179 
       0.589034          176.93         94.6932 
       0.595184         175.509          92.611 
       0.601379         171.788         90.5732 
       0.607522         168.802         88.6118 
       0.613639         167.585         86.7177 
       0.619772         165.641         84.8766 
       0.625918         164.354          83.089 
       0.632068         160.699         81.3568 
       0.638161         159.088         79.6946 
         0.6443         158.241         78.0703 
       0.650464         155.205          76.487 
       0.656582         154.449         74.9584 
       0.662703         152.826         73.4689 
       0.668861         149.772         72.0084 
       0.675024         149.798         70.5845 
       0.681124         147.383         69.2129 
       0.687237         145.318         67.8755 
       0.693381         144.251          66.569 
       0.699536         142.492         65.2971 
       0.705665         140.798         64.0661 
       0.711789         139.109         62.8695 
       0.717957         137.593         61.6962 
        0.72409          136.49         60.5597 
       0.730186         136.131         59.4585 
       0.736317         133.828         58.3781 
       0.742472         132.053           57.32 
       0.748622         130.107         56.2889 
        0.75476         130.355         55.2853 
       0.760888         129.112         54.3079 
       0.767043          126.83         53.3506 
       0.773185         125.489         52.4189 
       0.779291         124.093         51.5154 
       0.785407         123.052         50.6324 
       0.791564         122.423          49.765 
       0.797719         120.817         48.9187 
       0.803834         120.427         48.0979 
       0.809972         119.546         47.2932 
       0.816124         117.881         46.5053 
       0.822261           116.7         45.7377 
       0.828378         116.486         44.9899 
       0.834502         114.697         44.2582 
       0.840667         114.185         43.5383 
       0.846816         113.134         42.8367 
       0.852925         111.878          42.155 
       0.859047         111.255          41.487 
       0.865192         110.148         40.8314 
       0.871341         108.964         40.1897 
       0.877463         108.193         39.5648 
       0.883569         108.068          38.955 
       0.889708         107.076         38.3551 
       0.895864         106.113         37.7665 
       0.902008          105.11         37.1915 
       0.908149         103.797         36.6291 
       0.914301         103.779         36.0774 
       0.920448         103.299         35.5378 
       0.926574         101.328         35.0112 
       0.932687          101.25         34.4965 
       0.938823         100.456         33.9904 
       0.944975         99.3246         33.4934 
       0.951105         98.5464         33.0082 
       0.957225         98.4289         32.5336 
       0.963368         97.3016         32.0667 
       0.969511         96.6116         31.6092 
       0.975621         95.7659          31.163 
       0.981748         94.9999         30.7245 
       0.987916         94.4052         30.2917 
        0.99406         94.0435         29.8689 
        1.00019         92.9005         29.4551 
        1.00632         92.3478         29.0496 
        1.01246         91.7927         28.6512 
        1.01859         91.3937          28.261 
        1.02471         90.5815         27.8786 
        1.03085         89.7719          27.502 
        1.03698         89.2671         27.1333 
        1.04314         88.6099         26.7698 
        1.04929         88.2433         26.4139 
        1.05541         87.6032          26.066 
        1.06154         87.0817         25.7235 
        1.06769         86.3118         25.3867 
        1.07382         85.5621         25.0572 
        1.07993         85.3509         24.7343 
        1.08607         84.6411         24.4158 
        1.09222         84.3852         24.1026 
        1.09836         83.5225         23.7954 
        1.10449         83.1047         23.4939 
        1.11063         82.5253         23.1974 
        1.11677          82.068         22.9061 
         1.1229         81.3783         22.6204 
        1.12903         81.1246         22.3394 
        1.13518         80.7928          22.063 
        1.14131         80.0797         21.7914 
        1.14745         79.5689         21.5246 
        1.15359          78.671         21.2622 
        1.15973         78.6303         21.0042 
        1.16584         78.0711         20.7516 
        1.17197         77.4886         20.5029 
        1.17811         77.0324         20.2575 
        1.18424         76.2925         20.0168 
        1.19038          76.262         19.7794 
        1.19652          75.782          19.546 
        1.20267         75.2206         19.3164 
        1.20881         74.7801         19.0905 
        1.21495         74.3837         18.8687 
        1.22108         74.1219         18.6504 
         1.2272         73.3605         18.4361 
        1.23334          73.161         18.2247 
        1.23949         72.6723         18.0162 
        1.24562         72.1319         17.8115 
        1.25174         71.7412         17.6103 
        1.25789         71.6931         17.4116 
        1.26402          71.067         17.2164 
        1.27014         70.7851         17.0247 
        1.27628         70.1273         16.8354 
        1.28244         70.0065         16.6486 
        1.28858         69.5333         16.4649 
        1.29471         69.1381         16.2844 
        1.30084         68.4983         16.1068 
        1.30697         68.5808         15.9316 
        1.31312         67.9824         15.7587 
        1.31925         67.5142          15.589 
        1.32537         67.1957          15.422 
        1.33151          66.926         15.2569 
        1.33765         66.4983         15.0943 
        1.34378          66.207         14.9344 
        1.34992         65.8714         14.7767 
        1.35606         65.4043          14.621 
         1.3622         65.1595         14.4679 
        1.36833         64.7154         14.3173 
        1.37445         64.1701         14.1689 
        1.38059         64.1065         14.0222 
        1.38675         63.4351         13.8773 
        1.39288         63.4493         13.7349 
        1.39901         62.8714         13.5947 
        1.40515         62.6764         13.4561 
         1.4113         62.4814         13.3195 
        1.41742         62.0672         13.1854 
        1.42355         61.7398         13.0528 
         1.4297         61.4018         12.9217 
        1.43585         60.9996         12.7924 
        1.44198         60.6669         12.6654 
        1.44809         60.3218         12.5404 
        1.45423         60.0922         12.4167 
        1.46036         59.7324         12.2948 
        1.46649         59.5623         12.1745 
        1.47263         59.2035         12.0558 
        1.47877         58.9906         11.9387 
        1.48491         58.6668          11.823 
        1.49104         58.1831         11.7091 
        1.49718         57.9935         11.5966 
        1.50333         57.7163         11.4854 
        1.50947         57.4591         11.3759 
         1.5156         57.2168          11.268 
        1.52172         56.7988         11.1615 
        1.52787         56.4808         11.0562 
          1.534         56.2593         10.9524 
        1.54013         56.1347           10.85 
        1.54627         55.6033         10.7488 
        1.55241         55.3476         10.6488 
        1.55855         55.2226         10.5503 
        1.56467         54.7461         10.4533 
         1.5708         54.6956         10.3572 
        1.57695           54.36         10.2623 
        1.58308         54.0129         10.1687 
        1.58922         53.8076         10.0763 
        1.59535         53.6448         9.98499 
         1.6015         53.5594         9.89474 
        1.60764         53.1371         9.80566 
        1.61376         52.8306         9.71792 
        1.61989         52.4749         9.63119 
        1.62604         52.3002         9.54533 
        1.63218         52.0125         9.46058 
        1.63831         51.8875         9.37705 
        1.64444         51.6172         9.29451 
        1.65059         51.3575         9.21277 
        1.65673         51.0181         9.13211 
        1.66285          50.921         9.05265 
        1.66898         50.4567         8.97411 
        1.67512         50.3485         8.89636 
        1.68127         50.1193         8.81946 
         1.6874          49.841         8.74365 
        1.69353         49.6988         8.66877 
        1.69967         49.4882         8.59461 
        1.70581         49.1332         8.52135 
        1.71193         48.9428         8.44922 
        1.71806         48.7152         8.37778 
        1.72421         48.5313         8.30704 
        1.73035         48.2802         8.23719 
        1.73649         47.9591         8.16817 
        1.74262         47.6434         8.09999 
        1.74876         47.6469         8.03255 
        1.75489         47.2946         7.96603 
        1.76101         47.1066         7.90028 
        1.76715          47.046         7.83519 
        1.77329         46.5585         7.77075 
        1.77943         46.5818         7.70702 
        1.78557           46.35          7.6441 
        1.79171         46.0874         7.58188 
        1.79785         45.8722         7.52034 
        1.80399         45.6365          7.4595 
        1.81012         45.4868         7.39941 
        1.81625         45.1451         7.34002 
        1.82239         44.9773          7.2812 
        1.82853         44.8355         7.22306 
        1.83466         44.5821         7.16561 
        1.84078         44.3945         7.10884 
        1.84692         44.1574         7.05261 
        1.85306         43.9308         6.99691 
         1.8592         43.8158         6.94191 
        1.86533         43.5991         6.88754 
        1.87147         43.3842         6.83368 
        1.87761         43.1331         6.78039 
        1.88375         43.0062         6.72772 
        1.88988         42.8451         6.67567 
        1.89601         42.5793         6.62415 
        1.90215         42.3983         6.57313 
        1.90829         42.2148         6.52268 
        1.91442         41.9954         6.47276 
        1.92056         41.8322          6.4234 
         1.9267         41.7379         6.37452 
        1.93284         41.4546         6.32611 
        1.93897         41.3669          6.2783 
        1.94509         41.0414         6.23109 
        1.95123         40.9258         6.18425 
        1.95737           40.67         6.13786 
        1.96349         40.5995         6.09207 
        1.96964         40.3664         6.04662 
        1.97578         40.1739         6.00161 
        1.98192         39.9821         5.95715 
        1.98805          39.795         5.91314 
        1.99419         39.6611         5.86957 
        2.00033         39.4843         5.82643 
        2.00647         39.3775         5.78373 
         2.0126         39.1228         5.74154 
        2.01874         38.9452          5.6997 
        2.02488         38.7428         5.65824 
        2.03101         38.6077         5.61728 
        2.03714         38.4377         5.57676 
        2.04328         38.3121          5.5366 
        2.04941         38.0904         5.49687 
        2.05554         37.9608         5.45756 
        2.06167         37.7847         5.41858 
        2.06781         37.6009         5.37998 
        2.07396         37.4408          5.3417 
        2.08009         37.2921         5.30386 
        2.08622         37.1169         5.26643 
        2.09237         36.9597          5.2293 
        2.09851         36.7912         5.19251 
        2.10464         36.6103         5.15615 
        2.11077         36.5057         5.12017 
        2.11691         36.2508         5.08447 
        2.12305         36.0893          5.0491 
        2.12918         35.9848         5.01416 
        2.13531         35.8448         4.97954 
        2.14145         35.6887         4.94518 
         2.1476         35.5024          4.9111 
        2.15372         35.4245         4.87751 
        2.15985         35.1769         4.84421 
        2.16599         34.9995         4.81112 
        2.17213         34.8919         4.77838 
        2.17827         34.7316         4.74595 
         2.1844         34.5907         4.71385 
        2.19054         34.4495         4.68204 
        2.19666         34.2513         4.65057 
         2.2028         34.1461         4.61936 
        2.20893         34.0225         4.58843 
        2.21508         33.8876         4.55774 
        2.22122         33.7046         4.52733 
        2.22736         33.5059         4.49726 
        2.23349         33.4031         4.46747 
        2.23962         33.2791         4.43793 
        2.24577         33.1448         4.40864 
         2.2519         32.9586         4.37966 
        2.25802         32.8348         4.35098 
        2.26417         32.6663         4.32248 
        2.27031         32.5894         4.29421 
        2.27644         32.5022         4.26628 
        2.28257         32.2619          4.2386 
        2.28872         32.2129         4.21111 
        2.29486         32.0193         4.18387 
        2.30099         31.8312         4.15693 
        2.30712         31.7564         4.13022 
        2.31326         31.5976          4.1037 
         2.3194          31.457         4.07743 
        2.32553          31.352         4.05143 
        2.33166          31.218         4.02567 
         2.3378         31.0902          4.0001 
        2.34394         30.9426         3.97474 
        2.35007         30.8652         3.94964 
        2.35619         30.7325         3.92479 
        2.36233         30.5429          3.9001 
        2.36848         30.4359         3.87557 
        2.37462         30.3515          3.8513 
        2.38075         30.1649         3.82726 
        2.38689         30.0295         3.80341 
        2.39303         30.0042         3.77977 
        2.39916         29.7578         3.75635 
        2.40529          29.644         3.73314 
        2.41143         29.5488         3.71011 
        2.41757          29.427         3.68726 
         2.4237         29.3183         3.66464 
        2.42983         29.1727         3.64222 
        2.43598         29.0482         3.61993 
        2.44211          28.945         3.59786 
        2.44823          28.772         3.57603 
        2.45437         28.7679         3.55432 
        2.46052         28.5754         3.53277 
        2.46665         28.4414         3.51144 
        2.47279         28.2752         3.49029 
        2.47892         28.2123          3.4693 
        2.48507         28.1036         3.44847 
         2.4912         28.0174         3.42785 
