# k  (h/Mpc)    P(k)  (Mpc/h)^3    P_linear(k)  (Mpc/h)^3
     0.00783031           17112         17243.2 
       0.013688         20889.9         21534.2 
       0.019231         21757.5         22178.7 
      0.0249154         20883.5         20915.8 
      0.0312784         18192.4         18486.9 
      0.0375637         15571.2         15962.8 
      0.0433917         13785.9         13961.7 
      0.0492413         12159.1         12420.4 
      0.0555754         11073.2         11231.6 
      0.0619321         9892.97           10381 
       0.067871         9408.15          9728.9 
      0.0738098         8870.31         9086.02 
      0.0800417         8155.36         8349.14 
      0.0862327         7348.38         7553.15 
      0.0921407         6662.79         6783.11 
      0.0982031         6061.91         6049.14 
       0.104506         5372.02         5404.36 
       0.110769            4943         4909.69 
       0.116806         4694.83         4563.06 
       0.122832         4410.37         4313.76 
       0.129052         4175.51         4113.76 
       0.135211         4075.52         3929.53 
       0.141259         3797.67          3731.6 
       0.147318         3543.28         3504.38 
       0.153489         3343.31         3249.35 
       0.159709         3206.35         2987.39 
       0.165845         2922.35          2746.2 
       0.171974         2827.01         2539.37 
       0.178125         2726.19         2373.63 
       0.184229         2506.97         2248.47 
        0.19034         2475.82         2153.02 
       0.196428         2409.63         2074.56 
       0.202534         2277.44         1999.61 
       0.208729         2234.14         1917.67 
       0.214876            2138         1826.39 
       0.220989         2040.41         1727.39 
       0.227147         1980.76         1625.01 
        0.23329         1900.89         1527.19 
       0.239377         1889.85         1440.31 
       0.245482         1801.49         1366.43 
       0.251667         1735.99          1305.2 
       0.257832         1705.78         1255.29 
       0.263955         1634.41         1212.75 
       0.270079         1596.62          1172.9 
        0.27624         1531.61         1132.13 
       0.282372         1517.33          1089.1 
        0.28843         1486.29          1044.1 
       0.294538         1423.19         997.673 
       0.300721         1399.39         951.659 
        0.30691         1361.87         908.694 
       0.313033         1313.66          870.54 
       0.319153         1301.11         837.224 
       0.325316         1284.72         807.981 
        0.33145         1256.34         782.103 
       0.337538         1217.75         758.203 
       0.343633          1191.7         734.911 
       0.349808         1172.37         711.083 
       0.355968         1147.74         686.881 
       0.362074         1116.36         662.642 
       0.368217         1112.57         638.601 
       0.374374         1094.92         615.493 
       0.380519         1058.95         593.914 
       0.386598         1055.02         574.347 
       0.392688         1027.03         556.442 
        0.39888         1009.57         539.748 
       0.405048         989.197         524.219 
       0.411186         985.517         509.401 
       0.417313         980.874         494.937 
       0.423458         952.284         480.571 
       0.429607         928.191         466.288 
       0.435692         920.741         452.398 
       0.441815         902.568         438.819 
       0.447964         894.781         425.749 
       0.454126         882.394         413.372 
       0.460267          872.64         401.791 
       0.466387         857.381         390.927 
        0.47254         844.171         380.599 
       0.478662         833.355         370.786 
       0.484765         824.709         361.324 
       0.490885         815.607         352.054 
       0.497035         800.672          342.94 
       0.503198         800.082         334.013 
       0.509342         784.973         325.331 
       0.515458         769.694         316.963 
       0.521598         770.585         308.889 
       0.527764         751.845         301.137 
       0.533884         743.043         293.778 
           0.54         739.033         286.734 
       0.546137         729.427         279.948 
       0.552299         723.934         273.377 
       0.558452         715.849         267.017 
       0.564573         712.419         260.849 
       0.570708         703.864          254.82 
       0.576825         689.906         248.971 
       0.582926         688.412         243.307 
       0.589034         679.897          237.81 
       0.595184          671.84         232.454 
       0.601379         661.859         227.242 
       0.607522         653.002         222.255 
       0.613639         652.445         217.462 
       0.619772         646.456         212.814 
       0.625918         637.922         208.295 
       0.632068         634.238         203.898 
       0.638161         625.549         199.654 
         0.6443         619.226          195.49 
       0.650464         615.067         191.424 
       0.656582         610.255         187.501 
       0.662703         602.791         183.689 
       0.668861         596.071         179.965 
       0.675024         593.552         176.344 
       0.681124         581.472         172.863 
       0.687237           582.2         169.473 
       0.693381         572.542         166.162 
       0.699536         573.946         162.935 
       0.705665          564.97          159.81 
       0.711789         563.611         156.769 
       0.717957         556.475         153.785 
        0.72409         551.968         150.893 
       0.730186         550.334         148.091 
       0.736317         543.118         145.344 
       0.742472         536.795         142.657 
       0.748622         536.277          140.04 
        0.75476         528.073         137.497 
       0.760888          526.37         135.022 
       0.767043         523.659           132.6 
       0.773185         519.035         130.244 
       0.779291         513.715          127.96 
       0.785407         509.844         125.727 
       0.791564         507.333         123.534 
       0.797719         499.461         121.394 
       0.803834          500.05         119.318 
       0.809972         492.694         117.282 
       0.816124         489.584          115.29 
       0.822261         486.421         113.349 
       0.828378         484.688         111.459 
       0.834502         476.734         109.611 
       0.840667         475.304         107.793 
       0.846816         471.604         106.022 
       0.852925         470.679         104.302 
       0.859047          465.07         102.617 
       0.865192         462.655         100.964 
       0.871341         457.619         99.3464 
       0.877463         457.042          97.772 
       0.883569         452.455         96.2358 
       0.889708         447.236         94.7248 
       0.895864         442.831         93.2425 
       0.902008         442.289         91.7951 
       0.908149         437.864         90.3793 
       0.914301         436.321         88.9913 
       0.920448         430.967         87.6338 
       0.926574         428.968         86.3094 
       0.932687         427.598         85.0153 
       0.938823         422.689         83.7432 
       0.944975         420.959         82.4943 
       0.951105         417.909         81.2755 
       0.957225         412.569         80.0835 
       0.963368         412.726         78.9114 
       0.969511         407.761         77.7628 
       0.975621         405.061         76.6434 
       0.981748         403.298         75.5433 
       0.987916         400.613         74.4579 
        0.99406         396.581          73.398 
        1.00019         392.923         72.3609 
        1.00632         391.757         71.3448 
        1.01246         388.376         70.3469 
        1.01859         385.618         69.3697 
        1.02471         383.888         68.4123 
        1.03085         381.461         67.4698 
        1.03698         379.165         66.5471 
        1.04314         375.999         65.6378 
        1.04929         374.959         64.7477 
        1.05541         370.415         63.8777 
        1.06154          368.39         63.0217 
        1.06769         365.419           62.18 
        1.07382         362.214         61.3565 
        1.07993         362.243         60.5499 
        1.08607         359.924         59.7544 
        1.09222         356.288         58.9725 
        1.09836         354.292         58.2055 
        1.10449         351.362         57.4531 
        1.11063         350.297         56.7131 
        1.11677         346.417         55.9865 
         1.1229         345.056          55.274 
        1.12903         341.905         54.5732 
        1.13518         340.727          53.884 
        1.14131         338.495         53.2071 
        1.14745         335.321         52.5423 
        1.15359         332.589         51.8887 
        1.15973         331.115         51.2459 
        1.16584         329.536          50.617 
        1.17197         327.131         49.9977 
        1.17811         323.349         49.3869 
        1.18424         322.872         48.7881 
        1.19038         320.841         48.1976 
        1.19652          317.76          47.617 
        1.20267         316.254          47.046 
        1.20881         314.864         46.4846 
        1.21495         311.575         45.9332 
        1.22108          310.99         45.3908 
         1.2272         306.543         44.8585 
        1.23334         305.386         44.3336 
        1.23949         303.469         43.8158 
        1.24562         302.587         43.3077 
        1.25174         300.433         42.8085 
        1.25789         297.639         42.3156 
        1.26402         296.389         41.8314 
        1.27014         294.665          41.356 
        1.27628         292.657         40.8865 
        1.28244         289.824         40.4235 
        1.28858         288.864         39.9682 
        1.29471         287.246          39.521 
        1.30084         286.313         39.0811 
        1.30697         282.968         38.6472 
        1.31312         281.507         38.2192 
        1.31925          280.06         37.7991 
        1.32537         278.821         37.3857 
        1.33151         275.852         36.9771 
        1.33765         274.014         36.5747 
        1.34378         273.044         36.1792 
        1.34992          270.39         35.7892 
        1.35606         268.785         35.4041 
         1.3622         266.949         35.0254 
        1.36833         266.797         34.6532 
        1.37445           265.1         34.2865 
        1.38059         261.765          33.924 
        1.38675         260.552          33.566 
        1.39288         259.917         33.2145 
        1.39901          257.41         32.8682 
        1.40515         256.082          32.526 
         1.4113         254.271         32.1889 
        1.41742         252.437         31.8578 
        1.42355          251.26         31.5308 
         1.4297          249.68         31.2074 
        1.43585          247.71         30.8886 
        1.44198         246.459         30.5755 
        1.44809         245.063         30.2674 
        1.45423         243.591         29.9624 
        1.46036         242.843         29.6621 
        1.46649         240.666         29.3658 
        1.47263         238.635         29.0734 
        1.47877         237.657          28.785 
        1.48491         235.742         28.5001 
        1.49104         233.583         28.2197 
        1.49718         233.023         27.9429 
        1.50333         231.384         27.6693 
        1.50947         229.903         27.3999 
         1.5156         228.507         27.1345 
        1.52172         226.886         26.8727 
        1.52787          225.57         26.6138 
          1.534         224.995         26.3585 
        1.54013         222.924         26.1069 
        1.54627          221.65         25.8582 
        1.55241         220.703         25.6126 
        1.55855         218.973         25.3706 
        1.56467         217.575         25.1323 
         1.5708         216.174         24.8965 
        1.57695          215.49         24.6633 
        1.58308         214.228         24.4336 
        1.58922         212.373         24.2068 
        1.59535         210.946         23.9828 
         1.6015         209.987         23.7614 
        1.60764         208.539         23.5429 
        1.61376         207.073         23.3278 
        1.61989         205.804         23.1151 
        1.62604         204.727         22.9046 
        1.63218         203.118         22.6969 
        1.63831         202.327         22.4923 
        1.64444          200.78           22.29 
        1.65059         199.904         22.0898 
        1.65673         198.604         21.8923 
        1.66285         197.211         21.6977 
        1.66898         196.077         21.5054 
        1.67512         194.933         21.3151 
        1.68127         193.715         21.1269 
         1.6874         192.395         20.9414 
        1.69353         191.846         20.7582 
        1.69967         190.223         20.5768 
        1.70581         189.186         20.3976 
        1.71193         187.928         20.2213 
        1.71806         186.535         20.0466 
        1.72421         185.783         19.8737 
        1.73035         184.373          19.703 
        1.73649         183.027         19.5343 
        1.74262          182.36         19.3678 
        1.74876             181          19.203 
        1.75489         180.487         19.0406 
        1.76101         179.352           18.88 
        1.76715         178.121         18.7211 
        1.77329         176.754         18.5638 
        1.77943         175.664         18.4083 
        1.78557         174.686         18.2548 
        1.79171         174.021          18.103 
        1.79785         172.555         17.9528 
        1.80399         171.667         17.8045 
        1.81012         171.096          17.658 
        1.81625         169.322         17.5132 
        1.82239         168.876         17.3698 
        1.82853         167.771         17.2281 
        1.83466         166.433         17.0881 
        1.84078         165.765         16.9498 
        1.84692         164.986         16.8128 
        1.85306         163.735         16.6771 
         1.8592         162.985         16.5432 
        1.86533         161.473         16.4108 
        1.87147         160.699         16.2797 
        1.87761         159.848           16.15 
        1.88375         158.758         16.0218 
        1.88988          158.06         15.8952 
        1.89601         157.367         15.7698 
        1.90215         156.442         15.6457 
        1.90829         154.906          15.523 
        1.91442         154.244         15.4017 
        1.92056         153.441         15.2817 
         1.9267         152.417         15.1628 
        1.93284         151.181         15.0452 
        1.93897         150.661          14.929 
        1.94509           149.9         14.8143 
        1.95123         149.029         14.7005 
        1.95737         148.437         14.5879 
        1.96349         147.213         14.4766 
        1.96964         146.291         14.3663 
        1.97578         145.515          14.257 
        1.98192          144.95         14.1491 
        1.98805         143.919         14.0423 
        1.99419         143.052         13.9366 
        2.00033         142.281         13.8319 
        2.00647         141.065         13.7283 
         2.0126         140.538          13.626 
        2.01874         139.651         13.5245 
        2.02488         138.953          13.424 
        2.03101          138.28         13.3247 
        2.03714          137.79         13.2265 
        2.04328         136.476         13.1292 
        2.04941         135.878         13.0329 
        2.05554         135.076         12.9376 
        2.06167         134.434         12.8432 
        2.06781         133.715         12.7497 
        2.07396         132.662          12.657 
        2.08009         132.235         12.5654 
        2.08622         131.427         12.4748 
        2.09237         130.279         12.3849 
        2.09851         129.845         12.2959 
        2.10464         129.242         12.2078 
        2.11077         128.576         12.1208 
        2.11691         127.737         12.0344 
        2.12305         126.862         11.9489 
        2.12918         126.285         11.8644 
        2.13531         125.327         11.7807 
        2.14145         124.767         11.6976 
         2.1476         123.883         11.6152 
        2.15372          123.32          11.534 
        2.15985         122.711         11.4535 
        2.16599         121.872         11.3736 
        2.17213         121.148         11.2945 
        2.17827          120.65         11.2161 
         2.1844         119.738         11.1386 
        2.19054         119.205         11.0618 
        2.19666         118.493         10.9858 
         2.2028         117.948         10.9105 
        2.20893         117.317         10.8358 
        2.21508         116.473         10.7617 
        2.22122          115.67         10.6883 
        2.22736         115.437         10.6158 
        2.23349         114.776         10.5439 
        2.23962         114.112         10.4727 
        2.24577         113.213          10.402 
         2.2519         112.525         10.3321 
        2.25802         112.197          10.263 
        2.26417         111.493         10.1943 
        2.27031         110.882         10.1261 
        2.27644         110.205         10.0588 
        2.28257         109.869          9.9921 
        2.28872         109.124         9.92587 
        2.29486         108.487         9.86026 
        2.30099          107.61         9.79537 
        2.30712         107.303         9.73103 
        2.31326         106.519         9.66717 
         2.3194         106.063         9.60391 
        2.32553         105.493         9.54132 
        2.33166         105.057         9.47932 
         2.3378         104.324         9.41778 
        2.34394         103.752         9.35676 
        2.35007         103.092         9.29638 
        2.35619         102.601         9.23659 
        2.36233         102.268         9.17719 
        2.36848         101.633         9.11819 
        2.37462         101.179         9.05983 
        2.38075         100.523         9.00204 
        2.38689          100.04          8.9447 
        2.39303         99.5373         8.88786 
        2.39916         98.9617         8.83158 
        2.40529         98.2865         8.77579 
        2.41143         97.7906         8.72045 
        2.41757         97.1569         8.66555 
         2.4237         96.7016         8.61122 
        2.42983         96.2578         8.55737 
        2.43598         95.5847         8.50383 
        2.44211         95.1091         8.45084 
        2.44823         94.7163         8.39842 
        2.45437         94.3117          8.3463 
        2.46052         93.6178         8.29457 
        2.46665         93.2023         8.24338 
        2.47279         92.6217         8.19263 
        2.47892         92.2452         8.14227 
        2.48507          91.786         8.09229 
         2.4912         91.1713         8.04283 
