# k  (h/Mpc)    Pcb(k)  (Mpc/h)^3    Pcb_linear(k)  (Mpc/h)^3
     0.00783031         5413.53         5443.36 
       0.013688         6689.36         6805.51 
       0.019231         6950.72         7013.88 
      0.0249154         6626.08         6617.32 
      0.0312784         5821.08         5850.69 
      0.0375637         5004.63         5052.94 
      0.0433917         4414.34          4420.1 
      0.0492413         3905.46         3932.55 
      0.0555754         3556.62         3556.44 
      0.0619321         3218.04         3287.33 
       0.067871          3050.6         3080.99 
      0.0738098         2859.18         2877.51 
      0.0800417         2635.14         2644.23 
      0.0862327         2373.75         2392.21 
      0.0921407         2137.44         2148.37 
      0.0982031         1926.41         1915.94 
       0.104506         1705.18         1711.75 
       0.110769         1557.79          1555.1 
       0.116806         1470.94         1445.32 
       0.122832         1376.69         1366.37 
       0.129052         1316.63         1303.03 
       0.135211         1270.73         1244.69 
       0.141259         1194.05         1182.01 
       0.147318         1109.86         1110.04 
       0.153489          1039.7         1029.26 
       0.159709         975.334         946.291 
       0.165845         883.688         869.894 
       0.171974         846.332         804.385 
       0.178125         799.199         751.887 
       0.184229         744.394         712.244 
        0.19034         725.194          682.01 
       0.196428         701.223         657.158 
       0.202534         660.351         633.416 
       0.208729         647.206          607.46 
       0.214876         621.736         578.549 
       0.220989         579.517         547.189 
       0.227147         562.212          514.76 
        0.23329         536.288         483.774 
       0.239377          518.95         456.257 
       0.245482         490.325         432.851 
       0.251667         469.005         413.456 
       0.257832         462.713         397.646 
       0.263955         438.326         384.172 
       0.270079         423.751         371.547 
        0.27624         406.641         358.633 
       0.282372         396.131             345 
        0.28843         392.197         330.747 
       0.294538         372.329         316.042 
       0.300721         357.451         301.465 
        0.30691         350.619         287.855 
       0.313033         334.777         275.771 
       0.319153         328.345         265.216 
       0.325316         318.978         255.952 
        0.33145         310.523         247.754 
       0.337538         300.232         240.184 
       0.343633         291.186         232.804 
       0.349808         283.031         225.257 
       0.355968         276.509         217.591 
       0.362074         269.533         209.913 
       0.368217         264.885         202.297 
       0.374374         258.382         194.977 
       0.380519         247.491         188.141 
       0.386598         243.106         181.943 
       0.392688         236.773         176.271 
        0.39888         231.608         170.982 
       0.405048         226.974         166.063 
       0.411186         224.068         161.369 
       0.417313         219.097         156.788 
       0.423458         213.422         152.236 
       0.429607         208.743         147.712 
       0.435692         204.991         143.312 
       0.441815         200.174          139.01 
       0.447964         194.487          134.87 
       0.454126         191.132         130.949 
       0.460267         189.168         127.281 
       0.466387           185.1         123.839 
        0.47254         182.914         120.567 
       0.478662         177.018         117.459 
       0.484765         174.702         114.461 
       0.490885         171.534         111.525 
       0.497035         169.898         108.638 
       0.503198         166.808          105.81 
       0.509342          162.42          103.06 
       0.515458         160.553         100.409 
       0.521598         156.701         97.8513 
       0.527764         155.019         95.3954 
       0.533884          154.26         93.0641 
           0.54         150.222         90.8328 
       0.546137         146.851         88.6831 
       0.552299         145.133         86.6016 
       0.558452         142.517         84.5867 
       0.564573         141.855         82.6329 
       0.570708          138.06         80.7231 
       0.576825         136.477         78.8703 
       0.582926         134.979         77.0759 
       0.589034         132.875         75.3346 
       0.595184         131.494         73.6378 
       0.601379         128.426         71.9869 
       0.607522         126.369          70.407 
       0.613639         125.328         68.8887 
       0.619772          123.47         67.4162 
       0.625918         122.441         65.9847 
       0.632068         119.986         64.5917 
       0.638161          118.31         63.2473 
         0.6443         117.696         61.9282 
       0.650464         115.383         60.6401 
       0.656582         114.882         59.3975 
       0.662703         113.454         58.1899 
       0.668861         111.034         57.0101 
       0.675024         111.029         55.8632 
       0.681124         109.203         54.7606 
       0.687237         107.254         53.6866 
       0.693381         106.646         52.6376 
       0.699536         105.316         51.6155 
       0.705665         103.834         50.6254 
       0.711789         102.523         49.6621 
       0.717957         101.335         48.7169 
        0.72409         100.587         47.8008 
       0.730186         99.9745         46.9132 
       0.736317         98.1695          46.043 
       0.742472         97.0112         45.1916 
       0.748622         95.5766         44.3627 
        0.75476         95.2228         43.5569 
       0.760888         94.6255          42.773 
       0.767043         92.8388         42.0059 
       0.773185         91.7746         41.2595 
       0.779291         90.7607         40.5359 
       0.785407         89.6941         39.8286 
       0.791564         89.5621         39.1339 
       0.797719         88.3952         38.4559 
       0.803834          87.665         37.7981 
       0.809972         87.0189         37.1534 
       0.816124         85.9774         36.5222 
       0.822261         84.8767         35.9074 
       0.828378         84.6748         35.3086 
       0.834502         83.3974         34.7231 
       0.840667         82.9244         34.1472 
       0.846816         82.1123         33.5861 
       0.852925          81.223         33.0413 
       0.859047         80.9571         32.5075 
       0.865192          79.758         31.9839 
       0.871341         78.8904         31.4715 
       0.877463         78.4018         30.9728 
       0.883569         78.1817         30.4861 
       0.889708         77.4399         30.0075 
       0.895864         76.7414         29.5379 
       0.902008         76.0157         29.0794 
       0.908149         75.1265         28.6309 
       0.914301         74.8445         28.1912 
       0.920448         74.5245         27.7611 
       0.926574         73.0851         27.3416 
       0.932687         72.8297         26.9317 
       0.938823         72.2287         26.5287 
       0.944975         71.3965          26.133 
       0.951105         70.8564         25.7469 
       0.957225         70.6965         25.3693 
       0.963368         69.9731          24.998 
       0.969511         69.3714         24.6342 
       0.975621         68.8783         24.2796 
       0.981748         68.1916          23.931 
       0.987916         67.7199         23.5872 
        0.99406         67.3468         23.2514 
        1.00019         66.6008         22.9229 
        1.00632         66.1596          22.601 
        1.01246         65.7067         22.2849 
        1.01859         65.4208         21.9753 
        1.02471         64.6625         21.6721 
        1.03085         64.2727         21.3735 
        1.03698         63.8813         21.0812 
        1.04314          63.416         20.7932 
        1.04929         62.8891         20.5112 
        1.05541         62.5493         20.2356 
        1.06154         62.1917         19.9644 
        1.06769         61.4256         19.6978 
        1.07382         61.0773         19.4369 
        1.07993         60.8064         19.1814 
        1.08607         60.3182         18.9294 
        1.09222         60.0825         18.6817 
        1.09836         59.5408         18.4387 
        1.10449         59.2171         18.2003 
        1.11063         58.7076         17.9659 
        1.11677         58.5609         17.7358 
         1.1229         57.9425           17.51 
        1.12903         57.7625          17.288 
        1.13518         57.5901         17.0697 
        1.14131         56.9504         16.8553 
        1.14745         56.4768         16.6447 
        1.15359         55.9387         16.4376 
        1.15973         55.8891          16.234 
        1.16584         55.4794         16.0348 
        1.17197         54.8666         15.8386 
        1.17811         54.6844         15.6451 
        1.18424         53.9952         15.4554 
        1.19038         53.9412         15.2683 
        1.19652          53.697         15.0844 
        1.20267         53.3183         14.9035 
        1.20881         52.9497         14.7257 
        1.21495         52.7401          14.551 
        1.22108         52.5411         14.3792 
         1.2272         52.0406         14.2106 
        1.23334         51.7637         14.0443 
        1.23949         51.4559         13.8802 
        1.24562         51.0674         13.7193 
        1.25174         50.7579         13.5611 
        1.25789         50.7456          13.405 
        1.26402         50.2993         13.2516 
        1.27014         50.0692          13.101 
        1.27628         49.5742         12.9523 
        1.28244         49.4923         12.8056 
        1.28858         49.1273         12.6614 
        1.29471         48.8684         12.5197 
        1.30084          48.461         12.3804 
        1.30697         48.4248         12.2429 
        1.31312         47.9657         12.1073 
        1.31925         47.6095         11.9742 
        1.32537         47.4193         11.8433 
        1.33151         47.1267         11.7138 
        1.33765         46.9446         11.5864 
        1.34378         46.7427         11.4611 
        1.34992           46.39         11.3375 
        1.35606         46.1044         11.2156 
         1.3622         45.8598         11.0956 
        1.36833         45.6375         10.9777 
        1.37445         45.2363         10.8615 
        1.38059         45.1628         10.7467 
        1.38675         44.6901         10.6332 
        1.39288         44.6869         10.5219 
        1.39901         44.3336         10.4122 
        1.40515         44.1444         10.3038 
         1.4113         44.1124          10.197 
        1.41742         43.7901         10.0921 
        1.42355         43.4131         9.98853 
         1.4297           43.22         9.88608 
        1.43585         42.9384          9.7851 
        1.44198         42.7077         9.68592 
        1.44809         42.4761          9.5883 
        1.45423         42.3412         9.49167 
        1.46036         42.1462         9.39655 
        1.46649         41.9291         9.30269 
        1.47263         41.6399         9.21005 
        1.47877         41.4979          9.1187 
        1.48491          41.329         9.02846 
        1.49104         40.9861         8.93963 
        1.49718         40.8682         8.85192 
        1.50333         40.7208         8.76526 
        1.50947         40.4147         8.67993 
         1.5156         40.2526         8.59586 
        1.52172         39.9501         8.51291 
        1.52787         39.8153         8.43088 
          1.534         39.5902         8.35004 
        1.54013          39.531         8.27033 
        1.54627         39.1471         8.19153 
        1.55241         38.9838         8.11373 
        1.55855         38.9097         8.03706 
        1.56467         38.6792         7.96159 
         1.5708         38.5223         7.88687 
        1.57695         38.3109         7.81301 
        1.58308          37.998         7.74025 
        1.58922         37.8427         7.66838 
        1.59535         37.7201         7.59744 
         1.6015         37.6377          7.5273 
        1.60764         37.3965         7.45808 
        1.61376         37.1607         7.38992 
        1.61989         36.9321         7.32256 
        1.62604         36.7941         7.25589 
        1.63218         36.6117         7.19008 
        1.63831           36.51         7.12525 
        1.64444         36.2938         7.06119 
        1.65059         36.1174         6.99776 
        1.65673         35.9413         6.93518 
        1.66285         35.8729         6.87354 
        1.66898         35.5516         6.81263 
        1.67512         35.5051         6.75233 
        1.68127         35.3018         6.69271 
         1.6874         35.1112         6.63395 
        1.69353         35.0405         6.57592 
        1.69967         34.8782         6.51845 
        1.70581         34.5741          6.4617 
        1.71193         34.4212         6.40583 
        1.71806         34.3414          6.3505 
        1.72421         34.1945         6.29572 
        1.73035         33.9988         6.24164 
        1.73649         33.7693         6.18821 
        1.74262         33.5744         6.13545 
        1.74876         33.5138         6.08327 
        1.75489         33.3365         6.03181 
        1.76101         33.2252         5.98095 
        1.76715         33.1071         5.93061 
        1.77329         32.8402         5.88078 
        1.77943         32.8027         5.83151 
        1.78557         32.6426         5.78287 
        1.79171         32.5089         5.73478 
        1.79785         32.3403         5.68723 
        1.80399         32.2018         5.64022 
        1.81012         32.1029         5.59381 
        1.81625         31.8232         5.54794 
        1.82239         31.7331         5.50251 
        1.82853         31.6034         5.45762 
        1.83466         31.4485         5.41327 
        1.84078         31.2929         5.36946 
        1.84692          31.194         5.32606 
        1.85306         30.9824         5.28309 
         1.8592         30.9453         5.24066 
        1.86533         30.7541         5.19872 
        1.87147         30.6129         5.15719 
        1.87761         30.4525          5.1161 
        1.88375         30.4171          5.0755 
        1.88988         30.2142         5.03538 
        1.89601          30.038         4.99568 
        1.90215         29.9574         4.95637 
        1.90829         29.8558          4.9175 
        1.91442         29.6499         4.87904 
        1.92056         29.5624         4.84103 
         1.9267         29.4699         4.80339 
        1.93284         29.3287         4.76612 
        1.93897         29.2201         4.72932 
        1.94509         29.0841         4.69298 
        1.95123         28.9678         4.65694 
        1.95737         28.8102         4.62124 
        1.96349         28.7031         4.58601 
        1.96964         28.6794         4.55105 
        1.97578         28.4018         4.51644 
        1.98192         28.3241         4.48225 
        1.98805         28.1243         4.44842 
        1.99419         28.1025         4.41493 
        2.00033         27.9334         4.38177 
        2.00647         27.8773         4.34896 
         2.0126          27.701         4.31654 
        2.01874         27.5819          4.2844 
        2.02488         27.4486         4.25255 
        2.03101         27.3008         4.22109 
        2.03714         27.2377         4.18998 
        2.04328         27.1243         4.15915 
        2.04941         26.9929         4.12865 
        2.05554          26.926         4.09848 
        2.06167         26.7587         4.06856 
        2.06781          26.696         4.03894 
        2.07396         26.6035         4.00958 
        2.08009         26.4413         3.98055 
        2.08622         26.3348         3.95185 
        2.09237         26.2826         3.92337 
        2.09851         26.0703         3.89517 
        2.10464         25.9525         3.86729 
        2.11077         25.9535         3.83971 
        2.11691         25.7857         3.81235 
        2.12305         25.6881         3.78525 
        2.12918         25.5868         3.75848 
        2.13531          25.492         3.73196 
        2.14145         25.3638         3.70564 
         2.1476         25.2145         3.67954 
        2.15372         25.1548         3.65382 
        2.15985         25.0537         3.62833 
        2.16599         24.9136           3.603 
        2.17213         24.8665         3.57794 
        2.17827         24.7037         3.55312 
         2.1844         24.6425         3.52857 
        2.19054         24.5828         3.50423 
        2.19666         24.4202         3.48016 
         2.2028         24.3853         3.45629 
        2.20893         24.2207         3.43264 
        2.21508         24.1402         3.40918 
        2.22122         24.0182         3.38593 
        2.22736         23.9742         3.36294 
        2.23349         23.8056         3.34017 
        2.23962         23.7671         3.31761 
        2.24577         23.6416         3.29523 
         2.2519         23.5768         3.27308 
        2.25802         23.4094         3.25118 
        2.26417         23.3339         3.22941 
        2.27031         23.2763         3.20783 
        2.27644         23.2277          3.1865 
        2.28257         23.0924         3.16537 
        2.28872         23.0383         3.14439 
        2.29486         22.9098          3.1236 
        2.30099          22.783         3.10305 
        2.30712         22.7296         3.08267 
        2.31326         22.6013         3.06243 
         2.3194         22.5311          3.0424 
        2.32553         22.4656         3.02257 
        2.33166         22.3278         3.00293 
         2.3378         22.2982         2.98343 
        2.34394         22.1707          2.9641 
        2.35007         22.1108         2.94497 
        2.35619         22.0334         2.92603 
        2.36233         21.8909         2.90722 
        2.36848         21.8004         2.88853 
        2.37462         21.7537         2.87004 
        2.38075         21.6525         2.85173 
        2.38689         21.5386         2.83357 
        2.39303         21.4997         2.81556 
        2.39916         21.3661         2.79773 
        2.40529         21.2948         2.78006 
        2.41143         21.2141         2.76253 
        2.41757         21.0892         2.74514 
         2.4237         21.0361         2.72793 
        2.42983         20.9685         2.71087 
        2.43598         20.8562         2.69391 
        2.44211         20.8001         2.67712 
        2.44823          20.715         2.66051 
        2.45437         20.6735           2.644 
        2.46052         20.5416         2.62761 
        2.46665         20.5176          2.6114 
        2.47279         20.3688         2.59532 
        2.47892         20.3062         2.57937 
        2.48507         20.2425         2.56354 
         2.4912          20.161         2.54787 
