# k  (h/Mpc)    P(k)  (Mpc/h)^3    P_linear(k)  (Mpc/h)^3
     0.00783031          789.61         798.847 
       0.013688          939.57         942.412 
       0.019231         919.198         919.639 
      0.0249154         817.484         821.137 
      0.0312784          686.18         686.075 
      0.0375637         568.925         567.137 
      0.0433917         484.053         483.949 
      0.0492413         427.462         426.485 
      0.0555754         384.765         385.836 
      0.0619321         358.437          356.83 
       0.067871         331.107         331.894 
      0.0738098          303.51         304.294 
      0.0800417         270.489         271.665 
      0.0862327         238.013         238.074 
      0.0921407         208.856         208.439 
      0.0982031         183.351         183.292 
       0.104506         165.271         163.999 
       0.110769         152.144         151.124 
       0.116806         143.096         142.887 
       0.122832         137.211         136.589 
       0.129052         129.994         130.074 
       0.135211          122.27         122.353 
       0.141259         113.787         113.337 
       0.147318         104.401          103.53 
       0.153489         94.4495         93.8062 
       0.159709         86.0564         85.2659 
       0.165845         79.9447         78.6157 
       0.171974         74.4884         73.7531 
       0.178125         71.1373         70.2708 
       0.184229         68.5285         67.5985 
        0.19034         65.4521         65.0941 
       0.196428         63.0426         62.3264 
       0.202534         60.2221         59.1007 
       0.208729         56.3441         55.4629 
       0.214876         52.4839          51.764 
       0.220989         49.4086         48.3091 
       0.227147         46.0799         45.2913 
        0.23329          43.643         42.8386 
       0.239377         41.8423         40.9144 
       0.245482         39.9799         39.3502 
       0.251667         38.9007         37.9538 
       0.257832         37.4359         36.5803 
       0.263955         36.0199         35.1331 
       0.270079         34.4647         33.5788 
        0.27624         33.0636         31.9529 
       0.282372         31.4903         30.3581 
        0.28843         29.8821         28.8855 
       0.294538         28.5563         27.5628 
       0.300721         27.5789         26.4046 
        0.30691         26.3782         25.4071 
       0.313033         25.5187         24.5327 
       0.319153         24.4539          23.718 
       0.325316         23.9622         22.9115 
        0.33145         23.0766         22.0994 
       0.337538         22.2761         21.2797 
       0.343633         21.3799         20.4614 
       0.349808         20.6601         19.6566 
       0.355968         19.9132         18.9016 
       0.362074          19.188         18.2128 
       0.368217          18.571         17.5833 
       0.374374         17.9211         17.0079 
       0.380519          17.448         16.4747 
       0.386598         16.9718         15.9736 
       0.392688         16.5342         15.4848 
        0.39888         15.9979          14.995 
       0.405048         15.5397         14.5142 
       0.411186         15.0876         14.0455 
       0.417313         14.5698         13.5941 
       0.423458          14.162         13.1636 
       0.429607         13.7199         12.7572 
       0.435692         13.3141         12.3802 
       0.441815         12.9789         12.0233 
       0.447964         12.7075         11.6829 
       0.454126         12.2696         11.3559 
       0.460267          11.988         11.0407 
       0.466387         11.6143         10.7348 
        0.47254         11.3673         10.4348 
       0.478662         11.1132         10.1453 
       0.484765         10.7671         9.86667 
       0.490885         10.4984         9.59819 
       0.497035         10.3321         9.34003 
       0.503198         10.0332         9.09343 
       0.509342         9.78717          8.8584 
       0.515458         9.54382         8.63372 
       0.521598         9.33846         8.41616 
       0.527764         9.09302         8.20486 
       0.533884         8.93302          8.0016 
           0.54         8.71235         7.80437 
       0.546137         8.53108         7.61229 
       0.552299         8.35253         7.42565 
       0.558452         8.10826         7.24585 
       0.564573         7.97182         7.07347 
       0.570708         7.80014         6.90683 
       0.576825         7.59977         6.74648 
       0.582926         7.46085         6.59194 
       0.589034         7.25274         6.44223 
       0.595184         7.12892         6.29621 
       0.601379         6.96742          6.1536 
       0.607522         6.85921         6.01628 
       0.613639         6.75179         5.88348 
       0.619772         6.56268         5.75428 
       0.625918         6.48013         5.62875 
       0.632068         6.37148         5.50706 
       0.638161         6.21369         5.39025 
         0.6443         6.08537         5.27615 
       0.650464         5.95243         5.16502 
       0.656582         5.88423         5.05791 
       0.662703          5.7695         4.95378 
       0.668861         5.66937         4.85197 
       0.675024         5.54733         4.75292 
       0.681124          5.4404         4.65764 
       0.687237         5.35881          4.5648 
       0.693381          5.2688         4.47408 
       0.699536         5.12753          4.3857 
       0.705665         5.05728         4.30011 
       0.711789         4.97358          4.2169 
       0.717957         4.88025         4.13535 
        0.72409         4.79495         4.05643 
       0.730186         4.71707         3.98006 
       0.736317         4.66732         3.90526 
       0.742472         4.58706         3.83213 
       0.748622         4.49814         3.76095 
        0.75476         4.40777         3.69174 
       0.760888         4.34188          3.6244 
       0.767043         4.28944         3.55848 
       0.773185         4.19846         3.49435 
       0.779291         4.15161         3.43218 
       0.785407         4.07933         3.37144 
       0.791564         4.01983          3.3118 
       0.797719         3.95519         3.25365 
       0.803834         3.91045         3.19726 
       0.809972         3.85374         3.14202 
       0.816124         3.77798         3.08797 
       0.822261          3.7091         3.03535 
       0.828378         3.66272         2.98412 
       0.834502         3.62823         2.93404 
       0.840667         3.54904         2.88479 
       0.846816         3.49363         2.83681 
       0.852925           3.463         2.79024 
       0.859047         3.41167         2.74462 
       0.865192         3.36633         2.69988 
       0.871341         3.32479         2.65611 
       0.877463         3.27712         2.61351 
       0.883569         3.21721         2.57196 
       0.889708         3.16924         2.53111 
       0.895864         3.12917         2.49104 
       0.902008         3.08291         2.45193 
       0.908149         3.04999         2.41369 
       0.914301         2.99262          2.3762 
       0.920448         2.95556         2.33955 
       0.926574         2.91272          2.3038 
       0.932687         2.87801         2.26888 
       0.938823         2.84668         2.23456 
       0.944975         2.80732         2.20088 
       0.951105         2.77457         2.16801 
       0.957225         2.75461         2.13588 
       0.963368         2.71253         2.10429 
       0.969511         2.67162         2.07335 
       0.975621         2.63193         2.04319 
       0.981748         2.60762         2.01356 
       0.987916         2.57242         1.98434 
        0.99406         2.52959         1.95581 
        1.00019          2.5055          1.9279 
        1.00632         2.47541         1.90056 
        1.01246         2.44649         1.87372 
        1.01859         2.41692         1.84744 
        1.02471         2.38531          1.8217 
        1.03085         2.35884         1.79636 
        1.03698         2.32639         1.77156 
        1.04314         2.30478         1.74713 
        1.04929          2.2744         1.72321 
        1.05541         2.24891         1.69984 
        1.06154         2.22311         1.67685 
        1.06769         2.20313         1.65426 
        1.07382         2.17081         1.63215 
        1.07993         2.14072          1.6105 
        1.08607         2.12943         1.58916 
        1.09222         2.09923         1.56818 
        1.09836         2.08218         1.54761 
        1.10449         2.05807         1.52743 
        1.11063         2.02889         1.50758 
        1.11677         2.00805          1.4881 
         1.1229         1.98688           1.469 
        1.12903         1.96247         1.45022 
        1.13518         1.94591         1.43175 
        1.14131         1.91809         1.41362 
        1.14745         1.88814          1.3958 
        1.15359         1.87833          1.3783 
        1.15973          1.8501         1.36109 
        1.16584         1.84142         1.34425 
        1.17197         1.81971         1.32767 
        1.17811         1.80342         1.31132 
        1.18424         1.78684          1.2953 
        1.19038         1.76545         1.27949 
        1.19652         1.74599         1.26396 
        1.20267         1.73222         1.24869 
        1.20881         1.70977         1.23367 
        1.21495         1.69614         1.21893 
        1.22108         1.67937         1.20443 
         1.2272         1.66715          1.1902 
        1.23334           1.645         1.17616 
        1.23949         1.62676         1.16233 
        1.24562         1.61564         1.14875 
        1.25174         1.59681         1.13541 
        1.25789         1.58289         1.12224 
        1.26402          1.5629         1.10931 
        1.27014         1.54861         1.09661 
        1.27628         1.54134         1.08408 
        1.28244         1.51875         1.07171 
        1.28858         1.50724         1.05956 
        1.29471         1.49149         1.04762 
        1.30084         1.47561         1.03588 
        1.30697         1.46637          1.0243 
        1.31312         1.44395         1.01288 
        1.31925         1.43673         1.00168 
        1.32537          1.4231         0.99065 
        1.33151         1.41216         0.97975 
        1.33765         1.39528        0.969021 
        1.34378         1.38171        0.958475 
        1.34992         1.37468        0.948078 
        1.35606          1.3554        0.937813 
         1.3622          1.3483        0.927718 
        1.36833         1.33466        0.917797 
        1.37445         1.31983        0.908025 
        1.38059           1.311        0.898366 
        1.38675         1.30558        0.888825 
        1.39288         1.28822         0.87946 
        1.39901         1.27596        0.870234 
        1.40515         1.26622         0.86112 
         1.4113         1.25529        0.852141 
        1.41742         1.24424        0.843324 
        1.42355         1.23895        0.834616 
         1.4297         1.22221        0.826004 
        1.43585         1.21401        0.817518 
        1.44198         1.20768        0.809184 
        1.44809         1.19174        0.800982 
        1.45423          1.1827        0.792863 
        1.46036         1.17264        0.784872 
        1.46649         1.16311        0.776989 
        1.47263         1.15281        0.769208 
        1.47877         1.14157        0.761537 
        1.48491         1.13279        0.753959 
        1.49104         1.12431          0.7465 
        1.49718         1.11757        0.739137 
        1.50333         1.10556        0.731861 
        1.50947         1.09928        0.724699 
         1.5156         1.08879        0.717643 
        1.52172         1.07983        0.710682 
        1.52787         1.06999        0.703799 
          1.534         1.06357        0.697016 
        1.54013         1.05291        0.690329 
        1.54627         1.04397        0.683718 
        1.55241          1.0353        0.677193 
        1.55855         1.02857        0.670762 
        1.56467         1.02238        0.664432 
         1.5708          1.0104        0.658167 
        1.57695         1.00612        0.651972 
        1.58308        0.998256        0.645872 
        1.58922        0.989796        0.639845 
        1.59535        0.982485        0.633898 
         1.6015        0.974764        0.628018 
        1.60764        0.968886        0.622215 
        1.61376        0.960485        0.616502 
        1.61989        0.953363        0.610856 
        1.62604        0.944765        0.605268 
        1.63218        0.941324        0.599753 
        1.63831        0.931279         0.59432 
        1.64444        0.924178        0.588952 
        1.65059        0.919305        0.583638 
        1.65673        0.910283        0.578396 
        1.66285        0.904096        0.573232 
        1.66898        0.900384         0.56813 
        1.67512        0.890003         0.56308 
        1.68127        0.883722        0.558087 
         1.6874        0.880629        0.553166 
        1.69353        0.871003        0.548307 
        1.69967        0.864401        0.543495 
        1.70581        0.861177        0.538743 
        1.71193        0.853306        0.534066 
        1.71806        0.849274        0.529434 
        1.72421        0.841956        0.524848 
        1.73035        0.834942        0.520322 
        1.73649         0.83095         0.51585 
        1.74262        0.824741        0.511435 
        1.74876        0.818482        0.507068 
        1.75489        0.810825        0.502761 
        1.76101        0.806514        0.498506 
        1.76715        0.801431        0.494294 
        1.77329        0.796513        0.490125 
        1.77943        0.789225        0.486003 
        1.78557        0.783724        0.481935 
        1.79171          0.7807        0.477912 
        1.79785        0.774029        0.473935 
        1.80399        0.769131        0.470004 
        1.81012        0.765063        0.466122 
        1.81625        0.758745        0.462286 
        1.82239        0.754205        0.458487 
        1.82853        0.746214        0.454733 
        1.83466        0.743142        0.451025 
        1.84078          0.7373        0.447362 
        1.84692        0.734603        0.443733 
        1.85306        0.729254        0.440141 
         1.8592        0.725039        0.436594 
        1.86533        0.719394        0.433088 
        1.87147        0.715227        0.429616 
        1.87761        0.710263        0.426181 
        1.88375        0.704052        0.422787 
        1.88988        0.701694        0.419435 
        1.89601        0.695906        0.416116 
        1.90215        0.691556        0.412831 
        1.90829        0.686441        0.409583 
        1.91442        0.682585         0.40637 
        1.92056        0.678982        0.403194 
         1.9267        0.673713        0.400049 
        1.93284         0.67143        0.396936 
        1.93897        0.665834        0.393861 
        1.94509        0.661811        0.390826 
        1.95123        0.657007        0.387815 
        1.95737        0.653562        0.384834 
        1.96349        0.648372        0.381891 
        1.96964        0.645535        0.378971 
        1.97578         0.64108         0.37608 
        1.98192        0.638367        0.373225 
        1.98805        0.632789          0.3704 
        1.99419        0.630351        0.367603 
        2.00033        0.627827        0.364835 
        2.00647        0.621858        0.362095 
         2.0126        0.618717        0.359388 
        2.01874         0.61513        0.356705 
        2.02488        0.612259        0.354047 
        2.03101        0.606418        0.351421 
        2.03714        0.602287        0.348824 
        2.04328        0.601179         0.34625 
        2.04941        0.596776        0.343704 
        2.05554        0.592853        0.341186 
        2.06167        0.589239        0.338689 
        2.06781        0.585395        0.336218 
        2.07396        0.581289        0.333767 
        2.08009        0.578786        0.331345 
        2.08622        0.574967         0.32895 
        2.09237        0.573311        0.326574 
        2.09851        0.569817         0.32422 
        2.10464        0.566758        0.321894 
        2.11077         0.56295        0.319594 
        2.11691        0.559093        0.317311 
        2.12305        0.556254         0.31505 
        2.12918         0.55331        0.312816 
        2.13531        0.549713        0.310604 
        2.14145        0.546962        0.308408 
         2.1476        0.543053        0.306231 
        2.15372        0.541368        0.304086 
        2.15985        0.536919        0.301959 
        2.16599        0.533692        0.299846 
        2.17213        0.531212        0.297756 
        2.17827        0.529484        0.295687 
         2.1844        0.526584        0.293639 
        2.19054        0.523753        0.291609 
        2.19666        0.519923        0.289602 
         2.2028         0.51708        0.287611 
        2.20893         0.51465        0.285639 
        2.21508        0.512442        0.283683 
        2.22122        0.507319        0.281744 
        2.22736         0.50533        0.279828 
        2.23349        0.504582        0.277929 
        2.23962        0.500889        0.276048 
        2.24577        0.497125        0.274182 
         2.2519        0.494844        0.272336 
        2.25802        0.492271         0.27051 
        2.26417        0.489092        0.268696 
        2.27031        0.486749        0.266896 
        2.27644        0.484571        0.265119 
        2.28257         0.48234        0.263357 
        2.28872        0.479313        0.261608 
        2.29486        0.476698        0.259876 
        2.30099        0.473859        0.258163 
        2.30712        0.471765        0.256464 
        2.31326        0.469497        0.254778 
         2.3194        0.468199        0.253108 
        2.32553        0.465432        0.251455 
        2.33166        0.462675        0.249819 
         2.3378        0.460063        0.248194 
        2.34394        0.456637        0.246584 
        2.35007         0.45496        0.244989 
        2.35619        0.453098        0.243412 
        2.36233        0.449541        0.241844 
        2.36848        0.448184        0.240286 
        2.37462        0.445157        0.238746 
        2.38075        0.444336        0.237221 
        2.38689        0.441441        0.235708 
        2.39303        0.439709        0.234208 
        2.39916        0.436107        0.232723 
        2.40529        0.435052        0.231251 
        2.41143        0.432984         0.22979 
        2.41757        0.430672        0.228342 
         2.4237        0.428731        0.226908 
        2.42983        0.426715        0.225487 
        2.43598        0.424505        0.224075 
        2.44211        0.422911        0.222676 
        2.44823        0.420549        0.221293 
        2.45437        0.418108        0.219918 
        2.46052        0.417085        0.218553 
        2.46665        0.414243        0.217203 
        2.47279        0.412132        0.215864 
        2.47892        0.409637        0.214535 
        2.48507        0.408126        0.213217 
         2.4912        0.406351        0.211912 
