# k  (h/Mpc)    P(k)  (Mpc/h)^3    P_linear(k)  (Mpc/h)^3
     0.00783031         1948.68         1972.37 
       0.013688         2530.14         2532.21 
       0.019231         2639.65         2640.67 
      0.0249154         2492.21         2512.53 
      0.0312784          2242.1         2248.08 
      0.0375637         1981.04         1977.83 
      0.0433917         1762.31          1770.5 
      0.0492413         1613.25         1614.58 
      0.0555754         1478.29          1491.5 
      0.0619321          1396.5         1391.54 
       0.067871         1290.29         1299.62 
      0.0738098         1189.63         1199.18 
      0.0800417          1072.3         1085.32 
      0.0862327         965.986          972.44 
      0.0921407          873.08         875.005 
      0.0982031         788.186         792.602 
       0.104506         732.208         727.847 
       0.110769         684.273         681.304 
       0.116806          644.84         646.956 
       0.122832         617.545         616.255 
       0.129052         579.449         582.968 
       0.135211         543.114         546.098 
       0.141259          508.59          507.02 
       0.147318         472.598         467.908 
       0.153489         434.131          431.45 
       0.159709         405.237          400.56 
       0.165845          385.58         376.514 
       0.171974         363.233         357.944 
       0.178125         348.432         342.833 
       0.184229         335.778         329.156 
        0.19034         316.808         315.077 
       0.196428          305.69         299.871 
       0.202534         292.749         283.603 
       0.208729         275.023         266.933 
       0.214876         257.945         251.312 
       0.220989         248.061          237.53 
       0.227147         233.273         225.775 
        0.23329         223.902         216.017 
       0.239377         217.126         207.767 
       0.245482         206.254          200.24 
       0.251667         201.806          192.77 
       0.257832         194.268         185.128 
       0.263955         186.453         177.292 
       0.270079         179.072         169.393 
        0.27624         173.813         161.708 
       0.282372         166.541         154.604 
        0.28843         159.614         148.292 
       0.294538         153.608          142.65 
       0.300721         150.382          137.56 
        0.30691         144.045         132.889 
       0.313033         139.907         128.482 
       0.319153         133.643         124.146 
       0.325316         131.306         119.786 
        0.33145         126.444         115.475 
       0.337538          123.34         111.297 
       0.343633         119.012         107.303 
       0.349808         115.476         103.521 
       0.355968         112.356         100.031 
       0.362074         108.943         96.8433 
       0.368217         106.006         93.8508 
       0.374374         102.915         91.0069 
       0.380519         100.426         88.2697 
       0.386598          97.767         85.6216 
       0.392688          95.789         83.0257 
        0.39888         93.0649         80.4509 
       0.405048           90.91         77.9739 
       0.411186         88.8662         75.6207 
       0.417313         86.0454         73.3926 
       0.423458          84.049         71.2802 
       0.429607         81.8736         69.2809 
       0.435692         79.3484         67.3951 
       0.441815         78.3333         65.5705 
       0.447964         77.0841         63.7997 
       0.454126         74.0014         62.0766 
       0.460267         72.8077         60.4069 
       0.466387         70.9247         58.7954 
        0.47254          69.886         57.2329 
       0.478662         68.7075         55.7386 
       0.484765          66.845         54.3096 
       0.490885         65.4169         52.9374 
       0.497035         64.5889         51.6142 
       0.503198          62.943         50.3378 
       0.509342          61.389         49.1079 
       0.515458         60.2915         47.9224 
       0.521598         59.4067         46.7688 
       0.527764         58.2559         45.6452 
       0.533884         57.2652         44.5644 
           0.54         56.1724         43.5194 
       0.546137         55.3605         42.5066 
       0.552299         54.5469         41.5254 
       0.558452         52.9194         40.5794 
       0.564573          52.159         39.6691 
       0.570708         51.4629         38.7857 
       0.576825         50.2838         37.9321 
       0.582926         49.4019         37.1064 
       0.589034          48.177          36.304 
       0.595184         47.6183         35.5194 
       0.601379         46.8975         34.7523 
       0.607522         45.9633         34.0142 
       0.613639         45.6636         33.3012 
       0.619772         44.4982          32.608 
       0.625918          44.316         31.9342 
       0.632068         43.6058         31.2799 
       0.638161         42.7968         30.6502 
         0.6443         42.0093         30.0335 
       0.650464         41.3437         29.4314 
       0.656582         41.0936         28.8501 
       0.662703         40.3112         28.2844 
       0.668861         39.6735         27.7309 
       0.675024         39.0446         27.1921 
       0.681124         38.3907         26.6734 
       0.687237         37.7832         26.1675 
       0.693381         37.4967         25.6727 
       0.699536         36.6153         25.1901 
       0.705665         36.5886         24.7221 
       0.711789         35.7888         24.2666 
       0.717957         35.3758         23.8196 
        0.72409         34.8719         23.3865 
       0.730186         34.4034         22.9669 
       0.736317         34.1029         22.5555 
       0.742472         33.5184         22.1528 
       0.748622         33.2296         21.7605 
        0.75476         32.6817         21.3787 
       0.760888         32.2651         21.0068 
       0.767043         31.9226         20.6423 
       0.773185         31.3854         20.2874 
       0.779291         31.2366          19.943 
       0.785407         30.8677         19.6062 
       0.791564         30.3276         19.2752 
       0.797719         29.7655         18.9521 
       0.803834         29.7225         18.6385 
       0.809972         29.4538          18.331 
       0.816124         28.7739         18.0298 
       0.822261         28.6248         17.7364 
       0.828378         28.3252         17.4504 
       0.834502         28.0314         17.1706 
       0.840667         27.7129         16.8952 
       0.846816         27.2691         16.6267 
       0.852925         27.0417         16.3659 
       0.859047         26.7418         16.1101 
       0.865192         26.5207         15.8591 
       0.871341         26.3389         15.6133 
       0.877463         25.8661         15.3739 
       0.883569         25.5802         15.1402 
       0.889708         25.2693         14.9103 
       0.895864         25.1126         14.6846 
       0.902008         24.9184         14.4641 
       0.908149         24.6604         14.2483 
       0.914301         24.5171         14.0367 
       0.920448         24.0328         13.8295 
       0.926574          23.885         13.6274 
       0.932687         23.6523         13.4298 
       0.938823          23.355         13.2354 
       0.944975         23.1252         13.0445 
       0.951105         22.9664         12.8581 
       0.957225         22.7291         12.6757 
       0.963368         22.5418         12.4962 
       0.969511         22.3676         12.3203 
       0.975621         22.1846         12.1488 
       0.981748         21.9064         11.9801 
       0.987916         21.7785         11.8136 
        0.99406         21.5101         11.6509 
        1.00019         21.2309         11.4916 
        1.00632          21.203         11.3355 
        1.01246         20.9845         11.1821 
        1.01859         20.6966         11.0319 
        1.02471         20.6303         10.8845 
        1.03085         20.4416         10.7395 
        1.03698         20.1379         10.5973 
        1.04314         20.0364         10.4572 
        1.04929         19.8012           10.32 
        1.05541         19.6168         10.1858 
        1.06154         19.4925         10.0537 
        1.06769         19.4002         9.92381 
        1.07382         19.1584         9.79663 
        1.07993         19.0666           9.672 
        1.08607         18.8566         9.54905 
        1.09222         18.7315         9.42813 
        1.09836          18.514         9.30948 
        1.10449         18.4213         9.19303 
        1.11063         18.2439         9.07846 
        1.11677         18.1673         8.96592 
         1.1229         18.0609         8.85549 
        1.12903          17.847         8.74686 
        1.13518         17.6512         8.63998 
        1.14131         17.5748         8.53496 
        1.14745         17.4446         8.43177 
        1.15359         17.3327         8.33028 
        1.15973         17.1918         8.23045 
        1.16584         16.9623         8.13271 
        1.17197         16.9139         8.03644 
        1.17811         16.7934         7.94145 
        1.18424         16.6518         7.84829 
        1.19038         16.5868         7.75637 
        1.19652          16.427         7.66598 
        1.20267         16.2736         7.57704 
        1.20881         16.2478         7.48954 
        1.21495         16.1191         7.40358 
        1.22108         15.9463           7.319 
         1.2272         15.8342         7.23595 
        1.23334         15.7005         7.15401 
        1.23949         15.5821         7.07315 
        1.24562         15.5435         6.99378 
        1.25174         15.4311         6.91576 
        1.25789         15.3304          6.8387 
        1.26402         15.2566         6.76297 
        1.27014          15.128         6.68858 
        1.27628         14.9464         6.61509 
        1.28244         14.8798         6.54258 
        1.28858         14.8545         6.47126 
        1.29471         14.7001         6.40117 
        1.30084         14.5716          6.3322 
        1.30697         14.5397         6.26415 
        1.31312         14.3603         6.19701 
        1.31925         14.2795         6.13108 
        1.32537         14.2263         6.06618 
        1.33151         14.1299           6.002 
        1.33765         14.0271         5.93879 
        1.34378         13.9361         5.87663 
        1.34992         13.8216         5.81533 
        1.35606         13.7759         5.75477 
         1.3622         13.6964         5.69519 
        1.36833         13.5893         5.63661 
        1.37445         13.5251         5.57889 
        1.38059         13.4673         5.52181 
        1.38675         13.3369          5.4654 
        1.39288         13.2766         5.41001 
        1.39901         13.1507         5.35543 
        1.40515         13.1095         5.30147 
         1.4113         13.0397          5.2483 
        1.41742         12.9546         5.19605 
        1.42355         12.8634         5.14443 
         1.4297         12.7841         5.09336 
        1.43585         12.7468         5.04301 
        1.44198         12.6738         4.99354 
        1.44809         12.5836         4.94483 
        1.45423         12.4986          4.8966 
        1.46036         12.4412          4.8491 
        1.46649         12.3745         4.80222 
        1.47263         12.2697         4.75593 
        1.47877         12.2152         4.71027 
        1.48491         12.1472         4.66515 
        1.49104         12.0847         4.62072 
        1.49718         12.0238         4.57684 
        1.50333         11.9582         4.53346 
        1.50947         11.8853         4.49074 
         1.5156         11.8155         4.44864 
        1.52172         11.7559         4.40708 
        1.52787         11.6781         4.36598 
          1.534         11.6149         4.32545 
        1.54013         11.5619         4.28549 
        1.54627         11.4737         4.24596 
        1.55241         11.4359         4.20693 
        1.55855         11.3864         4.16844 
        1.56467         11.3013         4.13055 
         1.5708         11.2814         4.09303 
        1.57695         11.1754         4.05592 
        1.58308         11.1262         4.01936 
        1.58922         11.0872         3.98323 
        1.59535         11.0384         3.94756 
         1.6015         10.9571         3.91228 
        1.60764         10.8908         3.87745 
        1.61376         10.8715         3.84315 
        1.61989         10.7936         3.80924 
        1.62604         10.7423         3.77566 
        1.63218         10.7036         3.74251 
        1.63831         10.6588         3.70985 
        1.64444         10.5963         3.67756 
        1.65059         10.5074         3.64558 
        1.65673          10.489         3.61402 
        1.66285         10.3898         3.58293 
        1.66898         10.3677         3.55219 
        1.67512         10.3227         3.52176 
        1.68127         10.2627         3.49166 
         1.6874         10.2281         3.46198 
        1.69353         10.1654         3.43266 
        1.69967         10.1069         3.40362 
        1.70581         10.0585         3.37493 
        1.71193         10.0147         3.34668 
        1.71806         9.99596          3.3187 
        1.72421         9.91168         3.29098 
        1.73035         9.89288         3.26362 
        1.73649         9.84816         3.23657 
        1.74262         9.78088         3.20986 
        1.74876         9.75014         3.18343 
        1.75489         9.71609         3.15736 
        1.76101         9.63859         3.13159 
        1.76715         9.61871         3.10607 
        1.77329         9.56391         3.08081 
        1.77943         9.50567         3.05582 
        1.78557         9.49383         3.03114 
        1.79171         9.43855         3.00674 
        1.79785         9.38472          2.9826 
        1.80399         9.33351         2.95873 
        1.81012         9.30678         2.93516 
        1.81625         9.25046         2.91186 
        1.82239         9.22336         2.88878 
        1.82853          9.1695         2.86596 
        1.83466          9.1366         2.84341 
        1.84078         9.08235         2.82113 
        1.84692         9.07749         2.79906 
        1.85306         9.01262         2.77719 
         1.8592         8.96585          2.7556 
        1.86533         8.93718         2.73425 
        1.87147         8.89988          2.7131 
        1.87761         8.86184         2.69217 
        1.88375         8.82099         2.67149 
        1.88988         8.78955         2.65104 
        1.89601         8.75113          2.6308 
        1.90215         8.71325         2.61076 
        1.90829         8.67167         2.59094 
        1.91442         8.63826         2.57132 
        1.92056         8.60204         2.55193 
         1.9267         8.55906         2.53271 
        1.93284         8.52259         2.51369 
        1.93897         8.48256          2.4949 
        1.94509         8.44975         2.47634 
        1.95123         8.41006         2.45792 
        1.95737         8.36788         2.43968 
        1.96349         8.34284         2.42167 
        1.96964         8.30926          2.4038 
        1.97578          8.2682         2.38609 
        1.98192         8.23896         2.36861 
        1.98805         8.21118          2.3513 
        1.99419         8.17683         2.33416 
        2.00033         8.15854         2.31718 
        2.00647         8.11384         2.30038 
         2.0126         8.08508         2.28378 
        2.01874         8.04085         2.26731 
        2.02488          8.0163           2.251 
        2.03101          7.9717         2.23487 
        2.03714         7.94047         2.21892 
        2.04328         7.90928         2.20311 
        2.04941         7.87599         2.18747 
        2.05554         7.84311         2.17199 
        2.06167         7.81433         2.15664 
        2.06781         7.79162         2.14144 
        2.07396         7.77017         2.12637 
        2.08009         7.72704         2.11146 
        2.08622         7.68805         2.09672 
        2.09237          7.6833         2.08209 
        2.09851         7.65225          2.0676 
        2.10464         7.61245         2.05327 
        2.11077         7.56771         2.03909 
        2.11691         7.54702         2.02502 
        2.12305         7.52736         2.01108 
        2.12918         7.50625         1.99731 
        2.13531         7.46384         1.98367 
        2.14145         7.44175         1.97012 
         2.1476         7.40074         1.95668 
        2.15372         7.38038         1.94344 
        2.15985         7.37226         1.93031 
        2.16599         7.32187         1.91726 
        2.17213         7.30869         1.90435 
        2.17827         7.28481         1.89156 
         2.1844         7.24745          1.8789 
        2.19054         7.21522         1.86636 
        2.19666         7.18954         1.85394 
         2.2028         7.16372         1.84163 
        2.20893         7.14862         1.82943 
        2.21508         7.10747         1.81732 
        2.22122         7.08143         1.80532 
        2.22736         7.05841         1.79345 
        2.23349         7.04954         1.78169 
        2.23962         7.01485         1.77004 
        2.24577         6.97922         1.75848 
         2.2519         6.97078         1.74703 
        2.25802         6.93093         1.73571 
        2.26417          6.9068         1.72446 
        2.27031         6.88288          1.7133 
        2.27644         6.85684         1.70227 
        2.28257         6.83731         1.69134 
        2.28872         6.81403         1.68048 
        2.29486         6.78799         1.66972 
        2.30099         6.76587         1.65908 
        2.30712         6.74388         1.64853 
        2.31326         6.70168         1.63805 
         2.3194         6.69219         1.62767 
        2.32553         6.67035          1.6174 
        2.33166         6.65069         1.60722 
         2.3378         6.62551         1.59712 
        2.34394         6.59965          1.5871 
        2.35007         6.56524         1.57718 
        2.35619         6.55643         1.56736 
        2.36233         6.53344          1.5576 
        2.36848         6.50508          1.5479 
        2.37462         6.48798          1.5383 
        2.38075         6.47165          1.5288 
        2.38689         6.44054         1.51937 
        2.39303         6.41835         1.51002 
        2.39916         6.40052         1.50076 
        2.40529         6.37427         1.49158 
        2.41143         6.35753         1.48247 
        2.41757          6.3462         1.47344 
         2.4237         6.32305         1.46449 
        2.42983         6.28401         1.45562 
        2.43598         6.27891          1.4468 
        2.44211         6.25291         1.43807 
        2.44823         6.23393         1.42943 
        2.45437         6.20588         1.42084 
        2.46052         6.18454         1.41231 
        2.46665         6.16917         1.40387 
        2.47279         6.14616          1.3955 
        2.47892         6.12368          1.3872 
        2.48507         6.11224         1.37895 
         2.4912         6.08013         1.37079 
