# k  (h/Mpc)    P(k)  (Mpc/h)^3    P_linear(k)  (Mpc/h)^3
     0.00783031           14358         14618.9 
       0.013688         18890.2         18771.6 
       0.019231         19543.6         19571.7 
      0.0249154           18163         18618.6 
      0.0312784         16390.3         16656.4 
      0.0375637         14555.7         14652.5 
      0.0433917         12766.4         13115.6 
      0.0492413         11760.1         11959.9 
      0.0555754         10577.1         11047.6 
      0.0619321         10187.9         10306.8 
       0.067871          9222.2         9625.71 
      0.0738098         8508.73         8881.61 
      0.0800417         7601.52         8038.16 
      0.0862327         6915.69            7202 
      0.0921407         6345.44          6480.3 
      0.0982031         5726.27         5869.94 
       0.104506         5423.96         5390.32 
       0.110769         5059.23         5045.58 
       0.116806         4777.32         4791.17 
       0.122832         4556.57         4563.78 
       0.129052         4221.61         4317.24 
       0.135211         3986.32         4044.17 
       0.141259         3801.19         3754.76 
       0.147318         3576.96          3465.1 
       0.153489         3284.25         3195.09 
       0.159709         3121.39         2966.33 
       0.165845         3029.05         2788.25 
       0.171974         2871.39         2650.73 
       0.178125         2741.17         2538.81 
       0.184229         2629.45         2437.52 
        0.19034         2491.01         2333.26 
       0.196428         2439.14         2220.65 
       0.202534         2341.34         2100.18 
       0.208729          2239.6         1976.72 
       0.214876         2151.71         1861.05 
       0.220989         2083.78         1758.98 
       0.227147         2000.05         1671.93 
        0.23329         1928.12         1599.66 
       0.239377         1905.49         1538.57 
       0.245482         1792.04         1482.83 
       0.251667         1784.21         1427.51 
       0.257832         1715.53         1370.92 
       0.263955         1659.67         1312.89 
       0.270079         1606.63         1254.39 
        0.27624         1589.03         1197.49 
       0.282372          1523.7         1144.88 
        0.28843         1521.48         1098.14 
       0.294538         1449.63         1056.36 
       0.300721         1442.49         1018.66 
        0.30691         1388.87          984.07 
       0.313033          1362.1         951.439 
       0.319153         1345.29         919.326 
       0.325316         1300.17         887.037 
        0.33145         1273.21         855.111 
       0.337538         1252.54         824.179 
       0.343633         1227.21         794.597 
       0.349808         1188.81          766.59 
       0.355968         1180.86          740.75 
       0.362074         1170.77         717.142 
       0.368217         1134.66         694.981 
       0.374374         1095.04         673.922 
       0.380519         1098.22         653.652 
       0.386598         1068.95         634.042 
       0.392688         1064.32         614.819 
        0.39888         1035.73         595.752 
       0.405048         1024.52         577.409 
       0.411186         1010.46         559.983 
       0.417313         989.711         543.484 
       0.423458         973.897         527.841 
       0.429607         961.623         513.036 
       0.435692         943.604         499.071 
       0.441815         937.437          485.56 
       0.447964         917.578         472.446 
       0.454126         910.775         459.686 
       0.460267         889.879         447.322 
       0.466387         878.682         435.388 
        0.47254         874.045         423.818 
       0.478662          865.29         412.752 
       0.484765         843.386          402.17 
       0.490885         838.316         392.008 
       0.497035         820.547          382.21 
       0.503198         816.454         372.758 
       0.509342         806.965          363.65 
       0.515458         803.862         354.872 
       0.521598         785.419         346.329 
       0.527764         770.007         338.009 
       0.533884         769.738         330.005 
           0.54         762.063         322.267 
       0.546137         754.972         314.767 
       0.552299         745.885         307.501 
       0.558452         740.545         300.495 
       0.564573         730.566         293.755 
       0.570708          723.59         287.213 
       0.576825         704.022         280.892 
       0.582926         708.262         274.778 
       0.589034         701.333         268.836 
       0.595184         694.378         263.026 
       0.601379         685.569         257.345 
       0.607522          676.19         251.879 
       0.613639         677.272         246.599 
       0.619772         662.003         241.466 
       0.625918         658.064         236.477 
       0.632068         650.443         231.632 
       0.638161         648.335         226.969 
         0.6443         636.589         222.401 
       0.650464         635.328         217.943 
       0.656582         631.223         213.638 
       0.662703          627.84         209.449 
       0.668861         617.118         205.351 
       0.675024         612.252         201.361 
       0.681124         608.994          197.52 
       0.687237         603.975         193.774 
       0.693381         597.048         190.109 
       0.699536         586.826         186.535 
       0.705665          587.14          183.07 
       0.711789         583.042         179.697 
       0.717957         577.768         176.387 
        0.72409         575.011         173.179 
       0.730186         566.526         170.073 
       0.736317         563.498         167.026 
       0.742472         560.886         164.044 
       0.748622         554.569         161.139 
        0.75476         546.428         158.312 
       0.760888         542.212         155.557 
       0.767043         541.649         152.859 
       0.773185         536.372         150.231 
       0.779291         531.539          147.68 
       0.785407         526.857         145.186 
       0.791564         521.463         142.735 
       0.797719         519.314         140.342 
       0.803834         514.599          138.02 
       0.809972         512.211         135.743 
       0.816124         511.036         133.513 
       0.822261         503.467          131.34 
       0.828378          500.57         129.222 
       0.834502         495.797          127.15 
       0.840667          491.86         125.111 
       0.846816         489.481         123.123 
       0.852925         485.212         121.191 
       0.859047         484.752         119.297 
       0.865192         478.549         117.438 
       0.871341         474.462         115.618 
       0.877463         474.006         113.846 
       0.883569         468.913         112.115 
       0.889708         466.527         110.412 
       0.895864         464.121         108.741 
       0.902008         460.587         107.108 
       0.908149         455.165          105.51 
       0.914301         452.748         103.943 
       0.920448         450.428         102.409 
       0.926574         443.081         100.912 
       0.932687         443.132         99.4489 
       0.938823         438.671         98.0096 
       0.944975         439.069         96.5959 
       0.951105         433.213         95.2155 
       0.957225         430.433         93.8648 
       0.963368         426.296          92.536 
       0.969511         425.016         91.2332 
       0.975621         422.162         89.9628 
       0.981748         419.815         88.7137 
       0.987916         417.231         87.4807 
        0.99406         410.305          86.276 
        1.00019         409.304         85.0967 
        1.00632         407.336         83.9408 
        1.01246         404.214         82.8048 
        1.01859         404.131         81.6919 
        1.02471          398.51         80.6011 
        1.03085         396.821         79.5267 
        1.03698         395.329         78.4743 
        1.04314         391.604         77.4368 
        1.04929         387.177         76.4206 
        1.05541         388.211          75.427 
        1.06154         382.231         74.4489 
        1.06769          380.15         73.4868 
        1.07382         377.979          72.545 
        1.07993         375.791         71.6221 
        1.08607         374.696         70.7116 
        1.09222         371.014         69.8162 
        1.09836         368.833         68.9376 
        1.10449         365.335         68.0753 
        1.11063         361.544         67.2269 
        1.11677         362.213         66.3935 
         1.1229           359.8         65.5758 
        1.12903         356.802         64.7713 
        1.13518         353.174         63.9798 
        1.14131         352.021         63.2022 
        1.14745         349.375          62.438 
        1.15359         347.446         61.6865 
        1.15973         345.177         60.9472 
        1.16584         342.742         60.2235 
        1.17197         341.872         59.5106 
        1.17811         338.316         58.8072 
        1.18424         335.378         58.1173 
        1.19038         333.978         57.4367 
        1.19652         332.008         56.7673 
        1.20267         330.491         56.1087 
        1.20881         328.706         55.4608 
        1.21495         325.812         54.8242 
        1.22108         324.127         54.1978 
         1.2272         321.747         53.5829 
        1.23334         319.772         52.9761 
        1.23949         317.785         52.3773 
        1.24562         316.421         51.7896 
        1.25174         313.688         51.2119 
        1.25789         310.864         50.6412 
        1.26402         309.145         50.0804 
        1.27014         307.214         49.5295 
        1.27628         305.453         48.9853 
        1.28244         305.189         48.4484 
        1.28858         301.735         47.9202 
        1.29471         299.833         47.4013 
        1.30084         298.166         46.8905 
        1.30697         296.389         46.3866 
        1.31312         293.379         45.8894 
        1.31925         292.805         45.4012 
        1.32537         291.606         44.9206 
        1.33151         288.417         44.4453 
        1.33765         286.502         43.9773 
        1.34378         285.516          43.517 
        1.34992         283.554          43.063 
        1.35606         282.451         42.6146 
         1.3622         280.332         42.1734 
        1.36833         278.259         41.7396 
        1.37445         276.773         41.3122 
        1.38059          274.22         40.8895 
        1.38675         273.165         40.4718 
        1.39288         271.499         40.0616 
        1.39901         270.484         39.6574 
        1.40515         268.434         39.2579 
         1.4113         267.083         38.8641 
        1.41742          264.91         38.4772 
        1.42355         263.282          38.095 
         1.4297         261.478         37.7168 
        1.43585         260.207          37.344 
        1.44198         258.879         36.9776 
        1.44809         256.906         36.6169 
        1.45423         255.153         36.2597 
        1.46036         254.067          35.908 
        1.46649         251.996         35.5609 
        1.47263         250.629         35.2181 
        1.47877         248.935           34.88 
        1.48491         247.013         34.5458 
        1.49104         246.271         34.2168 
        1.49718         244.257         33.8919 
        1.50333         243.148         33.5707 
        1.50947         241.638         33.2543 
         1.5156         239.479         32.9426 
        1.52172         238.716         32.6348 
        1.52787         236.937         32.3304 
          1.534         236.023         32.0303 
        1.54013         233.734         31.7344 
        1.54627         232.905         31.4417 
        1.55241         231.562         31.1526 
        1.55855         229.795         30.8677 
        1.56467         228.466         30.5871 
         1.5708         227.975         30.3092 
        1.57695         225.877         30.0344 
        1.58308         224.718         29.7637 
        1.58922         222.206         29.4961 
        1.59535         221.007          29.232 
         1.6015         220.629         28.9708 
        1.60764         218.972         28.7129 
        1.61376         217.751         28.4588 
        1.61989         216.439         28.2077 
        1.62604         214.933         27.9591 
        1.63218         213.921         27.7136 
        1.63831         212.361         27.4717 
        1.64444         211.597         27.2326 
        1.65059          210.11         26.9958 
        1.65673         208.829         26.7621 
        1.66285         207.357         26.5319 
        1.66898         206.068         26.3043 
        1.67512         205.499         26.0789 
        1.68127         203.235          25.856 
         1.6874          202.24         25.6362 
        1.69353         201.275         25.4191 
        1.69967         199.731         25.2041 
        1.70581          198.92         24.9916 
        1.71193         197.306         24.7825 
        1.71806         196.753         24.5752 
        1.72421         195.173           24.37 
        1.73035         194.457         24.1674 
        1.73649         193.212         23.9671 
        1.74262          191.92         23.7693 
        1.74876         190.665         23.5736 
        1.75489         189.524         23.3805 
        1.76101          188.26         23.1896 
        1.76715         187.562         23.0007 
        1.77329         186.479         22.8136 
        1.77943         185.512         22.6286 
        1.78557         184.147         22.4459 
        1.79171         183.187         22.2651 
        1.79785         181.687         22.0864 
        1.80399         180.899         21.9097 
        1.81012         179.834         21.7351 
        1.81625          178.98         21.5626 
        1.82239          177.64         21.3916 
        1.82853         177.186         21.2227 
        1.83466         175.696         21.0557 
        1.84078         174.959         20.8907 
        1.84692          173.31         20.7272 
        1.85306         172.888         20.5653 
         1.8592         171.665         20.4054 
        1.86533         170.922         20.2473 
        1.87147         169.602         20.0907 
        1.87761         168.849         19.9357 
        1.88375         167.326         19.7826 
        1.88988         166.096         19.6312 
        1.89601         165.895         19.4813 
        1.90215         164.665         19.3329 
        1.90829         163.695         19.1861 
        1.91442         162.709         19.0408 
        1.92056         162.015         18.8972 
         1.9267         160.721         18.7549 
        1.93284         159.799         18.6141 
        1.93897         159.186         18.4749 
        1.94509         158.215         18.3375 
        1.95123         157.401         18.2011 
        1.95737         156.498          18.066 
        1.96349         155.496         17.9327 
        1.96964         154.458         17.8003 
        1.97578          153.66         17.6692 
        1.98192         152.818         17.5397 
        1.98805         151.766         17.4115 
        1.99419         150.965         17.2846 
        2.00033         150.159         17.1589 
        2.00647         149.413         17.0345 
         2.0126          148.18         16.9115 
        2.01874         147.804         16.7896 
        2.02488          147.05         16.6688 
        2.03101         145.614         16.5494 
        2.03714         145.082         16.4313 
        2.04328         144.143         16.3142 
        2.04941         143.574         16.1984 
        2.05554         142.404         16.0838 
        2.06167         141.907         15.9701 
        2.06781          140.97         15.8575 
        2.07396         140.028         15.7459 
        2.08009         139.604         15.6355 
        2.08622         138.437         15.5264 
        2.09237         137.724          15.418 
        2.09851         137.012         15.3107 
        2.10464         136.582         15.2046 
        2.11077         135.684         15.0996 
        2.11691         134.908         14.9954 
        2.12305         133.968         14.8922 
        2.12918         133.186         14.7902 
        2.13531         132.721         14.6892 
        2.14145         131.629         14.5889 
         2.1476         130.723         14.4894 
        2.15372         130.534         14.3913 
        2.15985         130.018         14.2941 
        2.16599         128.729         14.1975 
        2.17213          128.15         14.1019 
        2.17827         127.437         14.0072 
         2.1844         126.626         13.9134 
        2.19054         126.101         13.8205 
        2.19666         125.197         13.7286 
         2.2028         124.558         13.6374 
        2.20893         124.143          13.547 
        2.21508         123.324         13.4574 
        2.22122         122.516         13.3685 
        2.22736         121.926         13.2806 
        2.23349          121.26         13.1936 
        2.23962         120.521         13.1072 
        2.24577         119.883         13.0216 
         2.2519         119.441         12.9369 
        2.25802         118.567         12.8531 
        2.26417          117.99         12.7697 
        2.27031         117.078         12.6871 
        2.27644         116.611         12.6054 
        2.28257         115.879         12.5245 
        2.28872         115.518         12.4441 
        2.29486         114.623         12.3644 
        2.30099         114.073         12.2856 
        2.30712         113.446         12.2075 
        2.31326         112.828         12.1299 
         2.3194         112.248          12.053 
        2.32553          111.62          11.977 
        2.33166         111.129         11.9016 
         2.3378         110.639         11.8268 
        2.34394         110.006         11.7526 
        2.35007          109.22         11.6791 
        2.35619         108.659         11.6064 
        2.36233         108.125         11.5341 
        2.36848         107.565         11.4623 
        2.37462         107.117         11.3912 
        2.38075         106.316         11.3209 
        2.38689         105.832          11.251 
        2.39303         105.256         11.1818 
        2.39916         104.857         11.1133 
        2.40529         104.336         11.0453 
        2.41143         103.724         10.9778 
        2.41757         103.045         10.9109 
         2.4237         102.357         10.8446 
        2.42983         101.788          10.779 
        2.43598         101.368         10.7137 
        2.44211         100.966          10.649 
        2.44823         100.424          10.585 
        2.45437         99.8527         10.5214 
        2.46052         99.1521         10.4583 
        2.46665         98.7097         10.3958 
        2.47279         98.2768         10.3338 
        2.47892         97.7396         10.2723 
        2.48507         97.2058         10.2112 
         2.4912         96.7804         10.1508 
