# k  (h/Mpc)    P(k)  (Mpc/h)^3    P_linear(k)  (Mpc/h)^3
     0.00783031         5748.89         5832.65 
       0.013688         7504.13         7485.82 
       0.019231         7802.68         7804.92 
      0.0249154          7320.7         7425.26 
      0.0312784         6597.04         6643.12 
      0.0375637          5841.4         5844.18 
      0.0433917         5167.45         5231.33 
      0.0492413         4743.19         4770.51 
      0.0555754         4315.64         4406.73 
      0.0619321         4112.44         4111.32 
       0.067871         3768.09         3839.69 
      0.0738098         3473.91         3542.91 
      0.0800417         3119.84         3206.49 
      0.0862327         2821.52         2872.96 
      0.0921407         2564.11         2585.09 
      0.0982031         2311.58         2341.62 
       0.104506         2166.47          2150.3 
       0.110769         2022.47         2012.79 
       0.116806         1903.47         1911.31 
       0.122832         1823.13         1820.61 
       0.129052         1700.22         1722.26 
       0.135211         1598.63         1613.33 
       0.141259         1507.86         1497.88 
       0.147318         1407.28         1382.33 
       0.153489         1291.19         1274.62 
       0.159709         1215.69         1183.36 
       0.165845         1165.23         1112.32 
       0.171974         1099.22         1057.46 
       0.178125         1052.63         1012.82 
       0.184229         1014.88         972.409 
        0.19034         951.137         930.817 
       0.196428         927.986         885.893 
       0.202534         892.736         837.835 
       0.208729         843.346         788.585 
       0.214876         795.248         742.438 
       0.220989         769.831         701.722 
       0.227147         727.618         666.993 
        0.23329         700.264         638.165 
       0.239377         685.234         613.793 
       0.245482         643.106         591.555 
       0.251667          635.76         569.489 
       0.257832         613.345         546.913 
       0.263955         591.234         523.761 
       0.270079         569.867         500.426 
        0.27624         560.317         477.724 
       0.282372         536.785         456.735 
        0.28843         520.955         438.089 
       0.294538         498.177         421.422 
       0.300721         494.376         406.385 
        0.30691         472.251         392.584 
       0.313033          462.13         379.566 
       0.319153          445.95         366.755 
       0.325316          434.15         353.874 
        0.33145         420.893         341.138 
       0.337538         415.266         328.798 
       0.343633         401.661         316.996 
       0.349808         389.262         305.823 
       0.355968         384.119         295.515 
       0.362074         375.023         286.097 
       0.368217          365.31         277.256 
       0.374374         352.891         268.855 
       0.380519          347.71         260.768 
       0.386598           339.4         252.945 
       0.392688         335.837         245.276 
        0.39888         326.821         237.669 
       0.405048         319.978         230.352 
       0.411186           313.3           223.4 
       0.417313         307.442         216.818 
       0.423458         301.667         210.577 
       0.429607         294.903         204.671 
       0.435692         286.854           199.1 
       0.441815         285.047          193.71 
       0.447964         280.093         188.478 
       0.454126         269.053         183.388 
       0.460267         266.261         178.455 
       0.466387         263.021         173.694 
        0.47254         257.606         169.078 
       0.478662         255.771         164.664 
       0.484765         248.867         160.442 
       0.490885         245.368         156.388 
       0.497035         242.081          152.48 
       0.503198         236.009         148.709 
       0.509342         233.337         145.075 
       0.515458         230.328         141.573 
       0.521598         227.208         138.165 
       0.527764         223.582         134.846 
       0.533884         220.361         131.653 
           0.54          217.25         128.566 
       0.546137         215.967         125.574 
       0.552299         212.143         122.675 
       0.558452         208.813          119.88 
       0.564573         205.265         117.191 
       0.570708         202.228         114.581 
       0.576825         199.698         112.059 
       0.582926         196.915          109.62 
       0.589034         193.963          107.25 
       0.595184         192.194         104.932 
       0.601379         190.412         102.666 
       0.607522         186.172         100.485 
       0.613639         185.728         98.3788 
       0.619772         181.553         96.3309 
       0.625918         179.969         94.3405 
       0.632068         178.006         92.4076 
       0.638161         176.661         90.5473 
         0.6443         174.053         88.7252 
       0.650464         172.286         86.9465 
       0.656582         170.593         85.2292 
       0.662703         167.948         83.5582 
       0.668861         166.038          81.923 
       0.675024         164.197         80.3312 
       0.681124         163.092         78.7989 
       0.687237         160.261         77.3045 
       0.693381          158.35         75.8426 
       0.699536         157.079         74.4168 
       0.705665         157.459         73.0343 
       0.711789         153.591         71.6886 
       0.717957         153.031         70.3681 
        0.72409         150.966         69.0886 
       0.730186         148.553         67.8491 
       0.736317         148.148         66.6337 
       0.742472         146.944         65.4441 
       0.748622          145.79         64.2851 
        0.75476         144.384         63.1571 
       0.760888         142.464         62.0584 
       0.767043         141.368         60.9818 
       0.773185         139.957         59.9334 
       0.779291         138.408         58.9159 
       0.785407         137.539          57.921 
       0.791564         136.088          56.943 
       0.797719         134.362         55.9884 
       0.803834         133.835          55.062 
       0.809972         131.882         54.1536 
       0.816124         131.573          53.264 
       0.822261         130.229          52.397 
       0.828378         129.021         51.5522 
       0.834502         128.309         50.7256 
       0.840667         126.855         49.9121 
       0.846816         125.743         49.1189 
       0.852925         124.554         48.3482 
       0.859047         123.214         47.5927 
       0.865192         122.829         46.8511 
       0.871341          121.62          46.125 
       0.877463          120.33         45.4178 
       0.883569         119.495         44.7275 
       0.889708         118.817         44.0481 
       0.895864         117.769         43.3813 
       0.902008          116.92           42.73 
       0.908149          116.21         42.0925 
       0.914301         114.925         41.4672 
       0.920448         114.273         40.8554 
       0.926574         113.522         40.2582 
       0.932687         112.903         39.6744 
       0.938823         111.343         39.1002 
       0.944975           110.8         38.5362 
       0.951105         109.946         37.9855 
       0.957225         108.593         37.4466 
       0.963368         108.233         36.9165 
       0.969511         107.682         36.3968 
       0.975621         107.187           35.89 
       0.981748          106.19         35.3917 
       0.987916         105.315         34.8998 
        0.99406         104.805         34.4192 
        1.00019         103.633         33.9487 
        1.00632          103.28         33.4875 
        1.01246         102.307         33.0344 
        1.01859         101.073         32.5904 
        1.02471         101.562         32.1552 
        1.03085         100.412         31.7266 
        1.03698          99.542         31.3068 
        1.04314         98.6263         30.8928 
        1.04929         98.2316         30.4874 
        1.05541         97.4806         30.0911 
        1.06154         97.0515         29.7008 
        1.06769         96.4223          29.317 
        1.07382           96.04         28.9413 
        1.07993         95.4849         28.5731 
        1.08607         94.6033         28.2099 
        1.09222         94.1261         27.8527 
        1.09836         93.4443         27.5021 
        1.10449         92.8778         27.1581 
        1.11063          92.249         26.8197 
        1.11677         91.7018         26.4872 
         1.1229         91.0608          26.161 
        1.12903         90.0511           25.84 
        1.13518         90.2902         25.5243 
        1.14131         89.6611          25.214 
        1.14745         88.5791         24.9092 
        1.15359         88.3451         24.6094 
        1.15973         87.8272         24.3145 
        1.16584         87.1989         24.0257 
        1.17197         86.6968         23.7413 
        1.17811         86.2454         23.4607 
        1.18424         85.4276         23.1855 
        1.19038         85.1009         22.9139 
        1.19652         84.7561         22.6469 
        1.20267         84.0809         22.3841 
        1.20881         83.6257         22.1257 
        1.21495         82.9861         21.8717 
        1.22108         82.5164         21.6218 
         1.2272         81.9598         21.3765 
        1.23334         81.5902         21.1344 
        1.23949         81.2181         20.8956 
        1.24562          80.888         20.6611 
        1.25174         80.3696         20.4306 
        1.25789         79.9188          20.203 
        1.26402         79.3899         19.9792 
        1.27014          78.657         19.7594 
        1.27628         78.5425         19.5423 
        1.28244         77.8115         19.3281 
        1.28858         77.5067         19.1174 
        1.29471         77.2483         18.9104 
        1.30084         76.7019         18.7066 
        1.30697           76.13         18.5056 
        1.31312         75.7355         18.3072 
        1.31925         75.6048         18.1125 
        1.32537         75.0987         17.9207 
        1.33151         74.5054         17.7311 
        1.33765         74.2163         17.5444 
        1.34378         73.7582         17.3608 
        1.34992          73.245         17.1797 
        1.35606         72.8942         17.0008 
         1.3622         72.3386         16.8248 
        1.36833          72.212         16.6517 
        1.37445         71.8104         16.4812 
        1.38059         71.3051         16.3126 
        1.38675          70.964         16.1459 
        1.39288          70.494         15.9823 
        1.39901         70.3239          15.821 
        1.40515         69.9474         15.6617 
         1.4113         69.5433         15.5045 
        1.41742         69.1569         15.3502 
        1.42355         68.7799         15.1977 
         1.4297         68.3885         15.0468 
        1.43585         68.0485         14.8981 
        1.44198         67.7841          14.752 
        1.44809         67.3324         14.6081 
        1.45423         67.1491         14.4656 
        1.46036          66.717         14.3252 
        1.46649         66.3335         14.1868 
        1.47263         66.0189           14.05 
        1.47877         65.8211         13.9151 
        1.48491         65.4397         13.7818 
        1.49104         64.9954         13.6506 
        1.49718         64.5765         13.5209 
        1.50333         64.3632         13.3928 
        1.50947         63.9487         13.2666 
         1.5156         63.6821         13.1422 
        1.52172         63.4259         13.0194 
        1.52787         63.2104          12.898 
          1.534         62.8535         12.7783 
        1.54013         62.4695         12.6602 
        1.54627         62.2745         12.5434 
        1.55241         61.8552         12.4281 
        1.55855         61.4236         12.3144 
        1.56467         61.0283         12.2025 
         1.5708         60.9899         12.0916 
        1.57695         60.6422          11.982 
        1.58308         60.4186          11.874 
        1.58922          60.208         11.7673 
        1.59535         59.8806         11.6619 
         1.6015         59.4261         11.5577 
        1.60764         59.3233         11.4548 
        1.61376         58.9842         11.3535 
        1.61989         58.4739         11.2533 
        1.62604         58.3833         11.1541 
        1.63218         58.1432         11.0562 
        1.63831           57.81         10.9596 
        1.64444         57.6103         10.8643 
        1.65059         57.0838         10.7698 
        1.65673         56.9187         10.6766 
        1.66285         56.7018         10.5847 
        1.66898         56.3347         10.4939 
        1.67512          56.054          10.404 
        1.68127         55.7282         10.3151 
         1.6874          55.632         10.2274 
        1.69353          55.256         10.1408 
        1.69967         55.0536          10.055 
        1.70581         54.9291         9.97024 
        1.71193         54.5306         9.88679 
        1.71806         54.1638         9.80412 
        1.72421         53.9907         9.72224 
        1.73035         53.6814          9.6414 
        1.73649         53.3814          9.5615 
        1.74262         53.2254         9.48258 
        1.74876         53.1377         9.40451 
        1.75489         52.6757         9.32748 
        1.76101         52.5233         9.25134 
        1.76715         52.2054         9.17596 
        1.77329         51.9577         9.10133 
        1.77943         51.8137         9.02751 
        1.78557         51.6007         8.95462 
        1.79171         51.2321         8.88252 
        1.79785         51.0091         8.81121 
        1.80399         50.7786         8.74071 
        1.81012          50.635         8.67107 
        1.81625         50.1899         8.60224 
        1.82239         50.0581         8.53405 
        1.82853         49.6931         8.46664 
        1.83466         49.5949         8.40003 
        1.84078         49.2023         8.33421 
        1.84692         49.0669         8.26899 
        1.85306         48.8188          8.2044 
         1.8592          48.611         8.14061 
        1.86533         48.3227         8.07753 
        1.87147         48.1787         8.01506 
        1.87761         48.0347         7.95322 
        1.88375          47.774         7.89211 
        1.88988          47.712         7.83172 
        1.89601          47.324         7.77193 
        1.90215          47.144         7.71272 
        1.90829         47.0083         7.65416 
        1.91442         46.7119         7.59621 
        1.92056          46.551         7.53891 
         1.9267         46.1896         7.48215 
        1.93284         45.9547         7.42595 
        1.93897         45.8736         7.37043 
        1.94509          45.616          7.3156 
        1.95123         45.4423          7.2612 
        1.95737          45.222         7.20731 
        1.96349         44.9746         7.15412 
        1.96964         44.7226         7.10131 
        1.97578         44.6134         7.04901 
        1.98192         44.3757         6.99735 
        1.98805         44.2276          6.9462 
        1.99419         43.8907         6.89557 
        2.00033         43.7091         6.84542 
        2.00647          43.564         6.79579 
         2.0126         43.3642         6.74674 
        2.01874         43.2012          6.6981 
        2.02488         43.0539          6.6499 
        2.03101          42.762         6.60227 
        2.03714         42.5478         6.55515 
        2.04328         42.3438         6.50844 
        2.04941         42.1511         6.46223 
        2.05554         41.9436         6.41651 
        2.06167          41.811         6.37116 
        2.06781         41.6057         6.32625 
        2.07396          41.368         6.28172 
        2.08009         41.2488         6.23769 
        2.08622         41.0233         6.19414 
        2.09237         40.8543         6.15092 
        2.09851         40.6049          6.1081 
        2.10464         40.5149         6.06577 
        2.11077         40.2757          6.0239 
        2.11691          40.149         5.98233 
        2.12305         39.9016         5.94115 
        2.12918         39.8203         5.90046 
        2.13531         39.6135         5.86015 
        2.14145         39.4683         5.82013 
         2.1476         39.2122         5.78044 
        2.15372         39.0361         5.74132 
        2.15985         38.9343         5.70253 
        2.16599         38.7935         5.66398 
        2.17213         38.7097         5.62584 
        2.17827         38.2972         5.58806 
         2.1844         38.1926         5.55066 
        2.19054         38.0193         5.51359 
        2.19666         37.8613         5.47692 
         2.2028         37.7451         5.44055 
        2.20893         37.5845          5.4045 
        2.21508          37.393         5.36873 
        2.22122         37.1918         5.33328 
        2.22736         37.0443         5.29822 
        2.23349         36.9065         5.26349 
        2.23962         36.7052         5.22905 
        2.24577         36.4998         5.19489 
         2.2519         36.3528         5.16109 
        2.25802         36.2813         5.12764 
        2.26417         36.0704          5.0944 
        2.27031         35.9451         5.06143 
        2.27644          35.743         5.02884 
        2.28257         35.6247         4.99655 
        2.28872         35.4365         4.96448 
        2.29486         35.2929          4.9327 
        2.30099         35.1981         4.90126 
        2.30712         35.0154         4.87009 
        2.31326         34.8877         4.83913 
         2.3194         34.7305         4.80847 
        2.32553         34.5511         4.77812 
        2.33166          34.368         4.74806 
         2.3378         34.2704         4.71821 
        2.34394         34.0734         4.68861 
        2.35007         33.9276          4.6593 
        2.35619         33.8638         4.63029 
        2.36233         33.6831         4.60145 
        2.36848         33.4674          4.5728 
        2.37462         33.3782         4.54446 
        2.38075         33.1871         4.51639 
        2.38689         33.0783         4.48853 
        2.39303         32.9331         4.46091 
        2.39916         32.7532         4.43356 
        2.40529         32.5997         4.40644 
        2.41143         32.5054         4.37952 
        2.41757         32.3381         4.35283 
         2.4237         32.2229          4.3264 
        2.42983         32.1005          4.3002 
        2.43598         31.9342         4.27414 
        2.44211           31.83         4.24835 
        2.44823         31.6462         4.22283 
        2.45437         31.5603         4.19745 
        2.46052         31.3926         4.17226 
        2.46665         31.2785         4.14732 
        2.47279         31.1434         4.12259 
        2.47892         30.9676         4.09806 
        2.48507         30.8459          4.0737 
         2.4912         30.7408         4.04958 
