# k  (h/Mpc)    Pcb(k)  (Mpc/h)^3    Pcb_linear(k)  (Mpc/h)^3
     0.00783031         19866.4           19956 
       0.013688         23647.7         24356.5 
       0.019231         23948.6         24385.3 
      0.0249154         22269.1         22230.4 
      0.0312784         18666.8         18905.3 
      0.0375637         15495.7           15822 
      0.0433917         13498.8         13603.9 
      0.0492413         11864.9         12048.8 
      0.0555754         10855.7         10946.9 
      0.0619321         9747.28         10171.3 
       0.067871         9248.22         9511.77 
      0.0738098         8630.74         8775.02 
      0.0800417          7785.8         7885.75 
      0.0862327         6861.36          6949.4 
      0.0921407         6120.92         6106.93 
      0.0982031         5522.76         5380.64 
       0.104506         4897.67         4817.43 
       0.110769         4558.71         4441.58 
       0.116806         4378.13         4205.96 
       0.122832         4150.87         4032.79 
       0.129052          3925.9         3857.28 
       0.135211         3810.64         3645.29 
       0.141259         3502.74         3389.83 
       0.147318          3226.7         3103.91 
       0.153489         3005.58         2814.12 
       0.159709         2866.53         2555.91 
       0.165845         2618.53         2353.99 
       0.171974         2543.02         2207.99 
       0.178125         2467.26         2106.98 
       0.184229         2279.73         2033.39 
        0.19034         2254.84         1966.21 
       0.196428            2190         1890.02 
       0.202534         2057.99         1797.03 
       0.208729         2009.38         1687.79 
       0.214876         1908.61         1573.54 
       0.220989         1814.73         1465.27 
       0.227147         1758.25         1370.66 
        0.23329         1686.41         1295.06 
       0.239377         1679.44         1237.94 
       0.245482         1601.73         1193.88 
       0.251667         1544.92         1156.03 
       0.257832         1517.04         1118.59 
       0.263955         1450.12         1077.41 
       0.270079         1412.23         1030.84 
        0.27624         1353.35         980.197 
       0.282372         1337.78         929.316 
        0.28843         1307.66         882.062 
       0.294538          1250.9         840.103 
       0.300721         1228.87         804.418 
        0.30691         1194.73         775.013 
       0.313033         1151.47         750.244 
       0.319153          1140.5         727.609 
       0.325316         1124.27         704.827 
        0.33145          1097.6         681.027 
       0.337538         1062.52         655.968 
       0.343633         1038.94         630.156 
       0.349808         1020.54         604.336 
       0.355968         999.099         580.086 
       0.362074          969.23         558.346 
       0.368217         965.108         538.985 
       0.374374         949.896         521.906 
       0.380519         917.249         506.457 
       0.386598         912.376         492.038 
       0.392688         887.773         477.818 
        0.39888         872.341         463.152 
       0.405048         852.985         448.352 
       0.411186         851.087         433.605 
       0.417313         843.382         419.221 
       0.423458         819.779         405.543 
       0.429607         798.758         392.814 
       0.435692         791.014         381.204 
       0.441815         775.444         370.467 
       0.447964         766.994         360.384 
       0.454126         756.416         350.705 
       0.460267         747.696         341.297 
       0.466387         732.685         332.045 
        0.47254         723.332         322.795 
       0.478662         711.605          313.73 
       0.484765         703.273          304.96 
       0.490885         696.789         296.536 
       0.497035          682.31         288.485 
       0.503198         681.287         280.869 
       0.509342         668.324         273.711 
       0.515458         655.298         266.934 
       0.521598         655.035         260.376 
       0.527764         639.226         253.961 
       0.533884         631.055         247.741 
           0.54         627.753         241.666 
       0.546137         618.375         235.708 
       0.552299         613.801         229.883 
       0.558452           605.8         224.264 
       0.564573         603.646         218.898 
       0.570708         595.304         213.757 
       0.576825          583.84         208.845 
       0.582926         582.143         204.123 
       0.589034         573.641         199.543 
       0.595184          567.53         195.063 
       0.601379         558.825         190.675 
       0.607522         550.326         186.442 
       0.613639         549.457         182.339 
       0.619772         544.875         178.335 
       0.625918         536.676         174.438 
       0.632068         534.238         170.658 
       0.638161          526.92         167.035 
         0.6443         520.716         163.508 
       0.650464         516.856         160.087 
       0.656582         512.339         156.796 
       0.662703         507.097         153.598 
       0.668861         500.469         150.465 
       0.675024         498.528         147.407 
       0.681124         487.452         144.457 
       0.687237         487.913         141.577 
       0.693381         480.219          138.76 
       0.699536         481.058         136.017 
       0.705665         472.737         133.366 
       0.711789         471.722         130.793 
       0.717957         465.748         128.275 
        0.72409         461.567          125.84 
       0.730186         460.731         123.483 
       0.736317         454.019         121.173 
       0.742472         449.202         118.912 
       0.748622         448.721         116.708 
        0.75476         441.265         114.563 
       0.760888         440.197         112.475 
       0.767043         436.839          110.43 
       0.773185           432.8          108.44 
       0.779291         428.821         106.512 
       0.785407         425.342         104.629 
       0.791564         423.414         102.781 
       0.797719         416.557          100.98 
       0.803834         416.859         99.2336 
       0.809972         410.409          97.523 
       0.816124         407.846         95.8493 
       0.822261         405.094         94.2194 
       0.828378         403.238         92.6323 
       0.834502         397.001         91.0801 
       0.840667         395.272         89.5534 
       0.846816         391.832          88.066 
       0.852925         391.909         86.6217 
       0.859047         386.376         85.2068 
       0.865192         384.499          83.819 
       0.871341         380.352         82.4613 
       0.877463         379.235           81.14 
       0.883569         376.111         79.8511 
       0.889708         371.692         78.5838 
       0.895864         367.591          77.341 
       0.902008         366.836         76.1278 
       0.908149          362.94         74.9414 
       0.914301         361.854         73.7785 
       0.920448         357.103         72.6415 
       0.926574         355.338         71.5326 
       0.932687         354.092         70.4492 
       0.938823         350.327         69.3844 
       0.944975         349.387         68.3392 
       0.951105         346.466         67.3194 
       0.957225         342.118         66.3222 
       0.963368         341.988         65.3418 
       0.969511         337.853         64.3813 
       0.975621         334.886         63.4453 
       0.981748         333.879         62.5256 
       0.987916         331.513         61.6184 
        0.99406         328.151         60.7326 
        1.00019         324.806          59.866 
        1.00632           324.2         59.0171 
        1.01246         321.267         58.1835 
        1.01859         318.909         57.3673 
        1.02471         317.133         56.5679 
        1.03085         315.407         55.7809 
        1.03698         313.086         55.0107 
        1.04314          310.98         54.2517 
        1.04929         309.585         53.5089 
        1.05541         306.879          52.783 
        1.06154         303.868         52.0688 
        1.06769         301.888         51.3668 
        1.07382         299.248         50.6801 
        1.07993         299.001         50.0075 
        1.08607         296.946         49.3444 
        1.09222         294.102         48.6927 
        1.09836         292.474         48.0535 
        1.10449         290.433         47.4266 
        1.11063         289.125         46.8102 
        1.11677          285.98         46.2049 
         1.1229          284.94         45.6115 
        1.12903         282.367          45.028 
        1.13518         280.762         44.4543 
        1.14131         278.887         43.8908 
        1.14745         276.746         43.3375 
        1.15359         274.356         42.7936 
        1.15973         273.025         42.2589 
        1.16584         271.558         41.7357 
        1.17197         269.755         41.2206 
        1.17811         266.713         40.7126 
        1.18424         265.856         40.2147 
        1.19038         264.541         39.7237 
        1.19652         261.774         39.2411 
        1.20267         260.472         38.7665 
        1.20881          259.18         38.2999 
        1.21495         256.938         37.8417 
        1.22108         255.791          37.391 
         1.2272         252.882         36.9488 
        1.23334         251.371         36.5127 
        1.23949         250.145         36.0825 
        1.24562         248.493         35.6606 
        1.25174         247.551         35.2459 
        1.25789         244.979         34.8367 
        1.26402         244.049         34.4346 
        1.27014         242.421         34.0399 
        1.27628          240.93         33.6502 
        1.28244         238.366         33.2658 
        1.28858         237.755          32.888 
        1.29471         236.096         32.5169 
        1.30084         235.635         32.1519 
        1.30697         232.913         31.7919 
        1.31312         231.842         31.4369 
        1.31925         230.488         31.0885 
        1.32537         229.565         30.7457 
        1.33151         226.914         30.4068 
        1.33765         225.859         30.0733 
        1.34378         225.055         29.7454 
        1.34992         222.623         29.4222 
        1.35606         221.333         29.1031 
         1.3622          219.41         28.7893 
        1.36833         219.479         28.4809 
        1.37445         218.028         28.1771 
        1.38059         215.409         27.8769 
        1.38675         213.985         27.5803 
        1.39288         213.629         27.2892 
        1.39901         211.607         27.0025 
        1.40515         210.436         26.7192 
         1.4113         209.117         26.4401 
        1.41742         207.701          26.166 
        1.42355         206.131         25.8953 
         1.4297         205.087         25.6276 
        1.43585         203.933         25.3638 
        1.44198         202.553         25.1047 
        1.44809         201.562         24.8498 
        1.45423         200.312         24.5974 
        1.46036         199.631          24.349 
        1.46649          197.75         24.1039 
        1.47263         196.424          23.862 
        1.47877         195.271         23.6235 
        1.48491          193.95         23.3879 
        1.49104         192.087          23.156 
        1.49718          191.34         22.9271 
        1.50333         190.191         22.7009 
        1.50947          188.75         22.4782 
         1.5156         187.937         22.2589 
        1.52172         186.571         22.0424 
        1.52787         185.586         21.8285 
          1.534         184.781         21.6176 
        1.54013         183.272         21.4097 
        1.54627         182.316         21.2041 
        1.55241         181.399         21.0013 
        1.55855         180.091         20.8013 
        1.56467          178.93         20.6045 
         1.5708         177.708         20.4097 
        1.57695         177.102         20.2172 
        1.58308          175.93         20.0275 
        1.58922         174.363         19.8402 
        1.59535         173.334         19.6553 
         1.6015          172.47         19.4725 
        1.60764         171.279         19.2922 
        1.61376         170.188         19.1146 
        1.61989         169.175         18.9391 
        1.62604         168.432         18.7654 
        1.63218         166.993          18.594 
        1.63831         166.373         18.4251 
        1.64444         165.146         18.2582 
        1.65059         164.155         18.0931 
        1.65673         163.046         17.9301 
        1.66285         162.104         17.7696 
        1.66898         161.201          17.611 
        1.67512         160.114          17.454 
        1.68127         159.068         17.2988 
         1.6874         158.248         17.1459 
        1.69353         157.674         16.9948 
        1.69967         156.215         16.8453 
        1.70581         155.546         16.6976 
        1.71193         154.528         16.5522 
        1.71806         153.498         16.4082 
        1.72421         152.695         16.2657 
        1.73035         151.733          16.125 
        1.73649         150.534          15.986 
        1.74262         149.794         15.8488 
        1.74876         148.885          15.713 
        1.75489         148.378         15.5792 
        1.76101         147.338         15.4469 
        1.76715         146.457          15.316 
        1.77329         145.591         15.1865 
        1.77943         144.512         15.0583 
        1.78557         143.489         14.9319 
        1.79171         142.815         14.8069 
        1.79785         141.725         14.6832 
        1.80399         141.118         14.5611 
        1.81012         140.644         14.4404 
        1.81625         139.178         14.3212 
        1.82239         138.925         14.2032 
        1.82853         137.742         14.0865 
        1.83466         136.894         13.9713 
        1.84078         136.235         13.8574 
        1.84692         135.552         13.7447 
        1.85306         134.622         13.6331 
         1.8592          133.89         13.5228 
        1.86533         132.826         13.4139 
        1.87147         132.053          13.306 
        1.87761         131.442         13.1993 
        1.88375         130.464         13.0939 
        1.88988         129.819         12.9897 
        1.89601         129.059         12.8866 
        1.90215         128.503         12.7845 
        1.90829         127.295         12.6836 
        1.91442         126.557         12.5837 
        1.92056         126.235         12.4851 
         1.9267         125.236         12.3873 
        1.93284         124.222         12.2906 
        1.93897         124.002         12.1951 
        1.94509         123.002         12.1008 
        1.95123         122.339         12.0072 
        1.95737         121.854         11.9146 
        1.96349         120.992         11.8232 
        1.96964         120.202         11.7325 
        1.97578         119.519         11.6426 
        1.98192         119.002          11.554 
        1.98805         118.247         11.4662 
        1.99419         117.489         11.3793 
        2.00033         116.837         11.2933 
        2.00647         116.023         11.2082 
         2.0126         115.348         11.1241 
        2.01874         114.637         11.0407 
        2.02488         114.152         10.9582 
        2.03101         113.522         10.8766 
        2.03714          113.01         10.7959 
        2.04328         112.084          10.716 
        2.04941         111.409         10.6369 
        2.05554         110.902         10.5587 
        2.06167         110.296         10.4811 
        2.06781          109.73         10.4043 
        2.07396         108.913         10.3282 
        2.08009         108.483          10.253 
        2.08622         107.823         10.1786 
        2.09237         107.046         10.1048 
        2.09851         106.638         10.0317 
        2.10464         106.069         9.95945 
        2.11077         105.443           9.888 
        2.11691         104.749          9.8171 
        2.12305         104.075         9.74688 
        2.12918         103.655         9.67752 
        2.13531          102.95         9.60883 
        2.14145         102.427         9.54064 
         2.1476         101.666         9.47304 
        2.15372         101.172         9.40643 
        2.15985         100.644         9.34039 
        2.16599          99.862         9.27479 
        2.17213         99.6324         9.20989 
        2.17827         98.9768         9.14563 
         2.1844         98.2728         9.08203 
        2.19054         97.8762         9.01902 
        2.19666         97.2853         8.95669 
         2.2028         96.8522          8.8949 
        2.20893         96.2319         8.83365 
        2.21508         95.5447         8.77291 
        2.22122          94.944         8.71272 
        2.22736         94.7656         8.65322 
        2.23349         94.3087         8.59429 
        2.23962         93.5813         8.53587 
        2.24577         92.8672         8.47795 
         2.2519          92.386         8.42064 
        2.25802         91.8508         8.36395 
        2.26417         91.4611         8.30762 
        2.27031         90.9336         8.25176 
        2.27644         90.3324         8.19658 
        2.28257         90.2728          8.1419 
        2.28872         89.5842         8.08761 
        2.29486         89.0184         8.03383 
        2.30099         88.4226         7.98065 
        2.30712         88.0519         7.92793 
        2.31326         87.4435         7.87559 
         2.3194         87.0805         7.82375 
        2.32553         86.5658         7.77247 
        2.33166         86.1506         7.72166 
         2.3378         85.6032         7.67124 
        2.34394         85.1653         7.62125 
        2.35007         84.6635         7.57178 
        2.35619         84.1084          7.5228 
        2.36233         83.7567         7.47414 
        2.36848         83.3855         7.42581 
        2.37462         82.9878         7.37801 
        2.38075         82.3618         7.33067 
        2.38689         82.0127          7.2837 
        2.39303         81.6473         7.23716 
        2.39916          81.139         7.19107 
        2.40529         80.6273         7.14538 
        2.41143         80.1891         7.10006 
        2.41757         79.6202         7.05511 
         2.4237         79.3667         7.01062 
        2.42983         78.8675         6.96653 
        2.43598         78.3594          6.9227 
        2.44211         78.0178         6.87931 
        2.44823          77.544          6.8364 
        2.45437         77.3684         6.79373 
        2.46052         76.8851         6.75139 
        2.46665         76.3756         6.70948 
        2.47279         75.9839         6.66795 
        2.47892         75.5095         6.62673 
        2.48507         75.2709         6.58583 
         2.4912         74.7185         6.54534 
