# k  (h/Mpc)    P(k)  (Mpc/h)^3    P_linear(k)  (Mpc/h)^3
     0.00783031         9487.28         9559.91 
       0.013688         11669.1         11944.8 
       0.019231         12038.8           12200 
      0.0249154         11356.4         11346.8 
      0.0312784         9777.78         9857.98 
      0.0375637         8281.26         8399.94 
      0.0433917         7280.45         7309.12 
      0.0492413            6448         6517.72 
      0.0555754         5917.83         5939.48 
      0.0619321         5362.65         5527.98 
       0.067871         5095.85         5185.59 
      0.0738098         4757.95         4812.48 
      0.0800417         4330.97          4364.6 
      0.0862327         3846.25          3887.2 
      0.0921407         3432.97         3447.78 
      0.0982031         3091.47         3057.54 
       0.104506         2745.44         2743.51 
       0.110769         2542.11         2524.78 
       0.116806         2437.42         2382.86 
       0.122832         2302.16         2279.68 
       0.129052         2200.47         2182.41 
       0.135211         2123.96         2072.01 
       0.141259          1968.4         1941.02 
       0.147318         1807.48         1792.31 
       0.153489         1680.68          1637.1 
       0.159709         1583.02         1493.36 
       0.165845         1437.56         1375.81 
       0.171974         1394.99         1286.63 
       0.178125         1339.87         1222.43 
       0.184229         1250.05         1175.79 
        0.19034         1229.01         1136.21 
       0.196428         1191.86         1095.11 
       0.202534         1114.61         1046.91 
       0.208729         1089.26         990.055 
       0.214876         1037.53          928.92 
       0.220989         968.403         868.646 
       0.227147         940.003         813.525 
        0.23329         900.554         767.381 
       0.239377         885.634         731.105 
       0.245482         841.374         702.691 
       0.251667         810.261         679.136 
       0.257832         801.171         657.523 
       0.263955          759.86         635.156 
       0.270079         734.487         610.496 
        0.27624         702.919         583.394 
       0.282372         687.588         555.351 
        0.28843         679.651         528.308 
       0.294538         644.101         503.251 
       0.300721         625.135         481.168 
        0.30691         613.918         462.479 
       0.313033         587.001         446.853 
       0.319153         578.056         433.031 
       0.325316         567.688         419.866 
        0.33145         554.749         406.604 
       0.337538         534.713         392.898 
       0.343633         519.205         378.621 
       0.349808          506.23         364.031 
       0.355968         496.272         349.887 
       0.362074         480.029          336.78 
       0.368217         476.604         324.849 
       0.374374         467.189         314.151 
       0.380519          448.52         304.594 
       0.386598         443.439         295.878 
       0.392688         432.972         287.531 
        0.39888         421.734         279.172 
       0.405048         413.926         270.779 
       0.411186         411.946         262.389 
       0.417313         405.901         254.094 
       0.423458         394.224         246.006 
       0.429607         383.775         238.325 
       0.435692         377.632         231.239 
       0.441815         371.153         224.612 
       0.447964         362.712         218.429 
       0.454126         358.124         212.604 
       0.460267         352.479          207.03 
       0.466387         345.996         201.602 
        0.47254         341.226         196.237 
       0.478662         332.983         190.972 
       0.484765         329.101         185.811 
       0.490885         325.308         180.784 
       0.497035         319.325         175.941 
       0.503198         317.969         171.322 
       0.509342         309.881         166.946 
       0.515458         305.298          162.81 
       0.521598         299.667         158.852 
       0.527764         295.748         155.025 
       0.533884         294.425         151.332 
           0.54         289.314         147.723 
       0.546137         282.926         144.187 
       0.552299         281.756         140.727 
       0.558452         276.993          137.37 
       0.564573         274.727         134.136 
       0.570708          269.84         131.009 
       0.576825         265.415         128.014 
       0.582926         263.091         125.148 
       0.589034         259.231         122.384 
       0.595184          257.43         119.691 
       0.601379         253.004         117.055 
       0.607522             248         114.509 
       0.613639         246.674          112.04 
       0.619772         245.107         109.632 
       0.625918         241.785         107.287 
       0.632068         237.658         105.008 
       0.638161         235.892         102.818 
         0.6443         233.787         100.677 
       0.650464          229.81         98.5935 
       0.656582         227.928         96.5898 
       0.662703         226.281         94.6462 
       0.668861         221.994         92.7479 
       0.675024         221.438         90.9008 
       0.681124         218.573         89.1212 
       0.687237         216.398         87.3823 
       0.693381         213.744         85.6784 
       0.699536         211.878         84.0151 
       0.705665          209.63         82.4026 
       0.711789         207.435         80.8346 
       0.717957         205.203         79.2986 
        0.72409         202.924         77.8138 
       0.730186         203.733         76.3781 
       0.736317         200.197         74.9722 
       0.742472         197.633         73.5974 
       0.748622         194.885         72.2585 
        0.75476         195.516         70.9554 
       0.760888          192.93         69.6856 
       0.767043         190.088         68.4412 
       0.773185         188.694         67.2293 
       0.779291         186.208         66.0536 
       0.785407         185.345         64.9043 
       0.791564         183.617         63.7754 
       0.797719         180.791         62.6745 
       0.803834         181.582          61.607 
       0.809972         179.647         60.5612 
       0.816124         176.852         59.5378 
       0.822261         175.537         58.5412 
       0.828378         175.298         57.5707 
       0.834502         172.698         56.6216 
       0.840667         172.399         55.6879 
       0.846816         169.865         54.7779 
       0.852925           168.8         53.8941 
       0.859047         167.142         53.0281 
       0.865192         166.689         52.1783 
       0.871341         164.599         51.3466 
       0.877463         163.183          50.537 
       0.883569         163.056         49.7469 
       0.889708         161.444         48.9699 
       0.895864         159.947         48.2075 
       0.902008         158.352         47.4631 
       0.908149         156.738          46.735 
       0.914301         156.294         46.0211 
       0.920448         155.801         45.3228 
       0.926574         153.441         44.6417 
       0.932687         153.135          43.976 
       0.938823         151.943         43.3216 
       0.944975          150.71         42.6792 
       0.951105          149.31         42.0521 
       0.957225         148.684         41.4388 
       0.963368         147.412         40.8357 
       0.969511         145.887         40.2446 
       0.975621         144.651         39.6685 
       0.981748         143.786         39.1023 
       0.987916         143.079         38.5436 
        0.99406         142.167          37.998 
        1.00019         141.104         37.4641 
        1.00632          140.18          36.941 
        1.01246          139.19         36.4272 
        1.01859         138.212          35.924 
        1.02471         137.206          35.431 
        1.03085         136.154         34.9456 
        1.03698         135.118         34.4703 
        1.04314         134.687         34.0019 
        1.04929         134.026         33.5434 
        1.05541         133.024         33.0952 
        1.06154         131.915         32.6541 
        1.06769         131.061         32.2205 
        1.07382         130.385         31.7962 
        1.07993         129.398         31.3806 
        1.08607         128.541         30.9707 
        1.09222         127.759         30.5677 
        1.09836         126.845         30.1725 
        1.10449         125.935         29.7847 
        1.11063         125.168         29.4033 
        1.11677         124.462         29.0288 
         1.1229         123.445         28.6615 
        1.12903         122.841         28.3003 
        1.13518         121.971          27.945 
        1.14131         121.318          27.596 
        1.14745         120.616         27.2533 
        1.15359          119.33         26.9163 
        1.15973         119.004         26.5849 
        1.16584          118.27         26.2606 
        1.17197         117.636         25.9413 
        1.17811         116.577         25.6263 
        1.18424         116.042         25.3175 
        1.19038         115.488         25.0129 
        1.19652         114.679         24.7135 
        1.20267         113.919         24.4189 
        1.20881         113.145         24.1293 
        1.21495         112.677         23.8448 
        1.22108         111.997          23.565 
         1.2272         111.105         23.2904 
        1.23334         110.846         23.0195 
        1.23949         110.202         22.7523 
        1.24562         109.315         22.4901 
        1.25174          108.68         22.2324 
        1.25789         108.024          21.978 
        1.26402          107.64          21.728 
        1.27014         106.904         21.4826 
        1.27628         105.887         21.2402 
        1.28244         105.773         21.0011 
        1.28858         104.802          20.766 
        1.29471          104.24         20.5351 
        1.30084         103.531         20.3078 
        1.30697         103.189         20.0837 
        1.31312         102.446         19.8627 
        1.31925         101.737         19.6457 
        1.32537         101.362         19.4322 
        1.33151         101.095         19.2211 
        1.33765         100.111         19.0132 
        1.34378         99.8232         18.8089 
        1.34992         99.4361         18.6074 
        1.35606         98.6648         18.4085 
         1.3622         98.4829         18.2128 
        1.36833         97.3731         18.0205 
        1.37445         97.1137          17.831 
        1.38059         96.6342         17.6437 
        1.38675         95.8295         17.4587 
        1.39288         95.3776          17.277 
        1.39901         94.7083          17.098 
        1.40515         94.3755         16.9212 
         1.4113         93.8771         16.7469 
        1.41742         93.2415         16.5758 
        1.42355          92.973         16.4068 
         1.4297         92.2403         16.2396 
        1.43585         91.7375         16.0748 
        1.44198         91.1446         15.9129 
        1.44809         90.5212         15.7536 
        1.45423         90.4173         15.5958 
        1.46036         89.6347         15.4405 
        1.46649         89.0831         15.2873 
        1.47263         88.7646          15.136 
        1.47877         88.2358         14.9869 
        1.48491          87.773         14.8395 
        1.49104         86.9363         14.6944 
        1.49718         86.8193         14.5512 
        1.50333         86.3886         14.4096 
        1.50947          86.017         14.2703 
         1.5156         85.6461         14.1329 
        1.52172         84.9021         13.9974 
        1.52787         84.5089         13.8634 
          1.534         84.0561         13.7314 
        1.54013         83.7628         13.6011 
        1.54627         83.0303         13.4724 
        1.55241         82.8262         13.3453 
        1.55855         82.2062           13.22 
        1.56467         81.5338         13.0967 
         1.5708         81.2444         12.9746 
        1.57695         80.9473         12.8538 
        1.58308         80.4859         12.7349 
        1.58922         80.3036         12.6174 
        1.59535         79.9445         12.5015 
         1.6015         79.3773         12.3868 
        1.60764         78.8912         12.2737 
        1.61376         78.5022         12.1623 
        1.61989         77.9513         12.0521 
        1.62604          77.684         11.9431 
        1.63218         77.4068         11.8355 
        1.63831         76.8973         11.7295 
        1.64444           76.55         11.6248 
        1.65059         76.0644          11.521 
        1.65673         75.6853         11.4187 
        1.66285         75.1584         11.3179 
        1.66898         74.7501         11.2183 
        1.67512         74.4064         11.1196 
        1.68127         74.1702         11.0221 
         1.6874         73.6695          10.926 
        1.69353         73.2337         10.8311 
        1.69967          72.984          10.737 
        1.70581         72.6104         10.6442 
        1.71193         72.1577         10.5528 
        1.71806         71.7805         10.4622 
        1.72421         71.4882         10.3726 
        1.73035         71.2047         10.2841 
        1.73649         70.6972         10.1966 
        1.74262         70.2301         10.1103 
        1.74876         69.9867         10.0249 
        1.75489         69.5665         9.94064 
        1.76101         69.1633         9.85739 
        1.76715         68.9166         9.77499 
        1.77329         68.4914         9.69342 
        1.77943         68.2913         9.61275 
        1.78557         67.9593         9.53312 
        1.79171         67.5165         9.45438 
        1.79785         67.1272         9.37652 
        1.80399         66.8963         9.29955 
        1.81012         66.4861         9.22354 
        1.81625         66.1779         9.14842 
        1.82239         65.8857         9.07403 
        1.82853         65.3843          9.0005 
        1.83466         65.1348         8.92786 
        1.84078         64.8589          8.8561 
        1.84692          64.699         8.78501 
        1.85306         64.2637         8.71461 
         1.8592          63.962          8.6451 
        1.86533         63.5887         8.57639 
        1.87147         63.2501         8.50834 
        1.87761         62.8573         8.44101 
        1.88375          62.592         8.37448 
        1.88988         62.1845         8.30875 
        1.89601         61.9861         8.24368 
        1.90215         61.5514         8.17926 
        1.90829         61.3332         8.11557 
        1.91442         60.9859         8.05254 
        1.92056         60.8323         7.99024 
         1.9267         60.4191         7.92854 
        1.93284         60.1942         7.86745 
        1.93897         59.8609         7.80712 
        1.94509          59.514         7.74755 
        1.95123           59.27         7.68846 
        1.95737         58.9823         7.62993 
        1.96349           58.72         7.57217 
        1.96964         58.3684         7.51484 
        1.97578          58.029         7.45808 
        1.98192         57.7491         7.40202 
        1.98805         57.3592         7.34653 
        1.99419         57.2105         7.29161 
        2.00033         56.8677         7.23722 
        2.00647         56.6324          7.1834 
         2.0126         56.3409         7.13022 
        2.01874         56.2579          7.0775 
        2.02488          55.871         7.02527 
        2.03101         55.5736         6.97366 
        2.03714         55.3603         6.92262 
        2.04328         55.0114         6.87203 
        2.04941         54.5807         6.82199 
        2.05554         54.5303         6.77248 
        2.06167         54.3139          6.7234 
        2.06781         53.9421          6.6748 
        2.07396         53.6529         6.62661 
        2.08009          53.414         6.57898 
        2.08622          53.173         6.53187 
        2.09237         52.9024         6.48513 
        2.09851         52.5454         6.43884 
        2.10464         52.3662         6.39308 
        2.11077         52.1665         6.34781 
        2.11691         51.8706         6.30289 
        2.12305         51.5765          6.2584 
        2.12918         51.3148         6.21445 
        2.13531         51.0894         6.17091 
        2.14145         50.8312          6.1277 
         2.1476          50.692         6.08484 
        2.15372         50.4278         6.04262 
        2.15985         50.0903         6.00075 
        2.16599         49.8282         5.95915 
        2.17213         49.6151           5.918 
        2.17827         49.4068         5.87725 
         2.1844          49.091         5.83691 
        2.19054         48.9946         5.79695 
        2.19666         48.6941         5.75741 
         2.2028         48.4115         5.71821 
        2.20893         48.1658         5.67935 
        2.21508         47.8643         5.64081 
        2.22122         47.7021         5.60261 
        2.22736         47.4341         5.56485 
        2.23349         47.2701         5.52745 
        2.23962          47.059         5.49037 
        2.24577         46.7665         5.45359 
         2.2519         46.5782         5.41721 
        2.25802         46.3482         5.38121 
        2.26417          46.129         5.34544 
        2.27031         45.9208         5.30997 
        2.27644         45.7774         5.27492 
        2.28257         45.3798         5.24018 
        2.28872         45.3476          5.2057 
        2.29486         45.0817         5.17153 
        2.30099         44.7424         5.13774 
        2.30712         44.6343         5.10424 
        2.31326         44.4143         5.07098 
         2.3194         44.1554         5.03803 
        2.32553         44.0339         5.00543 
        2.33166         43.7435         4.97314 
         2.3378         43.5302         4.94108 
        2.34394         43.3193          4.9093 
        2.35007          43.107         4.87784 
        2.35619         42.9468          4.8467 
        2.36233         42.6603         4.81576 
        2.36848         42.5549         4.78502 
        2.37462         42.2146         4.75461 
        2.38075         42.1521          4.7245 
        2.38689         41.9587         4.69463 
        2.39303         41.7291         4.66501 
        2.39916         41.5257         4.63569 
        2.40529          41.358         4.60661 
        2.41143         41.1423         4.57777 
        2.41757         41.0081         4.54916 
         2.4237           40.82         4.52085 
        2.42983         40.5457         4.49278 
        2.43598           40.37         4.46487 
        2.44211         40.1458         4.43725 
        2.44823         39.9642         4.40992 
        2.45437         39.8134         4.38275 
        2.46052         39.5469         4.35579 
        2.46665         39.4051          4.3291 
        2.47279         39.1739         4.30264 
        2.47892         39.0454         4.27638 
        2.48507         38.9434         4.25032 
         2.4912         38.5854         4.22453 
