# k  (h/Mpc)    P(k)  (Mpc/h)^3    P_linear(k)  (Mpc/h)^3
     0.00783031         1664.13         1678.01 
       0.013688         2071.05         2097.71 
       0.019231         2130.61         2143.15 
      0.0249154         1994.54         1993.64 
      0.0312784          1729.7         1732.29 
      0.0375637         1471.16         1476.21 
      0.0433917         1286.94         1284.58 
      0.0492413         1143.83         1145.54 
      0.0555754         1047.05         1043.95 
      0.0619321         962.355          971.65 
       0.067871         908.973         911.486 
      0.0738098         844.855         845.917 
      0.0800417         768.359         767.201 
      0.0862327         682.721         683.292 
      0.0921407         605.926         606.057 
      0.0982031         540.599         537.464 
       0.104506         481.649         482.266 
       0.110769         444.069         443.819 
       0.116806         422.428         418.873 
       0.122832         401.123         400.738 
       0.129052         385.224          383.64 
       0.135211         367.458         364.235 
       0.141259         342.579         341.209 
       0.147318          314.73          315.07 
       0.153489         289.374         287.784 
       0.159709         266.232         262.518 
       0.165845         242.771         241.854 
       0.171974         231.143         226.178 
       0.178125         219.614         214.892 
       0.184229         209.371         206.693 
        0.19034         203.977         199.737 
       0.196428         196.463         192.512 
       0.202534         185.396         184.038 
       0.208729         177.773         174.044 
       0.214876         168.392         163.297 
       0.220989         155.651         152.701 
       0.227147         148.725         143.012 
        0.23329         141.115           134.9 
       0.239377         135.388         128.523 
       0.245482         129.491         123.528 
       0.251667         124.371         119.387 
       0.257832         122.098         115.588 
       0.263955         116.523         111.656 
       0.270079         112.106         107.321 
        0.27624         106.799         102.557 
       0.282372         102.375         97.6271 
        0.28843         99.4345         92.8731 
       0.294538         94.6134         88.4683 
       0.300721         90.0765         84.5862 
        0.30691          87.867          81.301 
       0.313033         84.5079         78.5541 
       0.319153          82.985         76.1243 
       0.325316         79.4621         73.8099 
        0.33145         76.9225         71.4785 
       0.337538         74.6014         69.0692 
       0.343633         72.3289         66.5594 
       0.349808         69.6539         63.9944 
       0.355968         67.1879         61.5081 
       0.362074         65.5959         59.2039 
       0.368217         63.4537         57.1066 
       0.374374         61.9753          55.226 
       0.380519          59.425         53.5459 
       0.386598         57.7468         52.0137 
       0.392688         56.0661         50.5464 
        0.39888         54.9755         49.0768 
       0.405048         53.5984         47.6014 
       0.411186         52.0866         46.1266 
       0.417313         50.5483         44.6683 
       0.423458         48.9861         43.2466 
       0.429607         48.0536         41.8962 
       0.435692         47.1178         40.6506 
       0.441815         45.3283         39.4856 
       0.447964         43.9455         38.3987 
       0.454126         43.1913         37.3746 
       0.460267          42.688         36.3947 
       0.466387         41.4544         35.4406 
        0.47254         40.7824         34.4975 
       0.478662         39.4852         33.5718 
       0.484765         38.6193         32.6645 
       0.490885         37.4851          31.781 
       0.497035          36.799         30.9295 
       0.503198          35.993         30.1176 
       0.509342         34.9877         29.3483 
       0.515458         34.5133         28.6212 
       0.521598         33.6974         27.9253 
       0.527764         33.2114         27.2526 
       0.533884         32.3841         26.6034 
           0.54         31.7514          25.969 
       0.546137         30.7881         25.3473 
       0.552299         30.2559          24.739 
       0.558452         29.6056         24.1489 
       0.564573         29.2686         23.5804 
       0.570708         28.5114         23.0307 
       0.576825         28.0886         22.5042 
       0.582926         27.5635         22.0004 
       0.589034         27.0155         21.5145 
       0.595184         26.6643         21.0411 
       0.601379         25.9374         20.5777 
       0.607522         25.5126         20.1301 
       0.613639         25.0552          19.696 
       0.619772         24.6375         19.2727 
       0.625918         24.1304         18.8605 
       0.632068         23.9005           18.46 
       0.638161         23.4009         18.0749 
         0.6443         23.0055         17.6985 
       0.650464          22.435         17.3322 
       0.656582         22.2815           16.98 
       0.662703         21.9939         16.6383 
       0.668861         21.4015         16.3046 
       0.675024         21.1051         15.9799 
       0.681124         21.0068         15.6671 
       0.687237         20.5603         15.3614 
       0.693381         20.0925         15.0618 
       0.699536          19.991         14.7694 
       0.705665          19.607          14.486 
       0.711789         19.2422         14.2103 
       0.717957         18.8464         13.9403 
        0.72409         18.6794         13.6793 
       0.730186          18.571         13.4269 
       0.736317         18.1648         13.1797 
       0.742472         17.9392         12.9381 
       0.748622         17.6516         12.7027 
        0.75476         17.2028         12.4736 
       0.760888         17.1271         12.2504 
       0.767043         16.8194         12.0316 
       0.773185         16.6239         11.8186 
       0.779291         16.4839         11.6119 
       0.785407          16.182         11.4099 
       0.791564         16.0368         11.2114 
       0.797719         15.6941         11.0179 
       0.803834         15.6126         10.8302 
       0.809972         15.3091         10.6464 
       0.816124          15.134         10.4665 
       0.822261         14.9603         10.2913 
       0.828378         14.7764         10.1206 
       0.834502         14.6175          9.9538 
       0.840667         14.4595         9.78966 
       0.846816         14.1437          9.6297 
       0.852925         14.0727         9.47433 
       0.859047         13.8918         9.32208 
       0.865192         13.6951         9.17269 
       0.871341         13.5116         9.02649 
       0.877463         13.3552         8.88416 
       0.883569         13.2611         8.74527 
       0.889708         13.0398         8.60867 
       0.895864         12.8789         8.47465 
       0.902008         12.7217         8.34379 
       0.908149         12.5482         8.21579 
       0.914301           12.47         8.09028 
       0.920448         12.2881         7.96754 
       0.926574         12.2129         7.84779 
       0.932687         12.0202         7.73077 
       0.938823         11.8591         7.61574 
       0.944975          11.774         7.50279 
       0.951105         11.6158         7.39256 
       0.957225         11.5456         7.28474 
       0.963368         11.3745         7.17872 
       0.969511         11.2526         7.07482 
       0.975621         11.1368         6.97354 
       0.981748         10.9806           6.874 
       0.987916         10.8947         6.77579 
        0.99406         10.7944         6.67987 
        1.00019         10.6989         6.58602 
        1.00632         10.6005         6.49406 
        1.01246         10.4737         6.40373 
        1.01859          10.353         6.31527 
        1.02471         10.2207          6.2286 
        1.03085         10.1829         6.14327 
        1.03698         10.0771         6.05972 
        1.04314         9.95722         5.97738 
        1.04929         9.82027         5.89677 
        1.05541         9.76327         5.81798 
        1.06154         9.67261         5.74045 
        1.06769         9.61584         5.66421 
        1.07382         9.45208         5.58963 
        1.07993          9.3681         5.51656 
        1.08607         9.32126          5.4445 
        1.09222          9.1964         5.37366 
        1.09836         9.16924         5.30418 
        1.10449         9.00676         5.23601 
        1.11063         8.98058         5.16897 
        1.11677         8.90803         5.10313 
         1.1229         8.82297         5.03856 
        1.12903         8.75301         4.97505 
        1.13518         8.62441          4.9126 
        1.14131         8.56319         4.85126 
        1.14745         8.45164           4.791 
        1.15359         8.38729         4.73176 
        1.15973         8.31201          4.6735 
        1.16584         8.24981         4.61649 
        1.17197         8.17205         4.56036 
        1.17811         8.09923         4.50499 
        1.18424         8.03943          4.4507 
        1.19038         7.98476         4.39715 
        1.19652         7.92018         4.34451 
        1.20267         7.85392         4.29274 
        1.20881         7.76538         4.24182 
        1.21495         7.70653         4.19181 
        1.22108          7.6526         4.14262 
         1.2272          7.5775         4.09434 
        1.23334         7.55714         4.04672 
        1.23949         7.46312         3.99975 
        1.24562         7.40928         3.95365 
        1.25174         7.36365         3.90836 
        1.25789         7.25708         3.86363 
        1.26402         7.23429         3.81969 
        1.27014         7.18939         3.77654 
        1.27628         7.09866         3.73393 
        1.28244         7.08021          3.6919 
        1.28858         7.02846         3.65057 
        1.29471         6.93086         3.60997 
        1.30084         6.87742         3.57003 
        1.30697         6.86446         3.53063 
        1.31312          6.7903         3.49177 
        1.31925         6.74162         3.45363 
        1.32537         6.69914         3.41609 
        1.33151         6.64106         3.37898 
        1.33765          6.5879         3.34244 
        1.34378         6.57527         3.30652 
        1.34992         6.50471          3.2711 
        1.35606         6.45819         3.23613 
         1.3622         6.40497         3.20173 
        1.36833         6.36075         3.16792 
        1.37445         6.30825         3.13461 
        1.38059         6.26389         3.10169 
        1.38675         6.21992         3.06915 
        1.39288         6.17722         3.03722 
        1.39901         6.12102         3.00576 
        1.40515         6.08861         2.97467 
         1.4113         6.03946         2.94404 
        1.41742         6.00843         2.91395 
        1.42355         5.95524         2.88424 
         1.4297         5.92323         2.85484 
        1.43585          5.8895         2.82587 
        1.44198         5.84076         2.79742 
        1.44809          5.8096          2.7694 
        1.45423         5.76079         2.74168 
        1.46036         5.73066         2.71438 
        1.46649           5.686         2.68744 
        1.47263         5.65947         2.66085 
        1.47877         5.61805         2.63463 
        1.48491         5.58782         2.60872 
        1.49104         5.53996         2.58322 
        1.49718         5.51813         2.55804 
        1.50333         5.47425         2.53315 
        1.50947         5.42439         2.50865 
         1.5156         5.41123         2.48451 
        1.52172         5.37559         2.46069 
        1.52787         5.34208         2.43713 
          1.534         5.30492         2.41391 
        1.54013         5.27945         2.39102 
        1.54627         5.23914         2.36839 
        1.55241          5.1962         2.34604 
        1.55855         5.18369         2.32402 
        1.56467         5.14812         2.30234 
         1.5708         5.11359         2.28087 
        1.57695         5.06796         2.25965 
        1.58308         5.03597         2.23874 
        1.58922         5.02135         2.21809 
        1.59535         4.99005         2.19771 
         1.6015         4.94781         2.17755 
        1.60764         4.92904         2.15766 
        1.61376         4.90023         2.13807 
        1.61989         4.85488         2.11871 
        1.62604         4.83505         2.09955 
        1.63218         4.81402         2.08063 
        1.63831         4.79181           2.062 
        1.64444          4.7503         2.04358 
        1.65059         4.73106         2.02535 
        1.65673         4.70293         2.00736 
        1.66285         4.67715         1.98963 
        1.66898          4.6469         1.97212 
        1.67512         4.61679         1.95479 
        1.68127         4.58838         1.93764 
         1.6874         4.57164         1.92074 
        1.69353         4.53235         1.90405 
        1.69967         4.51695         1.88753 
        1.70581         4.48555          1.8712 
        1.71193         4.46376         1.85513 
        1.71806         4.44045         1.83922 
        1.72421         4.41433         1.82346 
        1.73035         4.39044          1.8079 
        1.73649         4.36418         1.79253 
        1.74262         4.34194         1.77735 
        1.74876         4.32869         1.76233 
        1.75489         4.29669         1.74752 
        1.76101         4.26682         1.73289 
        1.76715         4.25962          1.7184 
        1.77329         4.23305         1.70406 
        1.77943         4.20007         1.68988 
        1.78557         4.18909         1.67588 
        1.79171         4.16765         1.66204 
        1.79785          4.1472         1.64835 
        1.80399         4.11062         1.63482 
        1.81012         4.09966         1.62146 
        1.81625         4.07419         1.60825 
        1.82239         4.05952         1.59518 
        1.82853         4.03414         1.58225 
        1.83466         4.00174         1.56948 
        1.84078          3.9849         1.55686 
        1.84692         3.96789         1.54437 
        1.85306         3.94674         1.53199 
         1.8592         3.93476         1.51977 
        1.86533         3.91418         1.50769 
        1.87147         3.89449         1.49573 
        1.87761         3.88005         1.48389 
        1.88375         3.85362          1.4722 
        1.88988         3.83547         1.46064 
        1.89601         3.81216         1.44921 
        1.90215         3.78826         1.43788 
        1.90829         3.78444         1.42668 
        1.91442         3.75558          1.4156 
        1.92056         3.74964         1.40465 
         1.9267         3.72191          1.3938 
        1.93284         3.71543         1.38306 
        1.93897         3.68383         1.37246 
        1.94509         3.66371         1.36199 
        1.95123         3.65286          1.3516 
        1.95737         3.63859         1.34131 
        1.96349         3.61192         1.33116 
        1.96964         3.59848         1.32108 
        1.97578         3.58382          1.3111 
        1.98192         3.56036         1.30124 
        1.98805         3.55125         1.29149 
        1.99419         3.53455         1.28183 
        2.00033         3.50508         1.27227 
        2.00647         3.50252         1.26281 
         2.0126         3.48457         1.25346 
        2.01874         3.47305          1.2442 
        2.02488         3.45377         1.23501 
        2.03101         3.42991         1.22594 
        2.03714         3.42143         1.21697 
        2.04328          3.4063         1.20807 
        2.04941         3.38859         1.19928 
        2.05554          3.3788         1.19057 
        2.06167         3.35761         1.18195 
        2.06781         3.34613          1.1734 
        2.07396          3.3274         1.16493 
        2.08009         3.32002         1.15656 
        2.08622         3.30515         1.14828 
        2.09237         3.29684         1.14006 
        2.09851         3.26907         1.13192 
        2.10464         3.25853         1.12388 
        2.11077          3.2525         1.11592 
        2.11691         3.23188         1.10802 
        2.12305         3.21409          1.1002 
        2.12918         3.20421         1.09248 
        2.13531         3.18857         1.08482 
        2.14145           3.179         1.07722 
         2.1476         3.15673         1.06969 
        2.15372          3.1466         1.06227 
        2.15985         3.13599         1.05491 
        2.16599         3.12529          1.0476 
        2.17213         3.11436         1.04036 
        2.17827         3.09195          1.0332 
         2.1844         3.07967         1.02611 
        2.19054         3.07053         1.01908 
        2.19666         3.05951         1.01213 
         2.2028         3.03551         1.00524 
        2.20893         3.03608        0.998407 
        2.21508         3.02158        0.991632 
        2.22122         3.00019        0.984917 
        2.22736         2.99253        0.978279 
        2.23349         2.97855        0.971703 
        2.23962         2.97307        0.965185 
        2.24577         2.95203         0.95872 
         2.2519         2.94496        0.952324 
        2.25802         2.92964        0.945996 
        2.26417         2.91956        0.939708 
        2.27031         2.90738        0.933471 
        2.27644         2.89604         0.92731 
        2.28257         2.88466        0.921204 
        2.28872         2.87445        0.915142 
        2.29486         2.85808        0.909135 
        2.30099          2.8481        0.903195 
        2.30712         2.83999        0.897305 
        2.31326         2.82872        0.891458 
         2.3194         2.81569        0.885666 
        2.32553         2.80749        0.879936 
        2.33166         2.80021        0.874258 
         2.3378         2.78773        0.868623 
        2.34394         2.77171        0.863036 
        2.35007         2.75855        0.857506 
        2.35619         2.75364        0.852031 
        2.36233         2.74071        0.846591 
        2.36848         2.73315        0.841188 
        2.37462          2.7234        0.835843 
        2.38075         2.71429        0.830549 
        2.38689         2.70292        0.825297 
        2.39303         2.69256        0.820091 
        2.39916         2.68119        0.814936 
        2.40529         2.66934        0.809825 
        2.41143         2.66426        0.804755 
        2.41757         2.65607        0.799725 
         2.4237         2.64012        0.794748 
        2.42983         2.63727        0.789813 
        2.43598         2.62708        0.784908 
        2.44211          2.6112        0.780052 
        2.44823         2.60431        0.775248 
        2.45437         2.59153        0.770471 
        2.46052         2.58439        0.765731 
        2.46665           2.577        0.761039 
        2.47279         2.56136        0.756388 
        2.47892         2.55747        0.751772 
        2.48507         2.54751        0.747191 
         2.4912         2.54196        0.742657 
