# k  (h/Mpc)    P(k)  (Mpc/h)^3    P_linear(k)  (Mpc/h)^3
     0.00783031         157.886         159.417 
       0.013688         193.517         194.356 
       0.019231         190.818         190.917 
      0.0249154         168.665         169.012 
      0.0312784         139.013         138.749 
      0.0375637         113.585         113.146 
      0.0433917         96.7368         96.4775 
      0.0492413          86.304         86.0538 
      0.0555754         79.4575         79.4447 
      0.0619321         74.8457         74.6723 
       0.067871         69.6605         69.7183 
      0.0738098          63.303         63.3647 
      0.0800417         55.4579         55.5221 
      0.0862327         47.7421         47.6881 
      0.0921407         41.3677         41.2698 
      0.0982031         36.4481         36.3842 
       0.104506         33.3125         33.1685 
       0.110769         31.4905         31.3976 
       0.116806         30.3555         30.3628 
       0.122832          29.356         29.3308 
       0.129052         27.7604         27.7965 
       0.135211         25.6541         25.6884 
       0.141259         23.2876         23.2597 
       0.147318         20.9162         20.8391 
       0.153489         18.7901         18.7318 
       0.159709         17.2226          17.165 
       0.165845         16.2673         16.1676 
       0.171974          15.599         15.5715 
       0.178125         15.1863         15.1571 
       0.184229         14.7527         14.7151 
        0.19034         14.0897         14.1016 
       0.196428         13.3103           13.29 
       0.202534         12.4155         12.3458 
       0.208729         11.4262         11.3808 
       0.214876         10.5628         10.5352 
       0.220989         9.94163         9.87413 
       0.227147         9.42604         9.39832 
        0.23329         9.09372         9.07086 
       0.239377         8.84417          8.8202 
       0.245482         8.57601         8.56993 
       0.251667         8.29741         8.26575 
       0.257832         7.91475         7.89459 
       0.263955         7.50693          7.4774 
       0.270079         7.08692          7.0513 
        0.27624         6.70987         6.65463 
       0.282372         6.37602         6.32085 
        0.28843         6.09631         6.05817 
       0.294538         5.88755         5.85097 
       0.300721         5.72771         5.67738 
        0.30691         5.54401          5.5136 
       0.313033         5.37219         5.34114 
       0.319153          5.1559         5.14926 
       0.325316         4.98295         4.93938 
        0.33145         4.76476         4.72514 
       0.337538         4.55998         4.52101 
       0.343633         4.36787         4.33683 
       0.349808         4.21422         4.17524 
       0.355968         4.07867         4.03866 
       0.362074         3.95436         3.92011 
       0.368217         3.84331         3.80964 
       0.374374         3.72309         3.69978 
       0.380519         3.61842         3.58584 
       0.386598         3.50573         3.46912 
       0.392688          3.3926         3.35003 
        0.39888         3.26955         3.23157 
       0.405048         3.16011         3.12084 
       0.411186         3.06066         3.01986 
       0.417313         2.96449         2.92908 
       0.423458         2.88652         2.84663 
       0.429607         2.80238         2.76953 
       0.435692         2.72844         2.69589 
       0.441815          2.6553         2.62268 
       0.447964         2.58907         2.54868 
       0.454126         2.50607         2.47443 
       0.460267          2.4338          2.4019 
       0.466387         2.36099          2.3324 
        0.47254         2.29706         2.26613 
       0.478662         2.23815         2.20438 
       0.484765         2.17591          2.1471 
       0.490885         2.12397         2.09292 
       0.497035         2.07952         2.04062 
       0.503198         2.02302         1.98955 
       0.509342         1.97578         1.93969 
       0.515458         1.92296         1.89092 
       0.521598         1.87535         1.84278 
       0.527764         1.82386          1.7957 
       0.533884           1.786         1.75071 
           0.54         1.74101         1.70791 
       0.546137         1.70133         1.66704 
       0.552299         1.66115         1.62777 
       0.558452         1.61957         1.59002 
       0.564573          1.5861         1.55364 
       0.570708          1.5502         1.51822 
       0.576825         1.51325         1.48385 
       0.582926          1.4835         1.45041 
       0.589034         1.44358         1.41774 
       0.595184         1.41317         1.38574 
       0.601379         1.38195         1.35454 
       0.607522         1.35524          1.3247 
       0.613639         1.32958         1.29612 
       0.619772         1.29621         1.26851 
       0.625918         1.27154         1.24173 
       0.632068         1.24743         1.21572 
       0.638161         1.21958         1.19061 
         0.6443         1.19449          1.1659 
       0.650464         1.16755         1.14173 
       0.656582          1.1466         1.11839 
       0.662703         1.12415          1.0957 
       0.668861         1.10494         1.07357 
       0.675024         1.08058          1.0521 
       0.681124         1.05739         1.03149 
       0.687237         1.04016         1.01142 
       0.693381         1.02073        0.991805 
       0.699536        0.996633        0.972676 
       0.705665        0.979116        0.954114 
       0.711789        0.963089        0.936034 
       0.717957        0.943175        0.918285 
        0.72409         0.92623        0.901091 
       0.730186         0.90883        0.884442 
       0.736317        0.896166        0.868132 
       0.742472        0.878926         0.85219 
       0.748622        0.861975         0.83668 
        0.75476        0.845233        0.821603 
       0.760888        0.830032        0.806933 
       0.767043        0.820123        0.792572 
       0.773185        0.803007        0.778596 
       0.779291        0.789368        0.765039 
       0.785407        0.776226        0.751786 
       0.791564        0.763713        0.738763 
       0.797719        0.751687        0.726055 
       0.803834        0.739504        0.713727 
       0.809972        0.726387        0.701643 
       0.816124        0.713795        0.689815 
       0.822261        0.700992        0.678294 
       0.828378        0.691149        0.667075 
       0.834502        0.681273        0.656103 
       0.840667        0.667932        0.645312 
       0.846816        0.657619        0.634798 
       0.852925        0.649404        0.624587 
       0.859047        0.639037        0.614584 
       0.865192        0.627691         0.60477 
       0.871341         0.61797        0.595167 
       0.877463        0.610358        0.585818 
       0.883569        0.599558        0.576697 
       0.889708         0.59077        0.567725 
       0.895864        0.581528        0.558923 
       0.902008        0.572267        0.550329 
       0.908149        0.563786        0.541922 
       0.914301        0.553439        0.533679 
       0.920448        0.546335        0.525618 
       0.926574        0.538005        0.517752 
       0.932687         0.52989        0.510067 
       0.938823        0.524308        0.502511 
       0.944975        0.516335        0.495092 
       0.951105        0.509177        0.487851 
       0.957225         0.50313        0.480769 
       0.963368        0.495258        0.473805 
       0.969511        0.487399        0.466979 
       0.975621        0.480209        0.460327 
       0.981748        0.475397        0.453788 
       0.987916        0.468055        0.447336 
        0.99406        0.461254        0.441035 
        1.00019        0.456165        0.434869 
        1.00632        0.448273        0.428828 
        1.01246        0.442226        0.422894 
        1.01859        0.437195        0.417083 
        1.02471        0.431049        0.411389 
        1.03085        0.426605        0.405783 
        1.03698        0.419868        0.400294 
        1.04314        0.414714        0.394884 
        1.04929        0.408692        0.389588 
        1.05541        0.404166        0.384412 
        1.06154        0.398353        0.379318 
        1.06769        0.392864         0.37431 
        1.07382        0.388135        0.369409 
        1.07993        0.382817        0.364608 
        1.08607        0.379413        0.359874 
        1.09222        0.373665         0.35522 
        1.09836        0.370304        0.350654 
        1.10449        0.365501        0.346175 
        1.11063        0.359899         0.34177 
        1.11677        0.354979        0.337444 
         1.1229        0.351402        0.333201 
        1.12903        0.346655        0.329028 
        1.13518        0.343147        0.324923 
        1.14131         0.33855        0.320892 
        1.14745        0.333275        0.316932 
        1.15359        0.330363        0.313038 
        1.15973        0.325515        0.309209 
        1.16584        0.323059        0.305462 
        1.17197        0.318927        0.301772 
        1.17811        0.315715        0.298132 
        1.18424        0.312476        0.294563 
        1.19038        0.308005        0.291042 
        1.19652        0.303772        0.287581 
        1.20267        0.301469        0.284177 
        1.20881        0.297542        0.280829 
        1.21495        0.294881         0.27754 
        1.22108        0.291167        0.274305 
         1.2272        0.288319         0.27113 
        1.23334         0.28454        0.267998 
        1.23949        0.281526        0.264909 
        1.24562        0.278422        0.261877 
        1.25174        0.275647        0.258898 
        1.25789        0.272879        0.255957 
        1.26402        0.268929        0.253066 
        1.27014        0.266378        0.250228 
        1.27628        0.264042        0.247425 
        1.28244        0.260154         0.24466 
        1.28858        0.257937        0.241942 
        1.29471        0.255893        0.239271 
        1.30084        0.252515        0.236643 
        1.30697        0.249807        0.234051 
        1.31312        0.246445        0.231495 
        1.31925        0.244275        0.228985 
        1.32537        0.242108        0.226515 
        1.33151        0.239935        0.224073 
        1.33765        0.237452        0.221669 
        1.34378        0.234323        0.219305 
        1.34992         0.23213        0.216974 
        1.35606        0.229847        0.214672 
         1.3622        0.227622        0.212408 
        1.36833        0.225083        0.210183 
        1.37445        0.222261         0.20799 
        1.38059        0.220332        0.205823 
        1.38675         0.21906        0.203681 
        1.39288        0.216493        0.201578 
        1.39901        0.214305        0.199507 
        1.40515          0.2125         0.19746 
         1.4113        0.209823        0.195443 
        1.41742        0.207867        0.193462 
        1.42355        0.206361        0.191505 
         1.4297        0.203799        0.189569 
        1.43585        0.202082        0.187661 
        1.44198        0.200581        0.185786 
        1.44809        0.198178        0.183941 
        1.45423        0.196453        0.182115 
        1.46036        0.194483        0.180316 
        1.46649         0.19313        0.178542 
        1.47263        0.190997         0.17679 
        1.47877        0.188841        0.175062 
        1.48491        0.187434        0.173355 
        1.49104        0.185239        0.171675 
        1.49718         0.18364        0.170015 
        1.50333        0.182403        0.168375 
        1.50947        0.180478        0.166761 
         1.5156        0.178728         0.16517 
        1.52172        0.177213          0.1636 
        1.52787        0.175579        0.162047 
          1.534        0.173775        0.160517 
        1.54013         0.17222        0.159008 
        1.54627        0.171048        0.157515 
        1.55241        0.169171        0.156042 
        1.55855        0.167523         0.15459 
        1.56467        0.166749        0.153161 
         1.5708         0.16488        0.151745 
        1.57695        0.163477        0.150346 
        1.58308        0.161924        0.148967 
        1.58922        0.160649        0.147605 
        1.59535        0.159218        0.146261 
         1.6015         0.15771        0.144932 
        1.60764         0.15645        0.143619 
        1.61376        0.154795        0.142327 
        1.61989         0.15368         0.14105 
        1.62604        0.152551        0.139786 
        1.63218        0.151221        0.138538 
        1.63831        0.150035        0.137308 
        1.64444        0.148694        0.136093 
        1.65059        0.147391         0.13489 
        1.65673         0.14627        0.133703 
        1.66285        0.145245        0.132533 
        1.66898        0.143963        0.131377 
        1.67512        0.142459        0.130233 
        1.68127        0.141256        0.129102 
         1.6874        0.140461        0.127986 
        1.69353        0.138837        0.126884 
        1.69967        0.138257        0.125793 
        1.70581        0.136651        0.124716 
        1.71193        0.135701        0.123654 
        1.71806        0.134419        0.122604 
        1.72421         0.13376        0.121563 
        1.73035        0.132396        0.120536 
        1.73649         0.13158        0.119521 
        1.74262        0.130455        0.118518 
        1.74876        0.129353        0.117526 
        1.75489         0.12847        0.116548 
        1.76101        0.127237        0.115581 
        1.76715        0.126262        0.114624 
        1.77329         0.12514        0.113677 
        1.77943        0.124246         0.11274 
        1.78557        0.123495        0.111815 
        1.79171        0.122553        0.110901 
        1.79785        0.121546        0.109996 
        1.80399        0.120574        0.109102 
        1.81012         0.11969        0.108219 
        1.81625        0.118742        0.107346 
        1.82239        0.117869        0.106482 
        1.82853        0.116831        0.105627 
        1.83466         0.11606        0.104783 
        1.84078         0.11518        0.103949 
        1.84692        0.114187        0.103123 
        1.85306        0.113603        0.102305 
         1.8592        0.112499        0.101497 
        1.86533        0.111885        0.100698 
        1.87147        0.110959       0.0999071 
        1.87761        0.110292       0.0991243 
        1.88375        0.109323       0.0983508 
        1.88988        0.108529       0.0975865 
        1.89601        0.107693         0.09683 
        1.90215         0.10699       0.0960809 
        1.90829        0.106031       0.0953401 
        1.91442        0.105579       0.0946072 
        1.92056         0.10466       0.0938826 
         1.9267         0.10381       0.0931649 
        1.93284        0.103094       0.0924544 
        1.93897         0.10234       0.0917526 
        1.94509        0.101792       0.0910597 
        1.95123        0.100986       0.0903722 
        1.95737        0.100341       0.0896913 
        1.96349       0.0995146       0.0890193 
        1.96964       0.0987425       0.0883522 
        1.97578       0.0980858       0.0876917 
        1.98192       0.0975075       0.0870394 
        1.98805       0.0969083       0.0863936 
        1.99419       0.0960049       0.0857544 
        2.00033       0.0953418       0.0851214 
        2.00647       0.0949271        0.084495 
         2.0126       0.0940412        0.083876 
        2.01874       0.0935842       0.0832623 
        2.02488        0.092945       0.0826542 
        2.03101       0.0922861       0.0820533 
        2.03714       0.0915436        0.081459 
        2.04328       0.0911016         0.08087 
        2.04941       0.0902841       0.0802873 
        2.05554        0.089814       0.0797108 
        2.06167       0.0893805       0.0791392 
        2.06781       0.0885493       0.0785731 
        2.07396       0.0880125       0.0780119 
        2.08009       0.0874363        0.077457 
        2.08622       0.0869076       0.0769083 
        2.09237       0.0863267       0.0763638 
        2.09851       0.0857826       0.0758245 
        2.10464       0.0852648       0.0752913 
        2.11077       0.0846161       0.0747639 
        2.11691       0.0841001       0.0742405 
        2.12305       0.0835199        0.073722 
        2.12918       0.0831021       0.0732098 
        2.13531       0.0823765       0.0727024 
        2.14145       0.0817813       0.0721987 
         2.1476       0.0813867       0.0716992 
        2.15372       0.0810189       0.0712069 
        2.15985       0.0803652       0.0707189 
        2.16599       0.0798242        0.070234 
        2.17213       0.0793693       0.0697542 
        2.17827       0.0787716        0.069279 
         2.1844       0.0784258       0.0688087 
        2.19054       0.0778678       0.0683426 
        2.19666       0.0773122       0.0678816 
         2.2028       0.0768733       0.0674244 
        2.20893       0.0765481       0.0669712 
        2.21508       0.0758959       0.0665216 
        2.22122       0.0753398       0.0660761 
        2.22736       0.0750977       0.0656356 
        2.23349       0.0745466       0.0651993 
        2.23962       0.0742144       0.0647667 
        2.24577       0.0736229       0.0643376 
         2.2519       0.0732233       0.0639131 
        2.25802       0.0727393       0.0634931 
        2.26417       0.0723303       0.0630757 
        2.27031       0.0718421       0.0626617 
        2.27644        0.071414       0.0622526 
        2.28257       0.0710008       0.0618472 
        2.28872       0.0705873       0.0614447 
        2.29486       0.0703244       0.0610459 
        2.30099       0.0697181       0.0606515 
        2.30712       0.0693218       0.0602603 
        2.31326       0.0688359        0.059872 
         2.3194       0.0686641       0.0594874 
        2.32553       0.0681628       0.0591068 
        2.33166       0.0678964       0.0587297 
         2.3378       0.0674378       0.0583554 
        2.34394       0.0669655       0.0579842 
        2.35007       0.0665817       0.0576169 
        2.35619        0.066084       0.0572531 
        2.36233       0.0658133       0.0568917 
        2.36848       0.0655815       0.0565327 
        2.37462       0.0650286       0.0561775 
        2.38075       0.0647601       0.0558257 
        2.38689       0.0643887       0.0554767 
        2.39303       0.0640854       0.0551307 
        2.39916       0.0635935        0.054788 
        2.40529       0.0632928       0.0544483 
        2.41143       0.0628633       0.0541113 
        2.41757       0.0625574       0.0537769 
         2.4237       0.0622767        0.053446 
        2.42983       0.0619099        0.053118 
        2.43598       0.0616553       0.0527918 
        2.44211       0.0611779       0.0524689 
        2.44823       0.0609219       0.0521495 
        2.45437       0.0605173       0.0518319 
        2.46052       0.0602419       0.0515166 
        2.46665        0.059833       0.0512046 
        2.47279       0.0595028       0.0508952 
        2.47892       0.0590812       0.0505882 
        2.48507       0.0588168       0.0502835 
         2.4912       0.0585436       0.0499819 
