# k  (h/Mpc)    Pcb(k)  (Mpc/h)^3    Pcb_linear(k)  (Mpc/h)^3
     0.00783031         834.371         842.225 
       0.013688         920.384         929.518 
       0.019231         841.413         844.346 
      0.0249154          696.78         695.084 
      0.0312784         531.741         530.022 
      0.0375637         407.822          407.06 
      0.0433917         335.924         334.298 
      0.0492413         293.255         292.724 
      0.0555754         270.086         268.925 
      0.0619321         251.288         252.527 
       0.067871          234.27         234.331 
      0.0738098         209.886           209.8 
      0.0800417         179.934           179.3 
      0.0862327         149.858         149.436 
      0.0921407         126.323          125.83 
      0.0982031         109.643         108.732 
       0.104506         98.4738         98.2976 
       0.110769         93.4542         93.2545 
       0.116806         91.1681         90.7123 
       0.122832         87.9677         87.9357 
       0.129052         83.3949         83.1125 
       0.135211         76.5669         76.0651 
       0.141259         68.1922         67.8608 
       0.147318         59.9981          59.782 
       0.153489         53.3529         52.9221 
       0.159709         48.5558         48.0062 
       0.165845         45.2303         45.0434 
       0.171974         43.9754         43.4121 
       0.178125         42.7623         42.3499 
       0.184229         41.4133          41.155 
        0.19034         39.8113         39.3712 
       0.196428          37.357         36.9348 
       0.202534         34.2576         34.0795 
       0.208729         31.6314         31.1745 
       0.214876         29.2476         28.6546 
       0.220989         27.1059         26.7085 
       0.227147         25.9028         25.3242 
        0.23329         24.9383         24.3811 
       0.239377         24.2284         23.6658 
       0.245482         23.4795         22.9549 
       0.251667         22.4818         22.0942 
       0.257832         21.6213          21.053 
       0.263955         20.3268         19.8895 
       0.270079         19.1474         18.7055 
        0.27624         18.0133         17.6056 
       0.282372         17.1024          16.674 
        0.28843         16.4808         15.9348 
       0.294538         15.8461         15.3415 
       0.300721         15.2493         14.8399 
        0.30691         14.8649         14.3693 
       0.313033         14.3485         13.8867 
       0.319153         13.9244         13.3627 
       0.325316         13.2296         12.8016 
        0.33145         12.6418          12.234 
       0.337538         12.1294         11.6947 
       0.343633         11.6938         11.2021 
       0.349808         11.2205         10.7649 
       0.355968         10.8198         10.3858 
       0.362074         10.5435         10.0527 
       0.368217         10.1998         9.74216 
       0.374374         9.94022         9.43726 
       0.380519         9.57128          9.1308 
       0.386598         9.23291         8.82253 
       0.392688          8.9024         8.51354 
        0.39888         8.63976         8.20829 
       0.405048         8.36779         7.92025 
       0.411186         8.08469         7.65497 
       0.417313         7.83868         7.41274 
       0.423458         7.57021         7.18839 
       0.429607          7.4138         6.97811 
       0.435692         7.23015         6.77903 
       0.441815         6.98823         6.58308 
       0.447964           6.762         6.38886 
       0.454126         6.60471         6.19781 
       0.460267         6.45354         6.01218 
       0.466387         6.25017         5.83383 
        0.47254         6.10024         5.66325 
       0.478662          5.9174         5.50326 
       0.484765         5.76772         5.35242 
       0.490885         5.59351          5.2086 
       0.497035         5.43882         5.07029 
       0.503198         5.33599         4.93666 
       0.509342         5.17248         4.80706 
       0.515458          5.0634         4.68115 
       0.521598          4.9444         4.55819 
       0.527764          4.8422         4.43881 
       0.533884          4.6839         4.32476 
           0.54         4.59273         4.21526 
       0.546137         4.46315         4.10975 
       0.552299         4.36679         4.00814 
       0.558452         4.25905         3.91069 
       0.564573         4.17473         3.81717 
       0.570708         4.08289         3.72636 
       0.576825         3.99432         3.63834 
       0.582926         3.89569         3.55303 
       0.589034          3.8214         3.47016 
       0.595184         3.75402          3.3894 
       0.601379         3.65449         3.31081 
       0.607522         3.56773         3.23551 
       0.613639         3.48971           3.163 
       0.619772         3.43013         3.09263 
       0.625918          3.3568         3.02433 
       0.632068         3.29204         2.95809 
       0.638161          3.2229         2.89444 
         0.6443         3.15323         2.83221 
       0.650464         3.08847         2.77156 
       0.656582         3.04317         2.71309 
       0.662703         2.98045         2.65626 
       0.668861         2.90536         2.60073 
       0.675024         2.85059         2.54675 
       0.681124         2.83177         2.49487 
       0.687237          2.7607         2.44438 
       0.693381         2.69065         2.39509 
       0.699536         2.66095         2.34711 
       0.705665         2.60929         2.30068 
       0.711789         2.54984         2.25556 
       0.717957         2.50321         2.21135 
        0.72409         2.46222         2.16857 
       0.730186         2.43521         2.12717 
       0.736317         2.37488         2.08664 
       0.742472         2.34457         2.04701 
       0.748622         2.30547         2.00845 
        0.75476         2.24962         1.97098 
       0.760888         2.22223         1.93453 
       0.767043         2.16431         1.89887 
       0.773185         2.13808         1.86419 
       0.779291         2.11937         1.83059 
       0.785407          2.0745         1.79777 
       0.791564         2.03737         1.76556 
       0.797719         2.00325         1.73417 
       0.803834         1.97473         1.70374 
       0.809972          1.9393         1.67394 
       0.816124         1.91101         1.64479 
       0.822261         1.88096         1.61642 
       0.828378         1.85099         1.58881 
       0.834502         1.82002         1.56182 
       0.840667         1.79809          1.5353 
       0.846816          1.7626         1.50946 
       0.852925         1.73602         1.48439 
       0.859047         1.70972         1.45984 
       0.865192         1.68458         1.43576 
       0.871341         1.66191         1.41222 
       0.877463         1.63046         1.38931 
       0.883569         1.61061         1.36697 
       0.889708         1.58999         1.34502 
       0.895864         1.56621         1.32349 
       0.902008         1.53783         1.30248 
       0.908149         1.51826         1.28194 
       0.914301           1.498         1.26182 
       0.920448         1.48084         1.24215 
       0.926574         1.46364         1.22297 
       0.932687         1.44021         1.20424 
       0.938823         1.41136         1.18583 
       0.944975         1.40014         1.16777 
       0.951105          1.3698         1.15016 
       0.957225         1.35891         1.13294 
       0.963368         1.34168         1.11602 
       0.969511          1.3251         1.09944 
       0.975621          1.3025          1.0833 
       0.981748         1.27956         1.06743 
       0.987916         1.26687         1.05179 
        0.99406         1.25391         1.03652 
        1.00019         1.23591         1.02159 
        1.00632         1.22367         1.00697 
        1.01246         1.20604        0.992614 
        1.01859         1.19143        0.978562 
        1.02471         1.17091        0.964802 
        1.03085         1.15582         0.95126 
        1.03698         1.14477        0.938009 
        1.04314          1.1291        0.924955 
        1.04929         1.11889        0.912181 
        1.05541         1.09922          0.8997 
        1.06154         1.09006        0.887424 
        1.06769         1.07815        0.875359 
        1.07382           1.062        0.863559 
        1.07993         1.04828        0.852005 
        1.08607         1.03881        0.840616 
        1.09222         1.02345        0.829424 
        1.09836         1.01545         0.81845 
        1.10449        0.997023        0.807689 
        1.11063        0.986111        0.797109 
        1.11677        0.977005        0.786724 
         1.1229        0.962673        0.776543 
        1.12903        0.955224        0.766533 
        1.13518        0.941401        0.756693 
        1.14131        0.932669        0.747031 
        1.14745        0.923044        0.737544 
        1.15359        0.910609        0.728221 
        1.15973        0.900555        0.719056 
        1.16584         0.89033        0.710091 
        1.17197        0.878233        0.701267 
        1.17811        0.868296        0.692566 
        1.18424        0.859464        0.684039 
        1.19038        0.848991        0.675632 
        1.19652        0.841393         0.66737 
        1.20267        0.834416        0.659247 
        1.20881        0.822109        0.651261 
        1.21495        0.814173        0.643421 
        1.22108        0.806627        0.635712 
         1.2272        0.794984        0.628148 
        1.23334        0.788084         0.62069 
        1.23949        0.779796        0.613337 
        1.24562        0.771929        0.606124 
        1.25174        0.765422        0.599038 
        1.25789        0.754097        0.592044 
        1.26402        0.746823        0.585175 
        1.27014        0.736959        0.578432 
        1.27628        0.732109        0.571775 
        1.28244        0.723662        0.565211 
        1.28858        0.715476        0.558759 
        1.29471         0.70803        0.552422 
        1.30084        0.702287         0.54619 
        1.30697        0.696622        0.540045 
        1.31312        0.688816        0.533986 
        1.31925        0.681612        0.528039 
        1.32537        0.675637        0.522189 
        1.33151        0.667661        0.516406 
        1.33765        0.661403        0.510715 
        1.34378        0.654774        0.505122 
        1.34992        0.649852        0.499609 
        1.35606        0.641796        0.494166 
         1.3622        0.636816        0.488814 
        1.36833        0.630446        0.483555 
        1.37445        0.623805        0.478376 
        1.38059        0.618633        0.473257 
        1.38675        0.611976        0.468201 
        1.39288        0.606791         0.46324 
        1.39901        0.600469        0.458353 
        1.40515        0.595096        0.453525 
         1.4113        0.591411        0.448769 
        1.41742        0.584134          0.4441 
        1.42355        0.577511        0.439488 
         1.4297        0.573704        0.434929 
        1.43585        0.567809        0.430436 
        1.44198        0.563476        0.426024 
        1.44809        0.557704        0.421682 
        1.45423        0.552617        0.417386 
        1.46036        0.547927        0.413157 
        1.46649        0.542356        0.408985 
        1.47263        0.537753        0.404868 
        1.47877        0.535711        0.400809 
        1.48491        0.527005          0.3968 
        1.49104        0.524681        0.392854 
        1.49718         0.51838        0.388959 
        1.50333        0.514836        0.385112 
        1.50947        0.510966        0.381324 
         1.5156        0.506301        0.377592 
        1.52172        0.501738        0.373911 
        1.52787        0.496616        0.370272 
          1.534        0.493779        0.366686 
        1.54013        0.489258        0.363151 
        1.54627        0.484952        0.359656 
        1.55241         0.48062        0.356207 
        1.55855        0.476566        0.352808 
        1.56467        0.472319        0.349464 
         1.5708        0.468672        0.346153 
        1.57695         0.46438         0.34288 
        1.58308        0.459665        0.339657 
        1.58922        0.456782        0.336473 
        1.59535         0.45239        0.333332 
         1.6015        0.448876        0.330226 
        1.60764        0.444974        0.327161 
        1.61376        0.441478        0.324144 
        1.61989        0.438051        0.321162 
        1.62604        0.433456        0.318212 
        1.63218         0.43122          0.3153 
        1.63831         0.42703        0.312431 
        1.64444        0.424366        0.309598 
        1.65059        0.420598        0.306792 
        1.65673        0.416433        0.304025 
        1.66285        0.413786        0.301299 
        1.66898        0.411001        0.298607 
        1.67512        0.406157        0.295941 
        1.68127        0.403463        0.293307 
         1.6874        0.401536         0.29071 
        1.69353        0.397078        0.288146 
        1.69967        0.394682        0.285607 
        1.70581        0.392455          0.2831 
        1.71193        0.388674        0.280633 
        1.71806        0.386314        0.278189 
        1.72421        0.382767        0.275771 
        1.73035        0.378952        0.273383 
        1.73649        0.377853        0.271025 
        1.74262        0.373431        0.268696 
        1.74876         0.37117        0.266393 
        1.75489        0.368853        0.264122 
        1.76101        0.365213        0.261879 
        1.76715        0.362754        0.259658 
        1.77329        0.360439         0.25746 
        1.77943        0.357489        0.255287 
        1.78557        0.355763        0.253143 
        1.79171        0.352719        0.251022 
        1.79785        0.350037        0.248926 
        1.80399        0.346261        0.246854 
        1.81012        0.344896        0.244808 
        1.81625        0.342596        0.242787 
        1.82239         0.34037        0.240785 
        1.82853        0.337022        0.238807 
        1.83466        0.334719        0.236854 
        1.84078        0.332189        0.234924 
        1.84692        0.329908        0.233012 
        1.85306         0.32836         0.23112 
         1.8592        0.325307        0.229251 
        1.86533        0.323578        0.227404 
        1.87147        0.320289        0.225576 
        1.87761        0.318252        0.223766 
        1.88375        0.316276        0.221979 
        1.88988        0.313374        0.220213 
        1.89601        0.311088        0.218466 
        1.90215        0.309679        0.216736 
        1.90829        0.306968        0.215026 
        1.91442        0.305624        0.213334 
        1.92056        0.303546        0.211662 
         1.9267        0.300929        0.210006 
        1.93284        0.298669        0.208367 
        1.93897        0.296959        0.206748 
        1.94509        0.295243         0.20515 
        1.95123        0.292468        0.203565 
        1.95737         0.29078        0.201996 
        1.96349        0.288629        0.200447 
        1.96964        0.287082         0.19891 
        1.97578        0.284797        0.197389 
        1.98192        0.283248        0.195886 
        1.98805        0.281407        0.194399 
        1.99419        0.279757        0.192928 
        2.00033        0.277954        0.191471 
        2.00647        0.276333        0.190029 
         2.0126        0.274256        0.188605 
        2.01874        0.272367        0.187193 
        2.02488         0.27027        0.185795 
        2.03101        0.268667        0.184413 
        2.03714          0.2677        0.183047 
        2.04328        0.265149        0.181693 
        2.04941        0.263894        0.180354 
        2.05554        0.261989        0.179029 
        2.06167        0.260306        0.177716 
        2.06781        0.258033        0.176416 
        2.07396        0.257425        0.175127 
        2.08009        0.255184        0.173853 
        2.08622         0.25382        0.172593 
        2.09237        0.252343        0.171344 
        2.09851        0.250247        0.170106 
        2.10464        0.249059        0.168883 
        2.11077         0.24654        0.167674 
        2.11691        0.245675        0.166473 
        2.12305        0.244682        0.165284 
        2.12918        0.242529         0.16411 
        2.13531        0.241086        0.162947 
        2.14145        0.239541        0.161793 
         2.1476        0.238081        0.160648 
        2.15372         0.23705        0.159521 
        2.15985         0.23492        0.158403 
        2.16599        0.234015        0.157292 
        2.17213        0.232436        0.156194 
        2.17827        0.230733        0.155106 
         2.1844        0.229926         0.15403 
        2.19054        0.228481        0.152963 
        2.19666        0.226908        0.151908 
         2.2028        0.225299        0.150862 
        2.20893        0.224536        0.149825 
        2.21508        0.223176        0.148797 
        2.22122        0.221803        0.147779 
        2.22736        0.219718        0.146772 
        2.23349        0.218516        0.145774 
        2.23962        0.217596        0.144786 
        2.24577        0.216384        0.143806 
         2.2519        0.214994        0.142836 
        2.25802        0.213752        0.141876 
        2.26417        0.212438        0.140923 
        2.27031        0.211335        0.139978 
        2.27644        0.210739        0.139044 
        2.28257        0.208765        0.138119 
        2.28872        0.207993          0.1372 
        2.29486        0.206675         0.13629 
        2.30099        0.205259         0.13539 
        2.30712        0.204123        0.134498 
        2.31326        0.202949        0.133612 
         2.3194        0.201908        0.132735 
        2.32553        0.200717        0.131867 
        2.33166        0.200012        0.131008 
         2.3378        0.198693        0.130154 
        2.34394        0.197597        0.129309 
        2.35007        0.196222        0.128471 
        2.35619         0.19479        0.127643 
        2.36233         0.19426        0.126819 
        2.36848        0.193061        0.126002 
        2.37462        0.192151        0.125193 
        2.38075        0.191111        0.124392 
        2.38689        0.190096        0.123597 
        2.39303        0.188968         0.12281 
        2.39916        0.187917         0.12203 
        2.40529        0.186804        0.121257 
        2.41143        0.185733         0.12049 
        2.41757        0.184696         0.11973 
         2.4237         0.18381        0.118977 
        2.42983        0.182643        0.118231 
        2.43598        0.181893         0.11749 
        2.44211        0.180611        0.116756 
        2.44823        0.180012         0.11603 
        2.45437        0.179218        0.115308 
        2.46052        0.178091        0.114591 
        2.46665        0.177092        0.113882 
        2.47279        0.176106         0.11318 
        2.47892        0.175411        0.112483 
        2.48507        0.174404         0.11179 
         2.4912        0.173466        0.111106 
