# k  (h/Mpc)    Pcb(k)  (Mpc/h)^3    Pcb_linear(k)  (Mpc/h)^3
     0.00783031         4898.48         4936.72 
       0.013688         5412.72         5498.32 
       0.019231          5033.2          5069.4 
      0.0249154         4274.13         4253.88 
      0.0312784         3326.27         3322.01 
      0.0375637         2600.76         2606.38 
      0.0433917         2177.97         2167.46 
      0.0492413         1903.47         1903.28 
      0.0555754         1749.77         1738.62 
      0.0619321         1598.79         1618.47 
       0.067871         1491.29         1493.55 
      0.0738098         1339.31         1336.99 
      0.0800417         1158.71          1149.9 
      0.0862327         975.327         969.371 
      0.0921407         835.367         826.333 
      0.0982031         736.228         720.904 
       0.104506         659.149         653.662 
       0.110769         624.029         617.418 
       0.116806         606.727         595.683 
       0.122832         577.488         572.724 
       0.129052         545.408          538.42 
       0.135211         504.774          492.51 
       0.141259         450.956         441.212 
       0.147318         399.721         391.574 
       0.153489          360.88         349.526 
       0.159709         334.029         318.993 
       0.165845         308.563         299.832 
       0.171974         302.879         288.234 
       0.178125         292.479           279.7 
       0.184229         278.689          270.27 
        0.19034         268.665          257.47 
       0.196428         253.449         241.158 
       0.202534         231.156         222.798 
       0.208729         218.466         204.527 
       0.214876         204.583         188.824 
       0.220989         189.173         176.657 
       0.227147         183.218         167.817 
        0.23329         176.372         161.502 
       0.239377         172.222          156.42 
       0.245482         164.796          151.27 
       0.251667         157.268         145.188 
       0.257832         153.406         138.101 
       0.263955         143.279         130.431 
       0.270079         135.613         122.786 
        0.27624          128.57          115.78 
       0.282372          123.41         109.866 
        0.28843         120.971         105.137 
       0.294538         115.541         101.269 
       0.300721         110.891         97.8989 
        0.30691         108.776         94.6758 
       0.313033         104.146         91.3537 
       0.319153         101.828         87.7978 
       0.325316         97.4192         84.0442 
        0.33145         93.5213         80.3126 
       0.337538         89.8625         76.8066 
       0.343633         86.9556         73.6265 
       0.349808         83.8313         70.8058 
       0.355968         81.3677         68.3401 
       0.362074         79.6363         66.1505 
       0.368217         77.4037         64.0768 
       0.374374         75.3225          62.029 
       0.380519         72.1315         59.9686 
       0.386598         70.1505         57.9046 
       0.392688          67.727         55.8573 
        0.39888          66.416         53.8478 
       0.405048         64.6188         51.9632 
       0.411186         62.9157         50.2373 
       0.417313          61.107         48.6553 
       0.423458         59.3433         47.1847 
       0.429607         58.1147            45.8 
       0.435692         57.1948         44.4793 
       0.441815         55.0484         43.1739 
       0.447964          53.265         41.8838 
       0.454126         52.2485         40.6169 
       0.460267         51.6507         39.3888 
       0.466387         50.1234         38.2152 
        0.47254         49.3944         37.0978 
       0.478662         47.6265         36.0491 
       0.484765         46.6664         35.0586 
       0.490885         45.3065         34.1136 
       0.497035         44.7569          33.203 
       0.503198         43.7452         32.3202 
       0.509342         42.4946         31.4617 
       0.515458         41.8031         30.6286 
       0.521598         40.7352         29.8175 
       0.527764         40.1427         29.0312 
       0.533884         39.5024         28.2806 
           0.54         38.5147         27.5602 
       0.546137         37.4074         26.8672 
       0.552299         36.6671         26.2002 
       0.558452         35.8803         25.5599 
       0.564573         35.5929         24.9442 
       0.570708         34.5967          24.345 
       0.576825         34.1675         23.7643 
       0.582926         33.6007         23.2021 
       0.589034         32.8845         22.6567 
       0.595184         32.4335         22.1258 
       0.601379         31.5873         21.6092 
       0.607522         30.9423         21.1142 
       0.613639         30.5857         20.6374 
       0.619772         29.9306         20.1748 
       0.625918         29.4738         19.7259 
       0.632068         29.1075         19.2907 
       0.638161         28.5041         18.8725 
         0.6443         28.1421         18.4636 
       0.650464            27.4          18.065 
       0.656582         27.2537         17.6805 
       0.662703         26.8152          17.307 
       0.668861         26.1532         16.9421 
       0.675024         25.8663         16.5875 
       0.681124         25.6507         16.2469 
       0.687237         25.1283         15.9156 
       0.693381         24.6487         15.5922 
       0.699536         24.4572         15.2774 
       0.705665         23.9986         14.9728 
       0.711789         23.6229         14.6768 
       0.717957         23.1606         14.3867 
        0.72409         22.9012         14.1059 
       0.730186         22.7575         13.8343 
       0.736317         22.2881         13.5684 
       0.742472         22.0245         13.3084 
       0.748622         21.6758         13.0556 
        0.75476         21.1932         12.8098 
       0.760888         21.1465         12.5709 
       0.767043         20.7161         12.3371 
       0.773185         20.4424         12.1098 
       0.779291         20.1941         11.8896 
       0.785407         19.9354         11.6746 
       0.791564         19.8219         11.4636 
       0.797719         19.3324         11.2579 
       0.803834         19.2645         11.0586 
       0.809972         18.8962         10.8634 
       0.816124         18.7007         10.6725 
       0.822261         18.4602         10.4867 
       0.828378         18.2984          10.306 
       0.834502         18.0876         10.1293 
       0.840667         17.8748         9.95567 
       0.846816         17.5285          9.7866 
       0.852925         17.4434         9.62253 
       0.859047         17.2609         9.46188 
       0.865192         17.0033         9.30439 
       0.871341         16.7998         9.15039 
       0.877463         16.5844         9.00058 
       0.883569         16.4728         8.85452 
       0.889708         16.2222         8.71096 
       0.895864         16.0117         8.57022 
       0.902008         15.8618         8.43291 
       0.908149         15.6261         8.29869 
       0.914301         15.5131         8.16718 
       0.920448         15.3333         8.03866 
       0.926574         15.2026         7.91336 
       0.932687         14.9808         7.79101 
       0.938823         14.7654         7.67081 
       0.944975         14.6786         7.55289 
       0.951105         14.5444         7.43787 
       0.957225         14.4048         7.32545 
       0.963368         14.2021         7.21498 
       0.969511         14.0588         7.10679 
       0.975621         13.9491          7.0014 
       0.981748         13.7605         6.89789 
       0.987916         13.6729         6.79582 
        0.99406         13.4738         6.69621 
        1.00019         13.3915          6.5988 
        1.00632         13.2968         6.50341 
        1.01246         13.1127         6.40977 
        1.01859          12.995         6.31814 
        1.02471         12.8655          6.2284 
        1.03085         12.7833         6.14011 
        1.03698         12.6834         6.05371 
        1.04314         12.5125         5.96861 
        1.04929         12.3596         5.88535 
        1.05541         12.2929         5.80401 
        1.06154          12.184           5.724 
        1.06769         12.0475         5.64539 
        1.07382         11.9254         5.56852 
        1.07993         11.8247         5.49325 
        1.08607         11.7324         5.41907 
        1.09222         11.6052         5.34618 
        1.09836          11.499         5.27472 
        1.10449         11.4375         5.20466 
        1.11063         11.3463         5.13579 
        1.11677         11.2784         5.06819 
         1.1229         11.1438         5.00192 
        1.12903         11.0384         4.93679 
        1.13518          10.957         4.87276 
        1.14131         10.8808         4.80991 
        1.14745         10.7256          4.7482 
        1.15359         10.6196         4.68756 
        1.15973         10.5708         4.62797 
        1.16584          10.453         4.56967 
        1.17197         10.3516          4.5123 
        1.17811         10.2944         4.45574 
        1.18424         10.2088         4.40031 
        1.19038         10.1714         4.34567 
        1.19652         10.0333         4.29197 
        1.20267              10         4.23919 
        1.20881         9.86575          4.1873 
        1.21495         9.81509         4.13637 
        1.22108         9.74623         4.08629 
         1.2272         9.65521         4.03716 
        1.23334         9.61148         3.98872 
        1.23949         9.52035         3.94096 
        1.24562         9.42505         3.89412 
        1.25174         9.39378         3.84811 
        1.25789         9.31354         3.80271 
        1.26402         9.23545         3.75812 
        1.27014         9.19049         3.71435 
        1.27628         9.09152         3.67115 
        1.28244         9.06587         3.62855 
        1.28858         8.96151         3.58668 
        1.29471         8.87955         3.54556 
        1.30084          8.8141         3.50513 
        1.30697         8.76661         3.46527 
        1.31312         8.71175         3.42597 
        1.31925         8.66012          3.3874 
        1.32537         8.57067         3.34946 
        1.33151         8.51093         3.31197 
        1.33765         8.47603         3.27507 
        1.34378         8.42649         3.23881 
        1.34992          8.3507         3.20308 
        1.35606          8.2661          3.1678 
         1.3622         8.21758         3.13312 
        1.36833         8.18952         3.09905 
        1.37445         8.12199         3.06549 
        1.38059         8.05295         3.03233 
        1.38675         8.02319         2.99959 
        1.39288         7.95466         2.96745 
        1.39901         7.88559         2.93581 
        1.40515         7.84798         2.90455 
         1.4113           7.792         2.87376 
        1.41742         7.75011         2.84353 
        1.42355         7.68248         2.81368 
         1.4297          7.6326         2.78417 
        1.43585          7.5898          2.7551 
        1.44198         7.57026         2.72655 
        1.44809         7.50457         2.69846 
        1.45423          7.4485         2.67066 
        1.46036         7.39916          2.6433 
        1.46649         7.35529         2.61632 
        1.47263         7.31047         2.58969 
        1.47877         7.24359         2.56344 
        1.48491         7.23012         2.53751 
        1.49104         7.17934           2.512 
        1.49718         7.13809         2.48682 
        1.50333         7.09756         2.46194 
        1.50947         7.05005         2.43745 
         1.5156         7.01477         2.41334 
        1.52172         6.95181         2.38954 
        1.52787          6.9501         2.36602 
          1.534         6.87991         2.34285 
        1.54013         6.85159         2.32001 
        1.54627         6.79894         2.29743 
        1.55241         6.74156         2.27515 
        1.55855         6.72473          2.2532 
        1.56467         6.70164         2.23159 
         1.5708         6.64688         2.21021 
        1.57695         6.60735         2.18907 
        1.58308          6.5702         2.16826 
        1.58922         6.53448         2.14771 
        1.59535         6.50765         2.12743 
         1.6015         6.43307         2.10738 
        1.60764         6.40733          2.0876 
        1.61376         6.38149         2.06813 
        1.61989         6.34126         2.04889 
        1.62604         6.32296         2.02985 
        1.63218         6.27909         2.01107 
        1.63831         6.24143         1.99257 
        1.64444         6.19888         1.97429 
        1.65059         6.16053          1.9562 
        1.65673         6.14282         1.93835 
        1.66285         6.09925         1.92078 
        1.66898         6.08642         1.90342 
        1.67512          6.0573         1.88624 
        1.68127         5.99482         1.86925 
         1.6874         5.98951         1.85251 
        1.69353         5.92595         1.83599 
        1.69967          5.9098         1.81963 
        1.70581         5.87716         1.80347 
        1.71193          5.8391         1.78757 
        1.71806         5.81311         1.77183 
        1.72421         5.78158         1.75625 
        1.73035          5.7688         1.74087 
        1.73649         5.73833         1.72568 
        1.74262          5.6857         1.71068 
        1.74876         5.67354         1.69585 
        1.75489         5.65049         1.68122 
        1.76101         5.59484         1.66678 
        1.76715         5.59913         1.65248 
        1.77329          5.5518         1.63833 
        1.77943         5.51502         1.62434 
        1.78557          5.5146         1.61054 
        1.79171         5.47292         1.59689 
        1.79785         5.44966          1.5834 
        1.80399         5.42626         1.57006 
        1.81012         5.38635          1.5569 
        1.81625         5.36584         1.54389 
        1.82239         5.33676         1.53102 
        1.82853         5.29878         1.51829 
        1.83466         5.27412         1.50572 
        1.84078         5.24777         1.49331 
        1.84692          5.2385         1.48102 
        1.85306         5.21038         1.46885 
         1.8592         5.18968         1.45683 
        1.86533         5.15434         1.44496 
        1.87147         5.13792         1.43321 
        1.87761         5.11288         1.42158 
        1.88375         5.09247         1.41009 
        1.88988         5.06523         1.39874 
        1.89601         5.03087         1.38751 
        1.90215         5.01449          1.3764 
        1.90829         4.99502         1.36541 
        1.91442         4.97412         1.35454 
        1.92056         4.95609          1.3438 
         1.9267         4.93098         1.33316 
        1.93284         4.90356         1.32263 
        1.93897         4.87256         1.31224 
        1.94509         4.84112         1.30198 
        1.95123         4.83859          1.2918 
        1.95737          4.8192         1.28172 
        1.96349         4.78764         1.27178 
        1.96964         4.76062         1.26191 
        1.97578         4.74538         1.25215 
        1.98192         4.73177          1.2425 
        1.98805         4.70301         1.23296 
        1.99419         4.68886         1.22352 
        2.00033         4.65872         1.21417 
        2.00647         4.64722         1.20492 
         2.0126         4.62546         1.19578 
        2.01874         4.59981         1.18672 
        2.02488         4.58795         1.17775 
        2.03101         4.56804         1.16889 
        2.03714         4.53628         1.16012 
        2.04328         4.51715         1.15144 
        2.04941         4.49735         1.14285 
        2.05554         4.48368         1.13436 
        2.06167         4.47102         1.12594 
        2.06781         4.44927          1.1176 
        2.07396         4.42617         1.10934 
        2.08009          4.3992         1.10117 
        2.08622         4.39604          1.0931 
        2.09237         4.37479         1.08509 
        2.09851         4.35018         1.07716 
        2.10464         4.33953         1.06932 
        2.11077         4.30653         1.06157 
        2.11691         4.29968         1.05388 
        2.12305         4.28526         1.04626 
        2.12918         4.25636         1.03874 
        2.13531         4.24866         1.03129 
        2.14145         4.22483          1.0239 
         2.1476         4.21266         1.01657 
        2.15372         4.19377         1.00935 
        2.15985         4.17495         1.00219 
        2.16599          4.1635        0.995076 
        2.17213         4.15721        0.988043 
        2.17827         4.12992        0.981079 
         2.1844         4.12427        0.974188 
        2.19054         4.10091        0.967361 
        2.19666         4.08084        0.960608 
         2.2028         4.06077        0.953914 
        2.20893         4.05547        0.947281 
        2.21508         4.02949        0.940703 
        2.22122         4.01438        0.934185 
        2.22736         3.99478        0.927742 
        2.23349         3.97757        0.921361 
        2.23962         3.96567        0.915037 
        2.24577         3.95571        0.908767 
         2.2519         3.94567        0.902564 
        2.25802         3.91486        0.896428 
        2.26417          3.9018        0.890333 
        2.27031          3.8874        0.884288 
        2.27644         3.88321        0.878317 
        2.28257         3.85458        0.872401 
        2.28872         3.84309        0.866528 
        2.29486         3.83106        0.860711 
        2.30099         3.81928        0.854958 
        2.30712         3.79709        0.849255 
        2.31326         3.78664        0.843595 
         2.3194         3.76922        0.837989 
        2.32553         3.75891        0.832444 
        2.33166         3.73853        0.826951 
         2.3378         3.73003        0.821499 
        2.34394         3.71085        0.816096 
        2.35007         3.70287        0.810748 
        2.35619         3.69141        0.805454 
        2.36233         3.67605        0.800196 
        2.36848         3.65939        0.794973 
        2.37462         3.65077        0.789807 
        2.38075         3.63273        0.784693 
        2.38689         3.62354        0.779619 
        2.39303         3.60947        0.774591 
        2.39916         3.59908        0.769613 
        2.40529         3.58099        0.764678 
        2.41143         3.58051        0.759783 
        2.41757         3.55693        0.754929 
         2.4237          3.5471        0.750126 
        2.42983         3.53018        0.745365 
        2.43598         3.52338        0.740632 
        2.44211         3.50314        0.735949 
        2.44823         3.48965        0.731316 
        2.45437         3.48336         0.72671 
        2.46052         3.47638         0.72214 
        2.46665         3.45942        0.717617 
        2.47279         3.44323        0.713134 
        2.47892         3.43095        0.708687 
        2.48507         3.42046        0.704273 
         2.4912         3.40868        0.699905 
