# k  (h/Mpc)    Pcb(k)  (Mpc/h)^3    Pcb_linear(k)  (Mpc/h)^3
     0.00783031         5411.13         5434.72 
       0.013688         7074.82         7202.72 
       0.019231         7708.18         7785.72 
      0.0249154         7679.32         7685.27 
      0.0312784         7064.21         7124.55 
      0.0375637         6327.85         6418.18 
      0.0433917          5766.9         5801.33 
      0.0492413         5221.36         5291.93 
      0.0555754         4835.46         4872.72 
      0.0619321         4415.09          4553.8 
       0.067871         4214.95         4299.63 
      0.0738098         3980.49         4047.27 
      0.0800417         3705.05         3760.27 
      0.0862327         3384.56         3451.52 
      0.0921407         3092.58         3151.05 
      0.0982031         2832.85         2860.17 
       0.104506         2547.78         2598.11 
       0.110769         2352.19         2389.78 
       0.116806         2238.87         2237.01 
       0.122832          2098.9          2121.3 
       0.129052         2008.79         2024.65 
       0.135211            1943         1935.59 
       0.141259         1828.85         1842.94 
       0.147318         1705.23         1740.08 
       0.153489         1612.72         1626.83 
       0.159709         1529.67         1511.02 
       0.165845         1396.36         1403.57 
       0.171974         1349.59         1309.76 
       0.178125         1287.27         1232.47 
       0.184229         1198.32         1171.91 
        0.19034          1172.1         1123.79 
       0.196428          1136.1         1083.09 
       0.202534         1071.52         1044.24 
       0.208729         1051.77         1002.82 
       0.214876         1014.02         957.945 
       0.220989         949.541         910.144 
       0.227147         927.247         861.068 
        0.23329         890.171         814.091 
       0.239377         868.079          771.99 
       0.245482         823.648         735.597 
       0.251667         791.311         704.778 
       0.257832         782.926         679.078 
       0.263955         743.375         656.761 
       0.270079         721.792         635.734 
        0.27624         692.447         614.386 
       0.282372          678.28         592.098 
        0.28843         673.357          569.06 
       0.294538         640.197         545.414 
       0.300721         618.576         522.014 
        0.30691         608.615         500.086 
       0.313033          583.64         480.495 
       0.319153         573.606          463.22 
       0.325316         560.964         447.899 
        0.33145         549.138         434.208 
       0.337538         530.889         421.493 
       0.343633         515.533         409.059 
       0.349808         502.833         396.377 
       0.355968         493.024           383.5 
       0.362074         480.299         370.654 
       0.368217         474.859         357.902 
       0.374374         465.328         345.647 
       0.380519         447.172         334.187 
       0.386598         441.063          323.75 
       0.392688         432.229         314.189 
        0.39888         421.301         305.219 
       0.405048         414.718          296.85 
       0.411186         411.404         288.845 
       0.417313          404.39         280.994 
       0.423458         393.372         273.188 
       0.429607         385.173         265.423 
       0.435692         377.977         257.848 
       0.441815          371.86         250.447 
       0.447964         362.883         243.327 
       0.454126         357.636         236.568 
       0.460267         353.222         230.243 
       0.466387         347.351         224.316 
        0.47254         343.028         218.661 
       0.478662           333.7         213.272 
       0.484765         330.163         208.071 
       0.490885         326.282         202.964 
       0.497035         321.987         197.916 
       0.503198         318.747         192.962 
       0.509342         310.314         188.147 
       0.515458         307.282         183.501 
       0.521598         300.803         179.008 
       0.527764         297.239         174.693 
       0.533884         296.903         170.606 
           0.54         290.626         166.694 
       0.546137         284.341         162.915 
       0.552299         283.144         159.245 
       0.558452         278.506         155.688 
       0.564573         276.347         152.238 
       0.570708         271.237         148.858 
       0.576825         267.264         145.565 
       0.582926         264.476          142.37 
       0.589034         261.391         139.269 
       0.595184         259.648         136.252 
       0.601379         254.175         133.318 
       0.607522         250.475         130.506 
       0.613639         248.554         127.798 
       0.619772         246.472         125.167 
       0.625918         244.213          122.61 
       0.632068          239.19         120.122 
       0.638161         236.616         117.718 
         0.6443         235.776         115.355 
       0.650464          231.83          113.04 
       0.656582         230.333         110.802 
       0.662703         228.397         108.625 
       0.668861         224.259         106.499 
       0.675024         224.083         104.434 
       0.681124         220.874         102.451 
       0.687237         217.942         100.517 
       0.693381          216.79         98.6261 
       0.699536         213.987         96.7795 
       0.705665         211.316         94.9864 
       0.711789         209.253         93.2392 
       0.717957          207.12         91.5234 
        0.72409         205.947         89.8602 
       0.730186         205.292         88.2489 
       0.736317         201.812         86.6691 
       0.742472         199.411          85.123 
       0.748622         196.696         83.6168 
        0.75476         197.002         82.1508 
       0.760888         195.127         80.7227 
       0.767043         192.377         79.3231 
       0.773185         190.428         77.9599 
       0.779291         188.337         76.6368 
       0.785407         186.783         75.3426 
       0.791564         185.727         74.0705 
       0.797719         183.601         72.8287 
       0.803834         183.101         71.6236 
       0.809972          182.24         70.4417 
       0.816124         179.858         69.2843 
       0.822261         177.839         68.1563 
       0.828378         177.852         67.0571 
       0.834502         174.622         65.9815 
       0.840667         174.187         64.9227 
       0.846816         172.711         63.8903 
       0.852925         171.035         62.8871 
       0.859047         169.561         61.9034 
       0.865192          168.49         60.9376 
       0.871341           166.5          59.992 
       0.877463         165.516         59.0708 
       0.883569         165.189         58.1715 
       0.889708         163.972         57.2864 
       0.895864         162.243         56.4177 
       0.902008         161.065         55.5689 
       0.908149         159.024         54.7383 
       0.914301          159.21         53.9235 
       0.920448         157.919         53.1262 
       0.926574         155.815          52.348 
       0.932687         155.368         51.5871 
       0.938823         154.082         50.8388 
       0.944975         152.379         50.1038 
       0.951105         151.457          49.386 
       0.957225         151.414         48.6836 
       0.963368         149.597         47.9926 
       0.969511         148.221         47.3151 
       0.975621         147.317         46.6544 
       0.981748         146.094         46.0048 
       0.987916         145.229         45.3634 
        0.99406         144.558         44.7368 
        1.00019         143.185         44.1234 
        1.00632         142.639         43.5221 
        1.01246         141.472         42.9312 
        1.01859         140.621         42.3523 
        1.02471         139.439         41.7848 
        1.03085          138.42         41.2259 
        1.03698         137.627         40.6784 
        1.04314         136.785         40.1386 
        1.04929         136.301           39.61 
        1.05541         135.369          39.093 
        1.06154         134.531         38.5841 
        1.06769         133.154         38.0835 
        1.07382         132.316         37.5935 
        1.07993         131.837         37.1133 
        1.08607         130.578         36.6396 
        1.09222         130.302         36.1737 
        1.09836         128.838         35.7165 
        1.10449         128.198         35.2678 
        1.11063         127.318         34.8264 
        1.11677         126.673         34.3928 
         1.1229         125.707         33.9673 
        1.12903         125.399         33.5487 
        1.13518         124.602         33.1368 
        1.14131         123.862         32.7322 
        1.14745         122.733         32.3345 
        1.15359         121.687         31.9435 
        1.15973         121.281         31.5587 
        1.16584         120.509         31.1821 
        1.17197         119.744         30.8112 
        1.17811         119.009         30.4451 
        1.18424         118.124         30.0861 
        1.19038         118.063         29.7319 
        1.19652         117.082         29.3836 
        1.20267         116.234         29.0408 
        1.20881         115.532         28.7037 
        1.21495         115.134         28.3724 
        1.22108         114.273         28.0465 
         1.2272         113.423         27.7264 
        1.23334          112.98         27.4107 
        1.23949         112.411         27.0991 
        1.24562         111.396         26.7933 
        1.25174         110.671         26.4927 
        1.25789         110.802         26.1958 
        1.26402         109.746          25.904 
        1.27014         109.192         25.6174 
        1.27628         108.176         25.3343 
        1.28244         107.861         25.0549 
        1.28858         107.187         24.7801 
        1.29471         106.582         24.5101 
        1.30084         105.864         24.2444 
        1.30697         105.858         23.9823 
        1.31312         104.852         23.7236 
        1.31925         104.325         23.4696 
        1.32537         103.673         23.2196 
        1.33151         103.487         22.9724 
        1.33765         102.507         22.7289 
        1.34378         102.367         22.4894 
        1.34992         101.665         22.2533 
        1.35606         100.986           22.02 
         1.3622         100.526         21.7906 
        1.36833          99.722         21.5649 
        1.37445         99.0331         21.3426 
        1.38059         98.7827         21.1228 
        1.38675         97.9394         20.9055 
        1.39288         97.8103         20.6922 
        1.39901          96.808          20.482 
        1.40515         96.6464         20.2742 
         1.4113         96.1558         20.0694 
        1.41742         95.6005         19.8682 
        1.42355         94.8931         19.6694 
         1.4297         94.4246         19.4728 
        1.43585         93.8398         19.2789 
        1.44198         93.3507         19.0884 
        1.44809         92.8325         18.9009 
        1.45423         92.2933         18.7152 
        1.46036         91.6301         18.5323 
        1.46649         91.4954         18.3518 
        1.47263         90.9368         18.1736 
        1.47877          90.556         17.9979 
        1.48491         89.9775         17.8242 
        1.49104         89.2815         17.6531 
        1.49718         88.9854         17.4842 
        1.50333          88.568         17.3172 
        1.50947         88.1382         17.1528 
         1.5156         87.6728         16.9907 
        1.52172         87.1002         16.8308 
        1.52787         86.5727         16.6726 
          1.534         86.3467         16.5166 
        1.54013         85.9052         16.3628 
        1.54627         85.1782         16.2107 
        1.55241         84.7076         16.0605 
        1.55855         84.5031         15.9124 
        1.56467         83.7084         15.7666 
         1.5708         83.5248         15.6223 
        1.57695         83.0826         15.4795 
        1.58308         82.5852         15.3388 
        1.58922         82.2234         15.1998 
        1.59535         81.8813         15.0626 
         1.6015         81.7086         14.9269 
        1.60764         81.1999         14.7929 
        1.61376         80.6292          14.661 
        1.61989         79.9365         14.5305 
        1.62604          79.746         14.4014 
        1.63218         79.4365         14.2739 
        1.63831         79.0826         14.1482 
        1.64444          78.585         14.0241 
        1.65059         78.3212         13.9011 
        1.65673         77.6116         13.7797 
        1.66285          77.367         13.6602 
        1.66898         76.6892          13.542 
        1.67512         76.7112          13.425 
        1.68127         76.1697         13.3093 
         1.6874         75.7015         13.1951 
        1.69353         75.4641         13.0825 
        1.69967         75.0804         12.9708 
        1.70581          74.645         12.8605 
        1.71193         74.2523         12.7519 
        1.71806         73.8172         12.6444 
        1.72421         73.5636         12.5378 
        1.73035         73.2658         12.4327 
        1.73649         72.8367         12.3287 
        1.74262         72.2198          12.226 
        1.74876         71.9805         12.1245 
        1.75489         71.4786         12.0243 
        1.76101          71.151         11.9252 
        1.76715         71.1562         11.8272 
        1.77329         70.4127         11.7301 
        1.77943         70.3392         11.6341 
        1.78557         70.0413         11.5393 
        1.79171         69.5291         11.4455 
        1.79785         69.2213         11.3528 
        1.80399         68.8657         11.2611 
        1.81012         68.5141         11.1706 
        1.81625         68.2213         11.0811 
        1.82239         67.9237         10.9924 
        1.82853         67.6119         10.9048 
        1.83466         67.1643         10.8182 
        1.84078         66.7789         10.7326 
        1.84692         66.4895         10.6479 
        1.85306         66.1894         10.5639 
         1.8592         65.9647          10.481 
        1.86533         65.4559          10.399 
        1.87147         65.2341         10.3178 
        1.87761         64.7916         10.2374 
        1.88375         64.6119          10.158 
        1.88988         64.3008         10.0796 
        1.89601         63.8873         10.0019 
        1.90215         63.6305         9.92493 
        1.90829         63.3538         9.84885 
        1.91442              63         9.77355 
        1.92056          62.637         9.69912 
         1.9267         62.3802         9.62539 
        1.93284         62.1695         9.55238 
        1.93897         61.8545         9.48027 
        1.94509         61.3592         9.40906 
        1.95123         61.0664          9.3384 
        1.95737         60.7442         9.26841 
        1.96349         60.4585         9.19933 
        1.96964         60.2228         9.13075 
        1.97578         60.0082         9.06284 
        1.98192         59.6854         8.99576 
        1.98805         59.3954         8.92935 
        1.99419         59.1216         8.86361 
        2.00033          58.801          8.7985 
        2.00647         58.5389         8.73406 
         2.0126         58.2022         8.67038 
        2.01874         57.8731         8.60724 
        2.02488         57.6312         8.54468 
        2.03101          57.361         8.48285 
        2.03714         57.0999         8.42169 
        2.04328         56.8467         8.36107 
        2.04941         56.5248          8.3011 
        2.05554         56.3587         8.24176 
        2.06167         56.1283         8.18292 
        2.06781         55.6571         8.12465 
        2.07396         55.4614         8.06686 
        2.08009          55.311         8.00973 
        2.08622         54.9642         7.95323 
        2.09237         54.7095         7.89716 
        2.09851         54.3706         7.84162 
        2.10464         54.1189         7.78671 
        2.11077         53.9196         7.73239 
        2.11691         53.5599         7.67847 
        2.12305          53.405         7.62506 
        2.12918         53.0978         7.57229 
        2.13531         52.8847         7.52002 
        2.14145          52.608         7.46812 
         2.1476         52.3251         7.41665 
        2.15372         52.1724         7.36592 
        2.15985         51.7941         7.31562 
        2.16599         51.6678         7.26564 
        2.17213         51.3699         7.21619 
        2.17827         51.0926         7.16721 
         2.1844         50.8138         7.11873 
        2.19054         50.5848         7.07068 
        2.19666          50.314         7.02315 
         2.2028          50.094         6.97601 
        2.20893         49.8404         6.92928 
        2.21508         49.6321         6.88292 
        2.22122         49.4083         6.83698 
        2.22736         49.1159         6.79155 
        2.23349         48.9382         6.74654 
        2.23962         48.6608         6.70193 
        2.24577         48.5183         6.65767 
         2.2519         48.1862         6.61388 
        2.25802         48.0289         6.57055 
        2.26417         47.7703         6.52749 
        2.27031         47.6338         6.48477 
        2.27644         47.3499         6.44257 
        2.28257         46.9629         6.40074 
        2.28872         46.9487          6.3592 
        2.29486         46.6796         6.31804 
        2.30099          46.349         6.27733 
        2.30712         46.2469         6.23696 
        2.31326         45.9403         6.19688 
         2.3194         45.7368         6.15718 
        2.32553         45.5548         6.11789 
        2.33166          45.235         6.07896 
         2.3378         45.0811         6.04031 
        2.34394         44.9146         6.00199 
        2.35007         44.6171         5.96406 
        2.35619         44.5545          5.9265 
        2.36233         44.2602         5.88918 
        2.36848         44.0408          5.8521 
        2.37462         43.8772         5.81542 
        2.38075         43.7142         5.77909 
        2.38689         43.4847         5.74304 
        2.39303         43.3284         5.70731 
        2.39916         42.9655         5.67191 
        2.40529         42.7718         5.63682 
        2.41143         42.6467           5.602 
        2.41757         42.4528         5.56746 
         2.4237         42.2614         5.53328 
        2.42983         42.0463         5.49938 
        2.43598         41.8947         5.46568 
        2.44211            41.7         5.43232 
        2.44823         41.4434         5.39931 
        2.45437         41.2935         5.36648 
        2.46052         41.0394         5.33391 
        2.46665          40.844         5.30165 
        2.47279         40.5975         5.26968 
        2.47892         40.5271         5.23795 
        2.48507         40.3051         5.20645 
         2.4912         40.1485         5.17527 
