# k  (h/Mpc)    Pcb(k)  (Mpc/h)^3    Pcb_linear(k)  (Mpc/h)^3
     0.00783031         9004.63         9039.09 
       0.013688         11716.2         11979.8 
       0.019231         12775.8         12949.2 
      0.0249154         12756.1         12781.9 
      0.0312784         11693.2         11849.2 
      0.0375637         10450.3         10674.3 
      0.0433917         9535.76         9648.31 
      0.0492413         8615.43         8801.06 
      0.0555754         7976.09         8103.84 
      0.0619321          7239.6         7573.42 
       0.067871            6921         7150.69 
      0.0738098         6546.21         6730.98 
      0.0800417         6085.74         6253.67 
      0.0862327         5556.74         5740.18 
      0.0921407         5084.02         5240.47 
      0.0982031         4670.21         4756.69 
       0.104506         4197.86         4320.86 
       0.110769         3881.18         3974.41 
       0.116806         3704.69         3720.33 
       0.122832         3474.16         3527.89 
       0.129052         3315.62         3367.16 
       0.135211         3220.59         3219.04 
       0.141259         3021.39         3064.96 
       0.147318         2816.53         2893.88 
       0.153489         2671.57         2705.54 
       0.159709         2555.63         2512.94 
       0.165845          2332.5         2334.24 
       0.171974         2265.61         2178.23 
       0.178125         2178.74          2049.7 
       0.184229         2015.92         1948.97 
        0.19034         1983.09         1868.95 
       0.196428         1928.48         1801.25 
       0.202534         1819.35         1736.66 
       0.208729         1788.37         1667.77 
       0.214876         1721.63         1593.13 
       0.220989         1626.64         1513.64 
       0.227147         1588.29         1432.02 
        0.23329          1527.7         1353.89 
       0.239377         1507.68         1283.88 
       0.245482         1435.31         1223.35 
       0.251667         1382.07          1172.1 
       0.257832         1366.15         1129.36 
       0.263955         1303.07         1092.24 
       0.270079         1270.11         1057.27 
        0.27624         1218.74         1021.77 
       0.282372         1201.96         984.702 
        0.28843         1188.86         946.388 
       0.294538         1132.21         907.063 
       0.300721         1105.41         868.147 
        0.30691         1085.05         831.679 
       0.313033         1042.64         799.097 
       0.319153          1029.1         770.368 
       0.325316         1015.19         744.887 
        0.33145         996.479         722.119 
       0.337538         963.223         700.972 
       0.343633         939.142         680.294 
       0.349808         919.967         659.203 
       0.355968          903.79         637.788 
       0.362074         877.345         616.423 
       0.368217          873.61         595.217 
       0.374374         860.046         574.836 
       0.380519         829.539         555.777 
       0.386598         823.121          538.42 
       0.392688         806.827         522.519 
        0.39888         786.438         507.602 
       0.405048         774.573         493.683 
       0.411186          771.35          480.37 
       0.417313         766.842         467.313 
       0.423458         742.929         454.331 
       0.429607          723.64         441.417 
       0.435692         715.789         428.819 
       0.441815         704.199         416.511 
       0.447964         693.334         404.671 
       0.454126         684.665         393.429 
       0.460267         674.893         382.911 
       0.466387         665.901         373.053 
        0.47254         654.473         363.649 
       0.478662         643.602         354.687 
       0.484765         638.263         346.036 
       0.490885         631.319         337.544 
       0.497035         620.183         329.149 
       0.503198         619.515          320.91 
       0.509342         606.409         312.902 
       0.515458         596.071         305.175 
       0.521598          589.69         297.703 
       0.527764         579.113         290.527 
       0.533884         576.569          283.73 
           0.54         569.684         277.224 
       0.546137          559.99         270.938 
       0.552299         558.684         264.835 
       0.558452         551.338          258.92 
       0.564573          544.74         253.183 
       0.570708         540.645         247.561 
       0.576825         530.375         242.085 
       0.582926         527.283         236.771 
       0.589034         520.477         231.614 
       0.595184         516.286         226.597 
       0.601379         508.137         221.718 
       0.607522         500.707         217.041 
       0.613639         498.785         212.537 
       0.619772         496.396         208.162 
       0.625918         488.443         203.909 
       0.632068         483.711         199.771 
       0.638161         478.856         195.774 
         0.6443         475.009         191.843 
       0.650464          469.69         187.993 
       0.656582         465.548         184.271 
       0.662703         461.581         180.651 
       0.668861          456.01         177.115 
       0.675024         452.409         173.682 
       0.681124         447.673         170.383 
       0.687237         444.613         167.168 
       0.693381         439.722         164.022 
       0.699536         435.852         160.951 
       0.705665         431.741         157.969 
       0.711789         430.659         155.063 
       0.717957         423.992          152.21 
        0.72409         420.541         149.444 
       0.730186         422.179         146.764 
       0.736317         414.635         144.137 
       0.742472         410.016         141.566 
       0.748622         406.439         139.061 
        0.75476         404.959         136.623 
       0.760888         401.391         134.247 
       0.767043         398.313          131.92 
       0.773185         396.341         129.653 
       0.779291         390.101         127.452 
       0.785407         388.927           125.3 
       0.791564         384.885         123.184 
       0.797719         379.562         121.119 
       0.803834         382.341         119.115 
       0.809972         376.765          117.15 
       0.816124         372.889         115.225 
       0.822261         369.181         113.349 
       0.828378         368.768         111.521 
       0.834502         363.134         109.732 
       0.840667         362.956         107.971 
       0.846816          357.52         106.254 
       0.852925         357.132         104.586 
       0.859047         353.481          102.95 
       0.865192         352.958         101.344 
       0.871341         347.952         99.7708 
       0.877463          344.66         98.2389 
       0.883569         343.189         96.7432 
       0.889708         340.504         95.2713 
       0.895864         338.123         93.8265 
       0.902008         335.986          92.415 
       0.908149         333.323         91.0336 
       0.914301         331.521         89.6786 
       0.920448         329.205         88.3526 
       0.926574         327.193         87.0584 
       0.932687         324.579          85.793 
       0.938823         321.674         84.5485 
       0.944975         320.125         83.3261 
       0.951105         317.526         82.1324 
       0.957225         314.258         80.9643 
       0.963368         314.021         79.8151 
       0.969511         308.633         78.6884 
       0.975621          308.65         77.5896 
       0.981748         306.344         76.5091 
       0.987916         304.707         75.4425 
        0.99406         302.008         74.4005 
        1.00019         299.622         73.3803 
        1.00632         299.311         72.3803 
        1.01246         297.086         71.3975 
        1.01859         293.323         70.4348 
        1.02471         291.249         69.4911 
        1.03085         290.914         68.5615 
        1.03698         288.341          67.651 
        1.04314         287.918         66.7533 
        1.04929         285.425         65.8741 
        1.05541         282.676         65.0144 
        1.06154         281.202          64.168 
        1.06769         278.264         63.3355 
        1.07382         278.403         62.5206 
        1.07993         275.194          61.722 
        1.08607         272.938         60.9342 
        1.09222         272.046         60.1594 
        1.09836         270.607         59.3991 
        1.10449          268.24         58.6529 
        1.11063         266.093         57.9188 
        1.11677         264.946         57.1975 
         1.1229         262.991         56.4899 
        1.12903         262.114         55.7938 
        1.13518         260.035         55.1088 
        1.14131         259.188         54.4359 
        1.14745         255.806         53.7746 
        1.15359         253.865         53.1242 
        1.15973         253.257         52.4844 
        1.16584          252.37          51.858 
        1.17197         250.223         51.2411 
        1.17811         248.058         50.6324 
        1.18424         246.605         50.0353 
        1.19038         245.184         49.4462 
        1.19652         242.757         48.8669 
        1.20267         242.329         48.2969 
        1.20881         240.295         47.7362 
        1.21495         239.742         47.1853 
        1.22108         237.824         46.6432 
         1.2272         235.604          46.111 
        1.23334         234.707         45.5859 
        1.23949         233.958         45.0678 
        1.24562         232.097         44.5592 
        1.25174         230.415         44.0592 
        1.25789         228.603         43.5655 
        1.26402         228.322         43.0802 
        1.27014         226.874         42.6035 
        1.27628         224.211         42.1327 
        1.28244          223.66         41.6681 
        1.28858         222.133         41.2111 
        1.29471         220.997         40.7621 
        1.30084         219.571         40.3201 
        1.30697         217.856         39.8842 
        1.31312         216.591          39.454 
        1.31925         215.161         39.0316 
        1.32537         214.608         38.6158 
        1.33151         212.833         38.2046 
        1.33765         211.149         37.7997 
        1.34378         210.295         37.4015 
        1.34992         209.077         37.0088 
        1.35606         207.897         36.6209 
         1.3622         206.801         36.2392 
        1.36833         204.655          35.864 
        1.37445         204.403         35.4943 
        1.38059         202.729         35.1287 
        1.38675         201.495         34.7673 
        1.39288         200.367         34.4126 
        1.39901         199.156         34.0629 
        1.40515         198.053         33.7174 
         1.4113         196.763         33.3768 
        1.41742         195.069         33.0422 
        1.42355         195.391         32.7116 
         1.4297         193.337         32.3846 
        1.43585         192.137         32.0622 
        1.44198         190.338         31.7454 
        1.44809         189.403         31.4335 
        1.45423         188.968         31.1247 
        1.46036         187.525         30.8205 
        1.46649         186.362         30.5204 
        1.47263         185.583          30.224 
        1.47877           184.4         29.9317 
        1.48491         182.642         29.6428 
        1.49104         180.967         29.3584 
        1.49718         180.706         29.0774 
        1.50333         179.633         28.7998 
        1.50947         178.658         28.5263 
         1.5156         177.579         28.2568 
        1.52172         176.453         27.9908 
        1.52787         175.644         27.7277 
          1.534         174.543         27.4683 
        1.54013         173.633         27.2125 
        1.54627         172.604         26.9595 
        1.55241           171.5         26.7097 
        1.55855         170.666         26.4635 
        1.56467         169.172          26.221 
         1.5708          168.18         25.9809 
        1.57695         167.573         25.7434 
        1.58308         166.493         25.5095 
        1.58922         165.696         25.2783 
        1.59535         164.536         25.0501 
         1.6015          163.06         24.8244 
        1.60764         162.432         24.6016 
        1.61376          161.39         24.3822 
        1.61989         160.574         24.1653 
        1.62604         159.444         23.9505 
        1.63218         158.816         23.7385 
        1.63831         157.663         23.5295 
        1.64444         156.692          23.323 
        1.65059         155.865         23.1185 
        1.65673         154.948         22.9167 
        1.66285         154.465         22.7178 
        1.66898         153.077         22.5213 
        1.67512         152.432         22.3267 
        1.68127         151.276         22.1342 
         1.6874          150.57         21.9444 
        1.69353         149.763          21.757 
        1.69967         148.776         21.5714 
        1.70581         148.225         21.3879 
        1.71193         146.948         21.2073 
        1.71806         146.171         21.0285 
        1.72421         145.547         20.8513 
        1.73035         144.612         20.6764 
        1.73649         143.455         20.5035 
        1.74262         142.949         20.3327 
        1.74876         141.996         20.1638 
        1.75489         141.259         19.9972 
        1.76101         140.459         19.8325 
        1.76715         139.358         19.6694 
        1.77329         138.952          19.508 
        1.77943         137.644         19.3483 
        1.78557         137.257         19.1906 
        1.79171         136.419         19.0347 
        1.79785         135.363         18.8805 
        1.80399         134.852          18.728 
        1.81012         133.681         18.5775 
        1.81625         133.362         18.4286 
        1.82239         132.487         18.2812 
        1.82853         132.051         18.1354 
        1.83466         130.876         17.9914 
        1.84078         130.149         17.8491 
        1.84692         129.893         17.7081 
        1.85306         128.738         17.5685 
         1.8592         128.104         17.4306 
        1.86533         127.137         17.2943 
        1.87147         126.666         17.1592 
        1.87761         125.745         17.0256 
        1.88375         124.965         16.8935 
        1.88988          124.04          16.763 
        1.89601         123.817         16.6338 
        1.90215         123.146         16.5058 
        1.90829         122.128         16.3793 
        1.91442         121.304         16.2541 
        1.92056          120.84         16.1303 
         1.9267         120.031         16.0077 
        1.93284         119.438         15.8863 
        1.93897         118.782         15.7663 
        1.94509         118.025         15.6479 
        1.95123         117.435         15.5304 
        1.95737         116.886          15.414 
        1.96349         116.206         15.2991 
        1.96964         115.409         15.1851 
        1.97578         114.964         15.0721 
        1.98192         114.238         14.9606 
        1.98805         113.612         14.8501 
        1.99419         112.908         14.7408 
        2.00033         112.176         14.6325 
        2.00647         111.649         14.5254 
         2.0126         111.063         14.4194 
        2.01874         110.691         14.3144 
        2.02488         109.659         14.2104 
        2.03101         109.341         14.1076 
        2.03714         108.527         14.0059 
        2.04328         107.941          13.905 
        2.04941          107.33         13.8053 
        2.05554         106.999         13.7066 
        2.06167         105.957         13.6088 
        2.06781         105.367         13.5118 
        2.07396         105.032         13.4157 
        2.08009         104.389         13.3207 
        2.08622         103.761         13.2268 
        2.09237         103.306         13.1335 
        2.09851         102.702         13.0412 
        2.10464          102.13         12.9498 
        2.11077         101.434         12.8595 
        2.11691          101.13         12.7698 
        2.12305         100.384          12.681 
        2.12918          99.927         12.5932 
        2.13531         99.4679         12.5063 
        2.14145         98.5968           12.42 
         2.1476         98.1637         12.3344 
        2.15372         97.6898           12.25 
        2.15985          97.116         12.1664 
        2.16599         96.5024         12.0833 
        2.17213         96.1754          12.001 
        2.17827         95.4239         11.9196 
         2.1844         95.0058         11.8389 
        2.19054         94.5762          11.759 
        2.19666         93.8089           11.68 
         2.2028         93.4783         11.6016 
        2.20893         92.8924         11.5239 
        2.21508          92.349         11.4468 
        2.22122         91.9181         11.3704 
        2.22736         91.4862         11.2948 
        2.23349         90.9375           11.22 
        2.23962         90.5361         11.1458 
        2.24577         89.9875         11.0722 
         2.2519         89.4156         10.9993 
        2.25802         88.9152         10.9273 
        2.26417         88.4463         10.8557 
        2.27031         87.8996         10.7846 
        2.27644         87.5867         10.7144 
        2.28257         87.0586         10.6449 
        2.28872         86.6053         10.5758 
        2.29486         86.2483         10.5073 
        2.30099         85.5163         10.4396 
        2.30712         85.3352         10.3725 
        2.31326         84.8306         10.3058 
         2.3194         84.1456         10.2398 
        2.32553          83.814         10.1745 
        2.33166         83.2729         10.1097 
         2.3378         83.0729         10.0455 
        2.34394         82.5955         9.98173 
        2.35007         81.9759         9.91864 
        2.35619         81.5164         9.85618 
        2.36233         81.1878         9.79411 
        2.36848         80.6658         9.73245 
        2.37462         80.2014         9.67145 
        2.38075         79.9043         9.61103 
        2.38689         79.5338         9.55107 
        2.39303         79.0994         9.49164 
        2.39916         78.7584         9.43278 
        2.40529         78.1404         9.37442 
        2.41143          77.821         9.31651 
        2.41757         77.3754         9.25907 
         2.4237         76.9513         9.20222 
        2.42983         76.5477         9.14585 
        2.43598         76.2972          9.0898 
        2.44211         75.5937         9.03432 
        2.44823         75.4014         8.97942 
        2.45437         75.0628         8.92483 
        2.46052         74.5904         8.87065 
        2.46665         74.0983         8.81702 
        2.47279         73.7515         8.76384 
        2.47892         73.2494         8.71107 
        2.48507         72.9239         8.65869 
         2.4912         72.6176         8.60684 
