# k  (h/Mpc)    P(k)  (Mpc/h)^3    P_linear(k)  (Mpc/h)^3
     0.00783031         13245.9         13343.5 
       0.013688         17212.7         17730.2 
       0.019231         18753.8         19123.7 
      0.0249154         18718.8         18827.8 
      0.0312784         17089.1         17442.7 
      0.0375637         15288.4         15765.8 
      0.0433917         14054.3         14344.7 
      0.0492413         12772.6         13193.9 
      0.0555754         11898.2           12243 
      0.0619321         10778.5         11480.6 
       0.067871         10290.3         10818.8 
      0.0738098         9698.88         10122.1 
      0.0800417         8935.02         9326.67 
      0.0862327         8115.85         8502.88 
      0.0921407         7425.44            7745 
      0.0982031         6861.17         7054.72 
       0.104506         6214.51         6468.37 
       0.110769          5805.6         6021.26 
       0.116806         5589.46         5692.67 
       0.122832         5266.54         5424.72 
       0.129052         5001.58         5168.02 
       0.135211         4852.47         4901.94 
       0.141259          4514.4         4617.22 
       0.147318         4195.38         4315.39 
       0.153489         3981.41         4009.79 
       0.159709         3842.65         3725.77 
       0.165845         3526.53          3484.9 
       0.171974         3443.95         3288.71 
       0.178125         3355.05         3131.49 
       0.184229         3103.59          3002.9 
        0.19034         3068.76         2887.24 
       0.196428         2991.66         2772.67 
       0.202534         2830.26         2651.26 
       0.208729         2769.56         2520.48 
       0.214876          2661.2         2387.55 
       0.220989         2544.12         2259.18 
       0.227147         2481.39         2140.45 
        0.23329         2390.78         2036.73 
       0.239377         2382.56         1949.15 
       0.245482         2283.96         1874.15 
       0.251667         2202.72         1807.02 
       0.257832         2171.78         1744.18 
       0.263955         2086.64          1682.1 
       0.270079         2046.52          1618.5 
        0.27624         1962.12         1553.07 
       0.282372         1947.84         1488.13 
        0.28843         1910.16         1426.34 
       0.294538         1834.51         1368.37 
       0.300721          1807.7         1315.28 
        0.30691         1763.03         1267.78 
       0.313033         1706.72         1225.52 
       0.319153         1693.57         1186.53 
       0.325316         1673.61          1149.1 
        0.33145         1642.71         1112.49 
       0.337538         1596.41         1076.31 
       0.343633         1563.51         1040.25 
       0.349808         1541.35         1004.39 
       0.355968         1508.87         969.974 
       0.362074         1474.76         937.744 
       0.368217         1470.34          907.58 
       0.374374         1447.26          879.54 
       0.380519         1404.72         853.505 
       0.386598         1403.61          829.19 
       0.392688          1368.4         805.802 
        0.39888         1346.24         782.686 
       0.405048         1322.89           760.1 
       0.411186         1314.21         738.073 
       0.417313         1316.05         716.669 
       0.423458         1276.58         695.946 
       0.429607         1245.11         676.128 
       0.435692         1238.31         657.528 
       0.441815          1215.8         639.773 
       0.447964          1207.7         622.838 
       0.454126         1191.16         606.633 
       0.460267         1179.31         591.077 
       0.466387         1162.49         576.035 
        0.47254         1140.59         561.326 
       0.478662         1131.57         547.081 
       0.484765         1122.33         533.276 
       0.490885         1108.99         519.879 
       0.497035         1092.11         506.914 
       0.503198         1091.71         494.442 
       0.509342         1071.93         482.499 
       0.515458         1051.73         471.076 
       0.521598         1054.04         460.034 
       0.527764         1028.69         449.319 
       0.533884         1019.55         439.006 
           0.54         1012.75         428.987 
       0.546137         1002.81         419.218 
       0.552299          993.68         409.696 
       0.558452         986.988         400.478 
       0.564573         980.636         391.592 
       0.570708         970.397         382.972 
       0.576825         951.992         374.663 
       0.582926         950.049         366.651 
       0.589034         941.326         358.882 
       0.595184         929.777         351.296 
       0.601379         915.478         343.874 
       0.607522         906.534         336.717 
       0.613639         905.109         329.789 
       0.619772         895.021         323.037 
       0.625918         887.578         316.461 
       0.632068         880.041         310.067 
       0.638161         867.982         303.912 
         0.6443          861.63         297.884 
       0.650464         856.595         292.004 
       0.656582         850.879         286.332 
       0.662703         838.153         280.816 
       0.668861         831.344         275.417 
       0.675024         826.189         270.157 
       0.681124         813.881         265.089 
       0.687237          814.87         260.139 
       0.693381         799.858         255.292 
       0.699536         801.821          250.56 
       0.705665         792.139          245.97 
       0.711789         788.522         241.502 
       0.717957         780.576         237.117 
        0.72409         773.969         232.869 
       0.730186         770.104         228.753 
       0.736317         762.503         224.717 
       0.742472         752.342         220.766 
       0.748622          750.06         216.914 
        0.75476         741.863         213.162 
       0.760888         738.017         209.506 
       0.767043         735.615         205.922 
       0.773185         731.087         202.429 
       0.779291         722.079         199.039 
       0.785407         716.818         195.722 
       0.791564          711.87         192.461 
       0.797719         701.946         189.278 
       0.803834         702.402         186.188 
       0.809972         694.355         183.157 
       0.816124         690.252         180.188 
       0.822261         685.978         177.294 
       0.828378         683.227         174.474 
       0.834502         672.725         171.713 
       0.840667         671.298         168.995 
       0.846816          666.84         166.344 
       0.852925         662.841         163.767 
       0.859047         657.221          161.24 
       0.865192          653.17         158.759 
       0.871341         646.848          156.33 
       0.877463         645.837         153.962 
       0.883569          638.69         151.651 
       0.889708         631.941         149.376 
       0.895864         626.639         147.142 
       0.902008         625.913         144.959 
       0.908149         620.018         142.822 
       0.914301         617.824         140.726 
       0.920448         610.807         138.674 
       0.926574         607.789         136.671 
       0.932687          605.42         134.712 
       0.938823         598.751         132.785 
       0.944975         594.762         130.892 
       0.951105         591.574         129.043 
       0.957225         583.386         127.233 
       0.963368         584.874         125.453 
       0.969511         576.809         123.706 
       0.975621         574.872         122.003 
       0.981748         570.872         120.328 
       0.987916         568.168         118.674 
        0.99406         563.059         117.058 
        1.00019         557.992         115.475 
        1.00632         554.745         113.924 
        1.01246         551.538         112.399 
        1.01859         546.975         110.905 
        1.02471         545.422          109.44 
        1.03085         539.821         107.996 
        1.03698         539.077         106.582 
        1.04314         532.673         105.188 
        1.04929         531.546         103.822 
        1.05541         524.575         102.487 
        1.06154         523.493         101.171 
        1.06769         519.116         99.8775 
        1.07382         514.563         98.6107 
        1.07993         514.324         97.3691 
        1.08607         509.981         96.1439 
        1.09222         506.058         94.9388 
        1.09836         501.708          93.756 
        1.10449         497.587          92.595 
        1.11063         495.806         91.4526 
        1.11677         491.228         90.3301 
         1.1229         488.797         89.2286 
        1.12903         484.643         88.1447 
        1.13518         483.077         87.0781 
        1.14131         480.367           86.03 
        1.14745         475.085         84.9999 
        1.15359         472.542         83.9867 
        1.15973          470.15         82.9897 
        1.16584         468.015         82.0136 
        1.17197         464.594          81.052 
        1.17811         459.367          80.103 
        1.18424         457.695         79.1721 
        1.19038          455.33         78.2534 
        1.19652         450.572         77.3499 
        1.20267         449.455         76.4608 
        1.20881         447.058          75.586 
        1.21495         441.417         74.7263 
        1.22108          441.52         73.8804 
         1.2272         435.632         73.0496 
        1.23334         434.838         72.2298 
        1.23949          430.47         71.4208 
        1.24562         430.469         70.6266 
        1.25174         426.316         69.8457 
        1.25789         423.409         69.0743 
        1.26402          420.98         68.3161 
        1.27014         418.605         67.5712 
        1.27628         414.723         66.8353 
        1.28244         412.595          66.109 
        1.28858           410.7         65.3946 
        1.29471         409.031         64.6925 
        1.30084         405.957         64.0014 
        1.30697         402.172         63.3194 
        1.31312         399.948         62.6466 
        1.31925         397.185         61.9857 
        1.32537         395.517         61.3351 
        1.33151         391.922         60.6916 
        1.33765         389.485         60.0578 
        1.34378         386.784         59.4344 
        1.34992         383.928         58.8195 
        1.35606         381.454          58.212 
         1.3622         380.114         57.6143 
        1.36833         378.621         57.0265 
        1.37445         376.313         56.4473 
        1.38059         372.146         55.8744 
        1.38675         370.606         55.3082 
        1.39288         368.544         54.7522 
        1.39901         365.959         54.2041 
        1.40515         364.154         53.6624 
         1.4113         361.681         53.1283 
        1.41742         358.253         52.6037 
        1.42355         357.719         52.0851 
         1.4297          355.61         51.5721 
        1.43585         350.833         51.0663 
        1.44198         350.781         50.5692 
        1.44809         348.546         50.0797 
        1.45423         345.715          49.595 
        1.46036         344.055         49.1176 
        1.46649         342.089         48.6463 
        1.47263         338.691         48.1809 
        1.47877         337.859         47.7219 
        1.48491         334.557         47.2682 
        1.49104         332.388         46.8214 
        1.49718         330.482           46.38 
        1.50333         328.566         45.9437 
        1.50947         327.488          45.514 
         1.5156         323.783         45.0904 
        1.52172          322.35         44.6723 
        1.52787         320.256         44.2587 
          1.534         319.315         43.8509 
        1.54013         316.661         43.4486 
        1.54627         314.572         43.0508 
        1.55241         313.146         42.6579 
        1.55855         310.648         42.2704 
        1.56467         308.841         41.8889 
         1.5708         307.289         41.5111 
        1.57695         305.464         41.1374 
        1.58308         304.319         40.7692 
        1.58922         301.838         40.4053 
        1.59535         298.869          40.046 
         1.6015         297.925         39.6906 
        1.60764         296.124         39.3397 
        1.61376         294.148         38.9941 
        1.61989         292.594         38.6523 
        1.62604         290.392          38.314 
        1.63218         288.726         37.9799 
        1.63831         287.451         37.6506 
        1.64444         285.177         37.3252 
        1.65059         284.278         37.0028 
        1.65673         281.704         36.6846 
        1.66285         280.284         36.3711 
        1.66898         278.892         36.0612 
        1.67512         276.273         35.7543 
        1.68127         274.904         35.4507 
         1.6874         273.232         35.1513 
        1.69353         272.667         34.8557 
        1.69967         270.692         34.5627 
        1.70581          268.34         34.2733 
        1.71193         267.267         33.9882 
        1.71806         265.025         33.7059 
        1.72421         263.834         33.4262 
        1.73035         261.634         33.1501 
        1.73649         260.126         32.8771 
        1.74262         259.129         32.6075 
        1.74876          257.09         32.3407 
        1.75489         256.009         32.0775 
        1.76101         254.575         31.8173 
        1.76715         252.698         31.5597 
        1.77329         250.468         31.3046 
        1.77943         249.206         31.0523 
        1.78557         248.331         30.8031 
        1.79171          246.91         30.5566 
        1.79785         245.115         30.3128 
        1.80399          243.98         30.0718 
        1.81012         242.245         29.8337 
        1.81625          240.81         29.5983 
        1.82239         239.148         29.3651 
        1.82853         238.358         29.1345 
        1.83466         236.526         28.9067 
        1.84078         235.062         28.6815 
        1.84692         233.969         28.4584 
        1.85306         232.186         28.2375 
         1.8592         231.274         28.0192 
        1.86533         229.187         27.8034 
        1.87147          228.74         27.5896 
        1.87761         226.872          27.378 
        1.88375         225.409         27.1689 
        1.88988         224.266         26.9622 
        1.89601         223.277         26.7576 
        1.90215         221.571         26.5549 
        1.90829         220.255         26.3544 
        1.91442         219.177         26.1561 
        1.92056         217.514         25.9599 
         1.9267         216.807         25.7656 
        1.93284         215.577         25.5731 
        1.93897         213.623          25.383 
        1.94509         212.956         25.1953 
        1.95123         211.413         25.0089 
        1.95737         210.634         24.8244 
        1.96349         209.077         24.6422 
        1.96964         207.831         24.4613 
        1.97578         206.954         24.2822 
        1.98192         205.925         24.1052 
        1.98805         204.487           23.93 
        1.99419         203.076         23.7565 
        2.00033         202.418         23.5847 
        2.00647         200.916         23.4146 
         2.0126         199.538         23.2465 
        2.01874          198.43         23.0799 
        2.02488         197.105         22.9147 
        2.03101         196.474         22.7514 
        2.03714         195.326         22.5899 
        2.04328         194.107         22.4298 
        2.04941         192.818         22.2714 
        2.05554         192.067         22.1147 
        2.06167         190.411         21.9592 
        2.06781         189.765         21.8053 
        2.07396         188.188         21.6526 
        2.08009         187.286         21.5016 
        2.08622         186.589         21.3522 
        2.09237         185.094          21.204 
        2.09851         184.394         21.0572 
        2.10464         183.492          20.912 
        2.11077         182.254         20.7684 
        2.11691           181.2         20.6258 
        2.12305         179.971         20.4846 
        2.12918          179.05          20.345 
        2.13531         177.929         20.2067 
        2.14145         177.163         20.0694 
         2.1476         175.931         19.9333 
        2.15372          174.96          19.799 
        2.15985         174.216         19.6659 
        2.16599         173.311         19.5337 
        2.17213         172.035         19.4028 
        2.17827         171.274         19.2731 
         2.1844         170.227         19.1448 
        2.19054         169.172         19.0176 
        2.19666         168.201         18.8917 
         2.2028         167.601         18.7669 
        2.20893         166.482         18.6431 
        2.21508         165.337         18.5203 
        2.22122          164.44         18.3986 
        2.22736         163.494         18.2783 
        2.23349          162.56          18.159 
        2.23962          162.04         18.0408 
        2.24577         160.718         17.9235 
         2.2519         159.809         17.8074 
        2.25802         159.345         17.6926 
        2.26417         158.441         17.5784 
        2.27031         157.327         17.4652 
        2.27644           156.5         17.3533 
        2.28257         155.915         17.2424 
        2.28872         154.816         17.1322 
        2.29486         154.094          17.023 
        2.30099         153.044         16.9151 
        2.30712         152.476          16.808 
        2.31326         151.321         16.7017 
         2.3194         150.768         16.5963 
        2.32553         149.922         16.4921 
        2.33166         149.333         16.3887 
         2.3378         148.385         16.2862 
        2.34394         147.197         16.1845 
        2.35007         146.614         16.0838 
        2.35619         145.547         15.9841 
        2.36233         145.124          15.885 
        2.36848         144.387         15.7865 
        2.37462         143.773         15.6891 
        2.38075         142.807         15.5927 
        2.38689         141.763         15.4969 
        2.39303         141.226          15.402 
        2.39916         140.408          15.308 
        2.40529         139.591         15.2147 
        2.41143         138.912         15.1222 
        2.41757         137.879         15.0304 
         2.4237         137.565         14.9396 
        2.42983         136.781         14.8495 
        2.43598         135.763         14.7599 
        2.44211         135.289         14.6712 
        2.44823         134.479         14.5835 
        2.45437         133.929         14.4962 
        2.46052         133.138         14.4096 
        2.46665          132.38         14.3238 
        2.47279         131.782         14.2388 
        2.47892         131.029         14.1544 
        2.48507         130.445         14.0706 
         2.4912         129.718         13.9877 
