# k  (h/Mpc)    P(k)  (Mpc/h)^3    P_linear(k)  (Mpc/h)^3
     0.00783031         7830.83         7872.43 
       0.013688         10129.2         10348.3 
       0.019231         10914.3         11051.4 
      0.0249154         10731.6         10742.4 
      0.0312784         9671.25         9772.57 
      0.0375637         8503.63         8650.11 
      0.0433917          7660.1         7718.74 
      0.0492413         6874.48         6984.09 
      0.0555754         6346.85         6407.84 
      0.0619321         5772.07         5986.33 
       0.067871         5516.21         5651.45 
      0.0738098          5205.1         5308.73 
      0.0800417         4818.89         4906.17 
      0.0862327         4367.54         4466.95 
      0.0921407         3963.55         4041.61 
      0.0982031         3611.59         3637.61 
       0.104506         3229.14         3284.91 
       0.110769         2980.92         3016.21 
       0.116806         2846.24         2828.46 
       0.122832            2676         2691.69 
       0.129052         2562.32         2577.43 
       0.135211         2486.82         2466.31 
       0.141259         2331.25         2343.14 
       0.147318         2165.59         2201.31 
       0.153489         2040.68         2044.13 
       0.159709         1936.56         1885.82 
       0.165845         1762.05         1743.28 
       0.171974            1707         1623.81 
       0.178125         1635.92            1530 
       0.184229         1519.86         1459.84 
        0.19034         1493.93         1405.43 
       0.196428         1452.22         1358.25 
       0.202534         1367.99         1310.14 
       0.208729         1343.63         1255.41 
       0.214876         1290.81          1194.1 
       0.220989         1211.48         1128.65 
       0.227147         1180.67         1062.74 
        0.23329         1133.01         1001.73 
       0.239377         1112.79         949.249 
       0.245482         1057.23         905.827 
       0.251667         1017.79         870.436 
       0.257832         1007.35         841.306 
       0.263955         958.295         815.366 
       0.270079         931.119          789.59 
        0.27624          893.23         761.913 
       0.282372         877.355         732.126 
        0.28843         869.311         701.163 
       0.294538         825.638         669.841 
       0.300721         802.194         639.726 
        0.30691         788.438         612.475 
       0.313033         755.784         589.022 
       0.319153         744.561         568.876 
       0.325316          732.42         551.224 
        0.33145         717.879         535.181 
       0.337538         693.347         519.764 
       0.343633         674.367         504.074 
       0.349808         658.887          487.61 
       0.355968         646.942         470.729 
       0.362074         627.587         453.981 
       0.368217         623.736         437.705 
       0.374374          612.48         422.427 
       0.380519         589.329         408.545 
       0.386598          583.21         396.159 
       0.392688         571.553         384.903 
        0.39888         556.503         374.315 
       0.405048         547.917         364.215 
       0.411186         545.237          354.31 
       0.417313         539.039         344.412 
       0.423458         523.103         334.414 
       0.429607         510.276         324.486 
       0.435692         502.522         314.909 
       0.441815         494.773         305.673 
       0.447964         484.827         296.947 
       0.454126         478.868         288.818 
       0.460267         471.626         281.252 
       0.466387         464.586         274.156 
        0.47254         457.832         267.351 
       0.478662         447.677         260.776 
       0.484765         443.469         254.314 
       0.490885         438.883         247.919 
       0.497035         431.111         241.594 
       0.503198         429.998         235.389 
       0.509342         419.297         229.393 
       0.515458           413.5         223.673 
       0.521598         406.752         218.216 
       0.527764         400.914         213.003 
       0.533884         399.857         208.061 
           0.54         393.628         203.324 
       0.546137         385.532         198.733 
       0.552299         384.917         194.247 
       0.558452         378.936         189.856 
       0.564573         375.037          185.57 
       0.570708         370.308         181.376 
       0.576825         363.922         177.313 
       0.582926         360.937         173.393 
       0.589034         356.313         169.603 
       0.595184         354.071         165.921 
       0.601379         347.961         162.349 
       0.607522           342.3         158.936 
       0.613639         340.427          155.65 
       0.619772         338.723         152.449 
       0.625918         334.046         149.322 
       0.632068          329.09         146.261 
       0.638161         326.249         143.299 
         0.6443         324.092          140.39 
       0.650464           319.2         137.551 
       0.656582         316.435         134.819 
       0.662703         314.337         132.169 
       0.668861         309.307         129.582 
       0.675024         307.879         127.068 
       0.681124         304.474         124.648 
       0.687237         301.636         122.286 
       0.693381         298.771         119.975 
       0.699536         295.515          117.72 
       0.705665         292.672         115.531 
       0.711789         290.726           113.4 
       0.717957         287.128         111.306 
        0.72409         284.648         109.277 
       0.730186         285.715          107.31 
       0.736317          280.61         105.382 
       0.742472         277.258         103.494 
       0.748622         273.948         101.655 
        0.75476         274.488         99.8663 
       0.760888         271.154         98.1248 
       0.767043         268.162         96.4192 
       0.773185          266.61         94.7587 
       0.779291         262.595         93.1474 
       0.785407         261.775         91.5716 
       0.791564         259.088         90.0226 
       0.797719         255.467         88.5101 
       0.803834             257         87.0419 
       0.809972         254.297         85.6019 
       0.816124         251.007         84.1915 
       0.822261          248.45         82.8168 
       0.828378         248.711         81.4772 
       0.834502          244.63         80.1664 
       0.840667         244.407         78.8763 
       0.846816          241.07         77.6186 
       0.852925         239.875         76.3967 
       0.859047         237.421         75.1987 
       0.865192         237.216         74.0229 
       0.871341         233.974         72.8717 
       0.877463         232.041         71.7506 
       0.883569         231.755         70.6561 
       0.889708         229.768         69.5791 
       0.895864          227.85         68.5221 
       0.902008         225.835         67.4895 
       0.908149         223.785          66.479 
       0.914301         223.145         65.4877 
       0.920448          221.91         64.5178 
       0.926574         219.619         63.5712 
       0.932687         218.561         62.6457 
       0.938823          216.94         61.7355 
       0.944975         215.276         60.8414 
       0.951105         213.482         59.9684 
       0.957225         212.487         59.1142 
       0.963368         211.092         58.2738 
       0.969511         208.359         57.4499 
       0.975621         207.353         56.6464 
       0.981748         205.926         55.8565 
       0.987916         205.035         55.0767 
        0.99406         203.484         54.3148 
        1.00019         202.255          53.569 
        1.00632         201.428          52.838 
        1.01246         199.857         52.1196 
        1.01859         198.062         51.4159 
        1.02471         196.605         50.7261 
        1.03085         195.676         50.0467 
        1.03698         194.122         49.3813 
        1.04314         193.704         48.7253 
        1.04929         192.588         48.0828 
        1.05541         191.102         47.4546 
        1.06154         189.868         46.8361 
        1.06769         188.138         46.2279 
        1.07382         187.628         45.6325 
        1.07993         186.112         45.0491 
        1.08607         184.598         44.4735 
        1.09222         183.823         43.9075 
        1.09836         182.635          43.352 
        1.10449         180.997          42.807 
        1.11063         180.105         42.2707 
        1.11677         179.351         41.7439 
         1.1229         177.842         41.2271 
        1.12903         177.267         40.7187 
        1.13518          176.01         40.2184 
        1.14131         174.979         39.7269 
        1.14745         173.589          39.244 
        1.15359          171.93         38.7691 
        1.15973         171.595         38.3019 
        1.16584         170.773         37.8445 
        1.17197         169.744          37.394 
        1.17811         168.156         36.9495 
        1.18424         167.405         36.5136 
        1.19038         166.503         36.0835 
        1.19652         165.176         35.6605 
        1.20267         164.376         35.2444 
        1.20881         163.249          34.835 
        1.21495         162.901         34.4328 
        1.22108         161.535         34.0371 
         1.2272         160.404         33.6486 
        1.23334         159.927         33.2653 
        1.23949         159.339          32.887 
        1.24562         157.978         32.5158 
        1.25174          156.68         32.1508 
        1.25789         156.145         31.7904 
        1.26402         155.571         31.4362 
        1.27014         154.555         31.0882 
        1.27628          152.75         30.7446 
        1.28244         152.571         30.4055 
        1.28858         151.455          30.072 
        1.29471         150.561         29.7442 
        1.30084         149.722         29.4217 
        1.30697         149.132         29.1036 
        1.31312         148.114         28.7897 
        1.31925         146.882         28.4814 
        1.32537         146.552          28.178 
        1.33151         145.776          27.878 
        1.33765         144.313         27.5825 
        1.34378         144.386         27.2919 
        1.34992         143.662         27.0054 
        1.35606          142.51         26.7223 
         1.3622         142.148         26.4439 
        1.36833         140.516         26.1701 
        1.37445         140.298         25.9003 
        1.38059         139.445         25.6336 
        1.38675         138.564           25.37 
        1.39288          137.75         25.1112 
        1.39901         136.745         24.8561 
        1.40515         136.385          24.604 
         1.4113         135.686         24.3555 
        1.41742         134.595         24.1114 
        1.42355         134.268         23.8702 
         1.4297         133.221         23.6316 
        1.43585         132.364         23.3964 
        1.44198         131.484         23.1653 
        1.44809         130.606         22.9378 
        1.45423         130.339         22.7125 
        1.46036         129.368         22.4906 
        1.46649         128.563         22.2717 
        1.47263         128.306         22.0555 
        1.47877         127.179         21.8422 
        1.48491         126.516         21.6315 
        1.49104         125.252          21.424 
        1.49718         125.386         21.2191 
        1.50333         124.621         21.0166 
        1.50947         123.987         20.8171 
         1.5156         123.255         20.6205 
        1.52172          122.48         20.4265 
        1.52787         121.787         20.2346 
          1.534         121.344         20.0454 
        1.54013         120.661         19.8589 
        1.54627          119.72         19.6744 
        1.55241         119.199         19.4922 
        1.55855         118.574         19.3126 
        1.56467         117.609         19.1357 
         1.5708         117.228         18.9606 
        1.57695         116.731         18.7874 
        1.58308         116.042         18.6168 
        1.58922         115.785         18.4482 
        1.59535         115.198         18.2818 
         1.6015          114.22         18.1172 
        1.60764         113.503         17.9547 
        1.61376          112.91         17.7947 
        1.61989         112.392         17.6365 
        1.62604         111.757         17.4798 
        1.63218         111.385         17.3252 
        1.63831           110.5         17.1728 
        1.64444         109.942         17.0222 
        1.65059          109.25         16.8731 
        1.65673         108.748         16.7259 
        1.66285         108.197         16.5809 
        1.66898         107.446         16.4375 
        1.67512         107.148         16.2956 
        1.68127         106.481         16.1553 
         1.6874         105.845         16.0169 
        1.69353         105.139         15.8802 
        1.69967         104.943         15.7448 
        1.70581           104.4          15.611 
        1.71193         103.748         15.4793 
        1.71806         102.993         15.3489 
        1.72421         102.549         15.2197 
        1.73035         102.277         15.0922 
        1.73649         101.536         14.9661 
        1.74262         100.886         14.8416 
        1.74876         100.376         14.7184 
        1.75489         99.8277         14.5969 
        1.76101         99.2382         14.4768 
        1.76715         98.7363         14.3579 
        1.77329         98.2553         14.2402 
        1.77943         97.7306         14.1237 
        1.78557         97.3603         14.0088 
        1.79171         96.8299         13.8951 
        1.79785         96.1383         13.7826 
        1.80399         95.7741         13.6714 
        1.81012         95.1175         13.5617 
        1.81625         94.8224         13.4531 
        1.82239          94.467         13.3456 
        1.82853           93.71         13.2393 
        1.83466         93.1455         13.1343 
        1.84078         92.7876         13.0306 
        1.84692         92.5199         12.9278 
        1.85306         91.9304         12.8259 
         1.8592         91.5225         12.7254 
        1.86533         90.9776          12.626 
        1.87147         90.3859         12.5275 
        1.87761         89.8768         12.4301 
        1.88375         89.3308         12.3338 
        1.88988         88.8392         12.2386 
        1.89601         88.5183         12.1444 
        1.90215         87.9368         12.0511 
        1.90829         87.4982         11.9588 
        1.91442         87.2099         11.8675 
        1.92056         86.7084         11.7772 
         1.9267         86.2554         11.6878 
        1.93284         85.9083         11.5993 
        1.93897         85.5196         11.5118 
        1.94509          84.907         11.4255 
        1.95123         84.5804         11.3398 
        1.95737         83.9492         11.2549 
        1.96349         83.6448         11.1711 
        1.96964         83.2773          11.088 
        1.97578         82.6801         11.0056 
        1.98192         82.2773         10.9243 
        1.98805         81.8036         10.8437 
        1.99419         81.3602          10.764 
        2.00033         80.8672         10.6851 
        2.00647         80.6777         10.6069 
         2.0126         80.2131         10.5297 
        2.01874         79.8967         10.4531 
        2.02488         79.4959         10.3773 
        2.03101         79.0543         10.3023 
        2.03714         78.7914         10.2281 
        2.04328          78.262         10.1546 
        2.04941         77.6265         10.0819 
        2.05554         77.5304         10.0099 
        2.06167         77.1117         9.93857 
        2.06781         76.5299          9.8679 
        2.07396         76.2785         9.79782 
        2.08009         75.9193         9.72855 
        2.08622         75.4723         9.66002 
        2.09237         75.0508         9.59202 
        2.09851         74.5741         9.52467 
        2.10464          74.363         9.45808 
        2.11077         73.9939         9.39221 
        2.11691         73.6689         9.32682 
        2.12305         73.1557         9.26205 
        2.12918         72.7667         9.19806 
        2.13531         72.5117         9.13466 
        2.14145         71.9403         9.07173 
         2.1476         71.7249         9.00931 
        2.15372         71.3962         8.94779 
        2.15985         70.9495         8.88679 
        2.16599         70.5635         8.82619 
        2.17213         70.2734         8.76621 
        2.17827         69.8027         8.70681 
         2.1844         69.5547         8.64802 
        2.19054         69.2215         8.58975 
        2.19666         68.7672          8.5321 
         2.2028         68.5461         8.47493 
        2.20893         68.0924         8.41825 
        2.21508         67.7018         8.36204 
        2.22122         67.3195         8.30631 
        2.22736         67.0112         8.25122 
        2.23349          66.799         8.19663 
        2.23962         66.5056         8.14252 
        2.24577         66.0291         8.08884 
         2.2519          65.762         8.03573 
        2.25802         65.4357         7.98318 
        2.26417         65.0376         7.93095 
        2.27031          64.689         7.87914 
        2.27644         64.4754         7.82795 
        2.28257         64.1657         7.77722 
        2.28872         63.9018         7.72685 
        2.29486         63.6165         7.67693 
        2.30099         63.0836         7.62755 
        2.30712         62.9354         7.57859 
        2.31326         62.6206         7.52998 
         2.3194         62.2208         7.48182 
        2.32553         62.0368         7.43417 
        2.33166          61.529         7.38695 
         2.3378         61.2857         7.34008 
        2.34394          61.003         7.29361 
        2.35007         60.6963          7.2476 
        2.35619         60.4212         7.20204 
        2.36233         60.0407         7.15677 
        2.36848         59.7644          7.1118 
        2.37462         59.4469         7.06731 
        2.38075         59.2136         7.02324 
        2.38689         58.9239         6.97951 
        2.39303         58.6951         6.93617 
        2.39916         58.4465         6.89323 
        2.40529         58.0548         6.85067 
        2.41143         57.7861         6.80843 
        2.41757         57.4589         6.76654 
         2.4237         57.3429         6.72507 
        2.42983         56.8557         6.68395 
        2.43598         56.6252         6.64308 
        2.44211         56.3709         6.60261 
        2.44823         56.0814         6.56257 
        2.45437         55.8135         6.52275 
        2.46052         55.5099         6.48323 
        2.46665         55.2037         6.44411 
        2.47279         55.0167         6.40533 
        2.47892         54.7318         6.36684 
        2.48507         54.4623         6.32863 
         2.4912         54.1802         6.29081 
