# k  (h/Mpc)    Pcb(k)  (Mpc/h)^3    Pcb_linear(k)  (Mpc/h)^3
     0.00783031         13039.6         13088.4 
       0.013688         16775.4         17218.3 
       0.019231         18095.9         18395.1 
      0.0249154         17842.4         17884.9 
      0.0312784         16013.6         16272.8 
      0.0375637         14045.8         14405.2 
      0.0433917         12670.1         12855.1 
      0.0492413           11348         11632.1 
      0.0555754         10469.6         10672.8 
      0.0619321         9461.77         9971.05 
       0.067871         9051.91         9413.46 
      0.0738098         8561.76         8842.77 
      0.0800417         7912.81         8172.35 
      0.0862327         7173.57         7440.83 
      0.0921407         6527.08         6732.39 
      0.0982031         5971.42         6059.47 
       0.104506         5340.87            5472 
       0.110769          4941.6         5024.43 
       0.116806         4727.59         4711.69 
       0.122832         4452.16         4483.89 
       0.129052         4241.74         4293.56 
       0.135211         4135.66         4108.48 
       0.141259         3864.07          3903.3 
       0.147318          3598.7         3667.05 
       0.153489         3404.29         3405.22 
       0.159709         3264.53          3141.5 
       0.165845         2978.17         2904.06 
       0.171974         2893.05         2705.05 
       0.178125         2798.35         2548.78 
       0.184229         2584.84         2431.91 
        0.19034         2554.72         2341.27 
       0.196428         2490.65         2262.68 
       0.202534         2354.78         2182.52 
       0.208729         2310.72         2091.36 
       0.214876         2217.99         1989.23 
       0.220989         2110.49          1880.2 
       0.227147         2054.45         1770.41 
        0.23329         1974.73         1668.76 
       0.239377         1961.83         1581.34 
       0.245482         1873.33         1509.01 
       0.251667         1806.09         1450.05 
       0.257832         1780.92         1401.52 
       0.263955         1706.45         1358.31 
       0.270079         1668.87         1315.37 
        0.27624         1600.54         1269.27 
       0.282372         1584.99         1219.65 
        0.28843         1558.04         1168.07 
       0.294538         1490.23         1115.89 
       0.300721         1463.87         1065.72 
        0.30691         1429.58         1020.32 
       0.313033         1378.45          981.25 
       0.319153         1365.31         947.694 
       0.325316         1349.06         918.283 
        0.33145         1322.84         891.557 
       0.337538         1282.31         865.877 
       0.343633         1254.25         839.739 
       0.349808         1233.32         812.308 
       0.355968         1209.01         784.189 
       0.362074         1176.27         756.288 
       0.368217         1173.17         729.174 
       0.374374         1155.42         703.724 
       0.380519         1117.68         680.597 
       0.386598          1113.8         659.962 
       0.392688         1086.57         641.211 
        0.39888         1065.38         623.573 
       0.405048         1046.87         606.748 
       0.411186          1042.2         590.248 
       0.417313         1040.76         573.754 
       0.423458         1008.53         557.103 
       0.429607         982.332         540.562 
       0.435692         975.724         524.608 
       0.441815         957.507         509.221 
       0.447964         948.346         494.689 
       0.454126         935.429         481.143 
       0.460267         925.006         468.539 
       0.466387         911.336         456.719 
        0.47254         894.771         445.382 
       0.478662         884.991         434.427 
       0.484765          877.19         423.665 
       0.490885          866.74          413.01 
       0.497035         852.535         402.472 
       0.503198         851.481         392.137 
       0.509342         836.196         382.147 
       0.515458         819.819         372.619 
       0.521598         818.747         363.528 
       0.527764         799.951         354.843 
       0.533884          792.99         346.611 
           0.54         786.939         338.719 
       0.546137         777.277         331.071 
       0.552299         772.253         323.596 
       0.558452         764.473         316.284 
       0.564573         758.326         309.144 
       0.570708         751.389         302.156 
       0.576825         736.296         295.388 
       0.582926          734.68         288.857 
       0.589034         726.052         282.543 
       0.595184         717.996          276.41 
       0.601379         707.154          270.46 
       0.607522         698.078         264.773 
       0.613639          697.29         259.298 
       0.619772         691.723         253.967 
       0.625918         682.043         248.756 
       0.632068         677.706         243.658 
       0.638161         669.035         238.722 
         0.6443         663.146         233.877 
       0.650464         658.297         229.149 
       0.656582         653.443         224.597 
       0.662703         645.036         220.182 
       0.668861         638.821         215.873 
       0.675024          634.92         211.683 
       0.681124         624.668         207.652 
       0.687237         624.647         203.718 
       0.693381           614.3         199.868 
       0.699536         614.319          196.11 
       0.705665         606.887         192.465 
       0.711789         605.185         188.914 
       0.717957         597.092         185.427 
        0.72409         592.199         182.046 
       0.730186         591.008          178.77 
       0.736317         583.232         175.556 
       0.742472         576.296         172.411 
       0.748622         574.278         169.348 
        0.75476         568.105         166.368 
       0.760888          565.23         163.467 
       0.767043         562.693         160.626 
       0.773185         558.647          157.86 
       0.779291         551.981         155.175 
       0.785407         548.206          152.55 
       0.791564         544.678          149.97 
       0.797719         536.941          147.45 
       0.803834         538.229         145.004 
       0.809972         530.731         142.605 
       0.816124         526.738         140.256 
       0.822261         523.625         137.965 
       0.828378         521.231         135.734 
       0.834502         513.136          133.55 
       0.840667          512.59         131.401 
       0.846816         507.242         129.306 
       0.852925         506.255          127.27 
       0.859047         501.558         125.275 
       0.865192          498.65         123.316 
       0.871341         492.548         121.398 
       0.877463         491.339          119.53 
       0.883569         486.193         117.707 
       0.889708         481.474         115.913 
       0.895864         477.273         114.152 
       0.902008         476.414         112.432 
       0.908149         472.236         110.748 
       0.914301         470.488         109.097 
       0.920448         464.939         107.481 
       0.926574         462.895         105.904 
       0.932687         461.409         104.362 
       0.938823         455.562         102.846 
       0.944975         453.528         101.356 
       0.951105         450.429         99.9021 
       0.957225         444.048          98.479 
       0.963368         445.268          97.079 
       0.969511         438.117         95.7065 
       0.975621         437.574          94.368 
       0.981748         434.766          93.052 
       0.987916         432.128         91.7529 
        0.99406         428.178         90.4838 
        1.00019          423.88         89.2413 
        1.00632         423.163         88.0235 
        1.01246         419.797         86.8268 
        1.01859         415.749         85.6544 
        1.02471         413.905         84.5053 
        1.03085         411.705         83.3735 
        1.03698         409.394          82.265 
        1.04314         406.557         81.1721 
        1.04929         404.595         80.1018 
        1.05541         398.986         79.0552 
        1.06154         398.298         78.0249 
        1.06769         394.381         77.0116 
        1.07382         392.031         76.0198 
        1.07993         390.662         75.0478 
        1.08607         387.973         74.0889 
        1.09222         384.703          73.146 
        1.09836         382.695         72.2207 
        1.10449         379.713         71.3127 
        1.11063         377.632         70.4193 
        1.11677         373.492         69.5417 
         1.1229         372.805         68.6808 
        1.12903          369.56         67.8337 
        1.13518         367.495         67.0004 
        1.14131          366.06         66.1816 
        1.14745         361.614         65.3771 
        1.15359         359.177         64.5859 
        1.15973         357.792         63.8076 
        1.16584         355.983         63.0456 
        1.17197          353.29         62.2951 
        1.17811          349.62         61.5547 
        1.18424          348.52         60.8284 
        1.19038         346.444         60.1119 
        1.19652         342.885         59.4073 
        1.20267         342.101         58.7141 
        1.20881         340.244         58.0321 
        1.21495         336.893         57.3621 
        1.22108         335.756         56.7029 
         1.2272         330.994         56.0556 
        1.23334         330.359          55.417 
        1.23949         328.201         54.7869 
        1.24562          327.55         54.1684 
        1.25174         324.227         53.5605 
        1.25789         321.796           52.96 
        1.26402         320.624         52.3699 
        1.27014         319.141         51.7903 
        1.27628         316.076         51.2178 
        1.28244         314.049         50.6529 
        1.28858         312.572         50.0973 
        1.29471         310.967         49.5513 
        1.30084         309.489         49.0141 
        1.30697         306.189          48.484 
        1.31312         304.239         47.9611 
        1.31925          302.98         47.4476 
        1.32537          301.42         46.9421 
        1.33151         298.632         46.4423 
        1.33765         296.568         45.9501 
        1.34378         294.743          45.466 
        1.34992         292.299         44.9886 
        1.35606          291.03         44.5171 
         1.3622         289.447         44.0532 
        1.36833         288.232         43.5971 
        1.37445         286.732         43.1477 
        1.38059         283.496         42.7033 
        1.38675         282.228         42.2642 
        1.39288         281.274          41.833 
        1.39901         278.487         41.4081 
        1.40515         277.281         40.9881 
         1.4113         275.158         40.5741 
        1.41742         272.749         40.1675 
        1.42355         272.761         39.7657 
         1.4297         270.382         39.3683 
        1.43585         267.751         38.9764 
        1.44198         266.817         38.5914 
        1.44809         265.527         38.2123 
        1.45423         263.638          37.837 
        1.46036         262.284         37.4674 
        1.46649         260.808         37.1026 
        1.47263         258.305         36.7425 
        1.47877         257.136         36.3873 
        1.48491         255.139         36.0362 
        1.49104         253.317         35.6906 
        1.49718         252.318         35.3492 
        1.50333         250.137         35.0118 
        1.50947         249.325         34.6795 
         1.5156         247.355          34.352 
        1.52172         245.838         34.0288 
        1.52787          244.14         33.7091 
          1.534          243.83          33.394 
        1.54013         241.518         33.0832 
        1.54627         240.279         32.7758 
        1.55241         238.744         32.4723 
        1.55855          237.52          32.173 
        1.56467         235.891         31.8784 
         1.5708         234.533         31.5867 
        1.57695         233.238         31.2982 
        1.58308         232.005          31.014 
        1.58922         230.161         30.7331 
        1.59535         228.387         30.4559 
         1.6015         227.501         30.1817 
        1.60764         225.965          29.911 
        1.61376         224.076         29.6444 
        1.61989         222.741         29.3808 
        1.62604         221.413         29.1199 
        1.63218         220.134         28.8623 
        1.63831         219.585         28.6084 
        1.64444          217.49         28.3576 
        1.65059         216.691         28.1091 
        1.65673         214.976         27.8639 
        1.66285         213.902         27.6223 
        1.66898         212.658         27.3835 
        1.67512         211.162         27.1471 
        1.68127         210.166         26.9133 
         1.6874         208.641         26.6827 
        1.69353         207.697          26.455 
        1.69967         206.186         26.2295 
        1.70581         205.197         26.0066 
        1.71193         203.769         25.7872 
        1.71806         202.266         25.5699 
        1.72421         201.393         25.3547 
        1.73035         199.777         25.1422 
        1.73649         198.379         24.9322 
        1.74262         197.698         24.7248 
        1.74876         196.547         24.5196 
        1.75489         195.604         24.3172 
        1.76101         194.434         24.1171 
        1.76715         193.007          23.919 
        1.77329         191.296         23.7229 
        1.77943          190.43         23.5289 
        1.78557         189.601         23.3374 
        1.79171         188.882          23.148 
        1.79785         187.404         22.9607 
        1.80399         186.204         22.7754 
        1.81012         185.277         22.5925 
        1.81625         183.747         22.4117 
        1.82239         182.891         22.2326 
        1.82853         182.115         22.0556 
        1.83466         180.496         21.8806 
        1.84078         179.781         21.7078 
        1.84692         178.815         21.5365 
        1.85306         177.413         21.3669 
         1.8592         176.762         21.1994 
        1.86533          175.01         21.0338 
        1.87147         174.278         20.8697 
        1.87761         173.451         20.7074 
        1.88375         171.967          20.547 
        1.88988         171.347         20.3884 
        1.89601         170.921         20.2315 
        1.90215         169.587         20.0761 
        1.90829         168.174         19.9224 
        1.91442         167.567         19.7703 
        1.92056         166.257         19.6199 
         1.9267         165.651         19.4709 
        1.93284         164.386         19.3234 
        1.93897         163.418         19.1777 
        1.94509         162.622         19.0339 
        1.95123          161.64         18.8911 
        1.95737         161.038         18.7497 
        1.96349         159.774         18.6101 
        1.96964         158.861         18.4716 
        1.97578         157.951         18.3344 
        1.98192         157.133         18.1989 
        1.98805         156.152         18.0647 
        1.99419         154.987         17.9319 
        2.00033         154.424         17.8004 
        2.00647         153.298         17.6702 
         2.0126         152.466         17.5416 
        2.01874         151.609          17.414 
        2.02488         150.817         17.2876 
        2.03101         150.388         17.1627 
        2.03714         149.244         17.0392 
        2.04328          148.12         16.9167 
        2.04941         147.787         16.7955 
        2.05554          146.84         16.6757 
        2.06167         145.818         16.5568 
        2.06781          145.04         16.4391 
        2.07396         144.089         16.3223 
        2.08009         143.542         16.2069 
        2.08622         142.415         16.0928 
        2.09237         141.507         15.9795 
        2.09851         141.006         15.8673 
        2.10464          140.24         15.7563 
        2.11077          139.36         15.6466 
        2.11691         138.779         15.5377 
        2.12305         137.837         15.4298 
        2.12918         136.934         15.3232 
        2.13531         135.986         15.2176 
        2.14145         135.508         15.1127 
         2.1476          134.62         15.0087 
        2.15372          133.89         14.9062 
        2.15985         133.013         14.8046 
        2.16599         132.452         14.7037 
        2.17213         131.632         14.6038 
        2.17827         130.966         14.5048 
         2.1844         130.178         14.4068 
        2.19054         129.359         14.3098 
        2.19666         128.593         14.2137 
         2.2028         128.073         14.1185 
        2.20893         127.467         14.0241 
        2.21508          126.29         13.9304 
        2.22122         125.684         13.8376 
        2.22736         125.254         13.7458 
        2.23349         124.657         13.6549 
        2.23962          123.88         13.5647 
        2.24577         123.167         13.4753 
         2.2519         122.245         13.3868 
        2.25802         121.917         13.2993 
        2.26417         121.029         13.2123 
        2.27031         120.366          13.126 
        2.27644         119.806         13.0407 
        2.28257         119.281         12.9562 
        2.28872         118.435         12.8723 
        2.29486         117.843         12.7891 
        2.30099         116.999         12.7068 
        2.30712         116.589         12.6253 
        2.31326         115.844         12.5443 
         2.3194         115.337         12.4641 
        2.32553         114.562         12.3847 
        2.33166         114.393          12.306 
         2.3378         113.422         12.2279 
        2.34394         112.521         12.1505 
        2.35007          112.12         12.0739 
        2.35619         111.451          11.998 
        2.36233         111.063         11.9226 
        2.36848         110.243         11.8476 
        2.37462         109.942         11.7735 
        2.38075         109.296         11.7001 
        2.38689         108.618         11.6273 
        2.39303         107.999         11.5551 
        2.39916          107.56         11.4835 
        2.40529         107.009         11.4126 
        2.41143         106.151         11.3423 
        2.41757         105.455         11.2725 
         2.4237         105.173         11.2034 
        2.42983         104.486         11.1349 
        2.43598         103.983         11.0668 
        2.44211         103.488         10.9994 
        2.44823         102.879         10.9327 
        2.45437         102.449         10.8663 
        2.46052          101.67         10.8005 
        2.46665         101.265         10.7353 
        2.47279         100.703         10.6707 
        2.47892         100.231         10.6066 
        2.48507         99.7897          10.543 
         2.4912         99.1289         10.4799 
