# k  (h/Mpc)    P(k)  (Mpc/h)^3    P_linear(k)  (Mpc/h)^3
     0.00783031         11036.1         11109.8 
       0.013688         14244.5         14618.3 
       0.019231         15409.7         15659.9 
      0.0249154           15249         15291.6 
      0.0312784         13773.2         13980.8 
      0.0375637         12124.6           12410 
      0.0433917         10927.6         11069.1 
      0.0492413         9763.81         9983.73 
      0.0555754         8969.89         9116.23 
      0.0619321          8094.9         8486.94 
       0.067871         7742.45         8011.47 
      0.0738098         7340.89         7552.42 
      0.0800417         6830.31         7027.01 
      0.0862327         6231.94         6447.36 
      0.0921407          5692.4         5867.56 
      0.0982031         5209.49         5292.91 
       0.104506         4646.91         4765.98 
       0.110769         4270.43         4343.81 
       0.116806         4056.69         4037.15 
       0.122832          3798.2          3813.4 
       0.129052         3617.36         3639.33 
       0.135211         3527.49         3490.19 
       0.141259         3313.79         3338.72 
       0.147318         3100.38          3166.3 
       0.153489          2944.6          2967.6 
       0.159709         2822.64         2754.36 
       0.165845         2571.92            2548 
       0.171974         2491.59         2361.91 
       0.178125         2392.43          2205.7 
       0.184229         2204.03         2083.75 
        0.19034         2169.07         1990.56 
       0.196428         2110.27         1917.62 
       0.202534         1993.47          1853.7 
       0.208729         1962.15         1788.34 
       0.214876         1888.77         1716.57 
       0.220989         1792.75          1636.6 
       0.227147         1748.27         1549.96 
        0.23329         1680.49         1462.71 
       0.239377         1662.32         1381.19 
       0.245482         1581.96         1308.73 
       0.251667         1522.66         1247.01 
       0.257832         1501.66         1196.86 
       0.263955         1434.69          1155.8 
       0.270079         1399.93         1119.92 
        0.27624         1343.43         1085.44 
       0.282372         1327.88          1049.9 
        0.28843         1310.42         1012.33 
       0.294538         1249.91         972.072 
       0.300721         1223.88         930.319 
        0.30691         1198.32          889.43 
       0.313033         1151.88         851.733 
       0.319153         1138.16         817.978 
       0.325316         1124.16         788.345 
        0.33145         1102.41         762.739 
       0.337538         1066.38         740.161 
       0.343633         1041.37         719.128 
       0.349808         1021.77          698.31 
       0.355968         1002.83         677.166 
       0.362074         973.482         655.648 
       0.368217         970.495         633.557 
       0.374374         955.796         611.556 
       0.380519         922.477         590.364 
       0.386598         917.096         570.674 
       0.392688         896.512         552.596 
        0.39888         875.858         535.869 
       0.405048         861.489         520.696 
       0.411186         858.212         506.679 
       0.417313         855.205         493.304 
       0.423458         828.362          480.18 
       0.429607         806.046         467.106 
       0.435692         799.146         454.134 
       0.441815         784.929          441.18 
       0.447964         774.883         428.436 
       0.454126         764.766         416.114 
       0.460267         754.654         404.469 
       0.466387          743.98         393.589 
        0.47254         730.665         383.327 
       0.478662         720.705         373.723 
       0.484765         714.332         364.631 
       0.490885          705.92          355.84 
       0.497035         693.639         347.198 
       0.503198         692.815         338.688 
       0.509342         679.592         330.345 
       0.515458         666.756         322.182 
       0.521598           662.5         314.188 
       0.527764         648.702         306.433 
       0.533884          644.43         299.065 
           0.54         638.019         292.031 
       0.546137         628.551         285.282 
       0.552299         626.058         278.797 
       0.558452         618.331         272.576 
       0.564573         611.861         266.585 
       0.570708         607.031          260.73 
       0.576825         595.049         255.011 
       0.582926         592.731         249.434 
       0.589034          584.89         243.987 
       0.595184         579.348         238.653 
       0.601379         570.571         233.442 
       0.607522         562.211         228.439 
       0.613639         560.951         223.628 
       0.619772         557.725         218.977 
       0.625918         548.361         214.479 
       0.632068         544.529         210.121 
       0.638161         538.472         205.924 
         0.6443         533.404           201.8 
       0.650464         528.423         197.755 
       0.656582         524.238         193.839 
       0.662703         518.743          190.02 
       0.668861         512.751         186.281 
       0.675024          509.19         182.643 
       0.681124         502.295         179.144 
       0.687237         500.496         175.734 
       0.693381         493.457         172.402 
       0.699536          491.18         169.156 
       0.705665         486.068         166.012 
       0.711789         484.941         162.955 
       0.717957         477.347         159.956 
        0.72409         473.296         157.049 
       0.730186         474.289         154.231 
       0.736317         466.418         151.463 
       0.742472         461.577          148.75 
       0.748622         458.506         146.104 
        0.75476         455.064         143.528 
       0.760888         451.912         141.018 
       0.767043         449.003         138.561 
       0.773185         446.187          136.17 
       0.779291         440.063         133.853 
       0.785407         437.853         131.588 
       0.791564         434.208         129.362 
       0.797719         428.076         127.191 
       0.803834         430.366         125.083 
       0.809972         423.801         123.015 
       0.816124         419.775         120.989 
       0.822261         416.573         119.014 
       0.828378         415.061         117.088 
       0.834502         408.593         115.203 
       0.840667         408.678         113.348 
       0.846816         402.669         111.539 
       0.852925         402.775         109.782 
       0.859047         399.034         108.059 
       0.865192         397.248         106.369 
       0.871341          391.84         104.714 
       0.877463         389.165         103.102 
       0.883569          386.31         101.529 
       0.889708         382.866         99.9812 
       0.895864         380.029          98.462 
       0.902008         378.217         96.9779 
       0.908149         375.168         95.5254 
       0.914301         373.212         94.1005 
       0.920448         370.039         92.7063 
       0.926574         368.048         91.3454 
       0.932687         365.722         90.0149 
       0.938823         361.712         88.7064 
       0.944975         360.389          87.421 
       0.951105         357.423          86.166 
       0.957225         352.757          84.938 
       0.963368         353.425           83.73 
       0.969511         347.043         82.5456 
       0.975621         347.343         81.3907 
       0.981748         344.816         80.2551 
       0.987916         342.641         79.1343 
        0.99406         339.547         78.0393 
        1.00019         336.275         76.9673 
        1.00632          336.31         75.9166 
        1.01246         333.423         74.8842 
        1.01859         329.324         73.8727 
        1.02471         327.411         72.8814 
        1.03085         326.778         71.9049 
        1.03698         324.221         70.9486 
        1.04314         323.269         70.0057 
        1.04929         320.781         69.0823 
        1.05541         316.794         68.1794 
        1.06154         315.665         67.2905 
        1.06769         312.512         66.4163 
        1.07382         311.769         65.5606 
        1.07993         308.958          64.722 
        1.08607         306.928         63.8947 
        1.09222         305.031         63.0812 
        1.09836         303.771         62.2829 
        1.10449           301.5         61.4994 
        1.11063         298.699         60.7287 
        1.11677         296.277         59.9715 
         1.1229         295.337         59.2286 
        1.12903         293.429         58.4978 
        1.13518         291.058         57.7788 
        1.14131         290.396         57.0723 
        1.14745         286.439         56.3782 
        1.15359         284.594         55.6955 
        1.15973         283.655          55.024 
        1.16584          282.12         54.3666 
        1.17197         279.928         53.7191 
        1.17811         277.405         53.0802 
        1.18424         275.965         52.4537 
        1.19038         274.558         51.8355 
        1.19652         271.439         51.2276 
        1.20267         271.194         50.6295 
        1.20881         268.972         50.0412 
        1.21495          267.96         49.4632 
        1.22108         265.948         48.8945 
         1.2272         262.817         48.3361 
        1.23334         262.044         47.7852 
        1.23949         260.952         47.2417 
        1.24562         259.185         46.7082 
        1.25174         257.202         46.1837 
        1.25789         255.048         45.6658 
        1.26402         254.794         45.1568 
        1.27014         253.422         44.6568 
        1.27628         250.547         44.1629 
        1.28244         249.635         43.6756 
        1.28858         247.833         43.1964 
        1.29471         246.698         42.7254 
        1.30084          245.26          42.262 
        1.30697         242.704         41.8048 
        1.31312         241.261         41.3537 
        1.31925         240.071         40.9107 
        1.32537          239.11         40.4747 
        1.33151         237.114         40.0435 
        1.33765         235.553         39.6189 
        1.34378         234.025         39.2014 
        1.34992         232.396         38.7896 
        1.35606         231.387         38.3828 
         1.3622         229.852         37.9826 
        1.36833         228.068         37.5892 
        1.37445         227.553         37.2015 
        1.38059           225.4         36.8182 
        1.38675         223.884         36.4393 
        1.39288         222.874         36.0673 
        1.39901         221.115         35.7007 
        1.40515         220.191         35.3385 
         1.4113         218.377         34.9814 
        1.41742         216.546         34.6306 
        1.42355         217.033          34.284 
         1.4297         214.767         33.9412 
        1.43585         213.267         33.6032 
        1.44198         211.592         33.2711 
        1.44809         210.763         32.9441 
        1.45423         209.652         32.6204 
        1.46036         208.171         32.3016 
        1.46649         207.115          31.987 
        1.47263         205.933         31.6763 
        1.47877         204.506         31.3699 
        1.48491         202.697         31.0671 
        1.49104         201.152          30.769 
        1.49718         200.319         30.4746 
        1.50333         198.836         30.1836 
        1.50947         198.121          29.897 
         1.5156         196.904         29.6146 
        1.52172         195.667         29.3358 
        1.52787         194.421         29.0601 
          1.534         193.587         28.7882 
        1.54013         192.284         28.5202 
        1.54627         191.178         28.2551 
        1.55241         190.036         27.9933 
        1.55855         189.296         27.7353 
        1.56467         187.639         27.4812 
         1.5708         186.243         27.2296 
        1.57695         185.533         26.9807 
        1.58308         184.145         26.7356 
        1.58922         183.227         26.4933 
        1.59535         181.612         26.2542 
         1.6015         180.811         26.0177 
        1.60764         179.863         25.7842 
        1.61376          178.33         25.5542 
        1.61989         177.358         25.3269 
        1.62604         176.164         25.1019 
        1.63218         175.456         24.8797 
        1.63831         174.616         24.6607 
        1.64444         173.176         24.4444 
        1.65059         172.436         24.2301 
        1.65673         171.067         24.0186 
        1.66285         170.313         23.8102 
        1.66898         169.224         23.6043 
        1.67512         168.198         23.4004 
        1.68127         167.189         23.1987 
         1.6874         166.216         22.9999 
        1.69353         165.474         22.8035 
        1.69967         164.075          22.609 
        1.70581         163.601         22.4168 
        1.71193         162.159         22.2276 
        1.71806         161.166         22.0402 
        1.72421         160.424         21.8546 
        1.73035           159.3         21.6714 
        1.73649         158.211         21.4903 
        1.74262         157.615         21.3114 
        1.74876         156.734         21.1344 
        1.75489         155.813         20.9599 
        1.76101         154.542         20.7873 
        1.76715         153.643         20.6165 
        1.77329         152.809         20.4474 
        1.77943         151.684         20.2801 
        1.78557          151.21          20.115 
        1.79171         150.276         19.9516 
        1.79785          149.21         19.7901 
        1.80399         148.347         19.6304 
        1.81012         147.205         19.4726 
        1.81625         146.781         19.3167 
        1.82239         145.514         19.1623 
        1.82853         145.022         19.0096 
        1.83466         143.832         18.8587 
        1.84078         143.345         18.7096 
        1.84692         142.596          18.562 
        1.85306         141.407         18.4157 
         1.8592         140.913         18.2712 
        1.86533         139.566         18.1284 
        1.87147         139.122          17.987 
        1.87761         138.063          17.847 
        1.88375         137.093         17.7086 
        1.88988         136.592         17.5719 
        1.89601         136.156         17.4365 
        1.90215         135.424         17.3025 
        1.90829         134.042           17.17 
        1.91442         133.262         17.0388 
        1.92056         132.534         16.9091 
         1.9267         131.763         16.7807 
        1.93284         131.025         16.6535 
        1.93897         130.168         16.5279 
        1.94509         129.492         16.4038 
        1.95123         128.812         16.2807 
        1.95737          128.17         16.1588 
        1.96349         127.297         16.0385 
        1.96964         126.615          15.919 
        1.97578         125.871         15.8007 
        1.98192         125.189         15.6839 
        1.98805         124.472         15.5682 
        1.99419         123.468         15.4537 
        2.00033         123.036         15.3402 
        2.00647         122.404          15.228 
         2.0126         121.624         15.1171 
        2.01874         121.036         15.0071 
        2.02488         120.082         14.8981 
        2.03101          119.65         14.7904 
        2.03714         118.727         14.6839 
        2.04328         118.201         14.5783 
        2.04941         117.757         14.4738 
        2.05554         117.124         14.3705 
        2.06167         116.112          14.268 
        2.06781          115.42         14.1665 
        2.07396         115.012         14.0658 
        2.08009         114.183         13.9663 
        2.08622         113.538         13.8679 
        2.09237         112.717         13.7702 
        2.09851         112.391         13.6735 
        2.10464         111.632         13.5778 
        2.11077         111.018         13.4832 
        2.11691         110.481         13.3893 
        2.12305         109.828         13.2962 
        2.12918         109.146         13.2043 
        2.13531         108.627         13.1133 
        2.14145         107.888         13.0229 
         2.1476         107.203         12.9332 
        2.15372         106.675         12.8449 
        2.15985         105.994         12.7572 
        2.16599         105.313         12.6702 
        2.17213         104.886          12.584 
        2.17827         104.125         12.4987 
         2.1844         103.906         12.4143 
        2.19054         103.008         12.3306 
        2.19666         102.392         12.2478 
         2.2028         101.987         12.1657 
        2.20893          101.55         12.0843 
        2.21508         100.662         12.0035 
        2.22122          100.33         11.9235 
        2.22736          99.822         11.8444 
        2.23349         99.1661          11.766 
        2.23962         98.6093         11.6882 
        2.24577         98.1117         11.6111 
         2.2519         97.3473         11.5349 
        2.25802         96.9807         11.4594 
        2.26417         96.3652         11.3844 
        2.27031         95.7392           11.31 
        2.27644         95.4206         11.2364 
        2.28257         94.8585         11.1636 
        2.28872         94.3931         11.0912 
        2.29486         94.0914         11.0195 
        2.30099         93.1487         10.9486 
        2.30712         92.9427         10.8783 
        2.31326         92.4037         10.8085 
         2.3194         91.7466         10.7393 
        2.32553         91.1484         10.6709 
        2.33166         90.7903         10.6031 
         2.3378         90.4845         10.5357 
        2.34394         89.7485          10.469 
        2.35007         89.0339         10.4029 
        2.35619         88.7301         10.3375 
        2.36233         88.3327         10.2725 
        2.36848         87.7089         10.2079 
        2.37462          87.326          10.144 
        2.38075         86.8452         10.0807 
        2.38689          86.493         10.0179 
        2.39303         85.9821         9.95565 
        2.39916         85.5791           9.894 
        2.40529         85.0681         9.83287 
        2.41143         84.6629         9.77222 
        2.41757         84.0839         9.71205 
         2.4237         83.6183         9.65249 
        2.42983         83.1586         9.59345 
        2.43598         82.9379         9.53474 
        2.44211         82.3472         9.47663 
        2.44823          81.843         9.41912 
        2.45437          81.517         9.36194 
        2.46052         81.0095         9.30519 
        2.46665         80.5277         9.24901 
        2.47279         80.2398         9.19331 
        2.47892         79.7322         9.13804 
        2.48507          79.414         9.08317 
         2.4912         78.7801         9.02885 
