# k  (h/Mpc)    P(k)  (Mpc/h)^3    P_linear(k)  (Mpc/h)^3
     0.00783031         10270.2         10440.4 
       0.013688         13582.4         13516.3 
       0.019231         14215.3         14230.7 
      0.0249154         13405.1         13685.2 
      0.0312784         12220.4         12378.4 
      0.0375637         10916.5         10969.4 
      0.0433917         9630.08         9844.13 
      0.0492413         8853.12         8970.02 
      0.0555754         7984.26         8269.51 
      0.0619321         7658.71          7714.6 
       0.067871         6986.67         7229.15 
      0.0738098         6481.51         6714.17 
      0.0800417         5845.72         6128.73 
      0.0862327         5340.04         5532.46 
      0.0921407         4895.73         4997.09 
      0.0982031         4412.37         4523.29 
       0.104506         4146.47         4133.36 
       0.110769         3849.84         3844.48 
       0.116806         3616.79         3634.93 
       0.122832         3456.37         3461.39 
       0.129052         3219.63          3288.8 
       0.135211         3053.25         3104.59 
       0.141259         2914.08         2906.54 
       0.147318         2743.74         2699.54 
       0.153489          2521.6          2495.2 
       0.159709         2386.98         2311.04 
       0.165845         2297.76         2159.63 
       0.171974         2167.25         2039.33 
       0.178125         2066.14         1943.79 
       0.184229         1987.85          1864.3 
        0.19034         1872.31         1790.03 
       0.196428         1839.61         1713.91 
       0.202534         1773.96         1632.26 
       0.208729         1692.02         1545.14 
       0.214876         1614.21         1458.57 
       0.220989         1564.63         1377.29 
       0.227147         1490.42         1304.12 
        0.23329         1434.46          1241.5 
       0.239377         1412.43         1189.06 
       0.245482         1324.71         1143.73 
       0.251667         1317.22         1102.07 
       0.257832         1268.46          1061.9 
       0.263955         1227.91         1021.54 
       0.270079         1187.64         980.156 
        0.27624         1175.47         938.227 
       0.282372          1125.2         897.498 
        0.28843         1113.02         859.594 
       0.294538         1059.26         824.675 
       0.300721         1056.04         792.979 
        0.30691         1011.41          764.59 
       0.313033         993.015          738.95 
       0.319153          973.03         714.852 
       0.325316         942.065         691.298 
        0.33145         919.813         668.132 
       0.337538         907.912         645.292 
       0.343633         883.718         622.824 
       0.349808          855.26          600.83 
       0.355968         850.657         580.016 
       0.362074         839.162         560.747 
       0.368217         815.393         542.732 
       0.374374          783.36         525.945 
       0.380519         781.906         510.177 
       0.386598         763.389         495.283 
       0.392688         760.865         480.856 
        0.39888         738.777          466.53 
       0.405048         727.563         452.606 
       0.411186         716.548         439.136 
       0.417313         702.786         426.158 
       0.423458         691.817         413.714 
       0.429607         680.133         401.878 
       0.435692         665.674         390.758 
       0.441815         661.903         380.127 
       0.447964         647.964         369.931 
       0.454126         636.069         360.102 
       0.460267         625.202         350.634 
       0.466387         618.561         341.486 
        0.47254         608.386         332.549 
       0.478662         606.501          323.93 
       0.484765         589.289         315.631 
       0.490885         584.539         307.618 
       0.497035         573.494         299.875 
       0.503198         567.176         292.425 
       0.509342         562.073         285.291 
       0.515458         558.017         278.451 
       0.521598         546.018         271.816 
       0.527764         534.825         265.362 
       0.533884         533.874         259.152 
           0.54         526.957         253.136 
       0.546137         524.803          247.28 
       0.552299         515.318         241.582 
       0.558452         512.808         236.077 
       0.564573         504.739         230.782 
       0.570708         498.343         225.652 
       0.576825         486.875         220.705 
       0.582926         486.807         215.925 
       0.589034         482.339         211.283 
       0.595184         477.767         206.749 
       0.601379         472.208         202.316 
       0.607522          465.35         198.048 
       0.613639          464.61          193.92 
       0.619772         452.493         189.898 
       0.625918         451.725         185.984 
       0.632068         445.436         182.181 
       0.638161         443.839         178.523 
         0.6443         435.394         174.943 
       0.650464          433.12         171.453 
       0.656582         431.825         168.084 
       0.662703         428.651         164.807 
       0.668861          420.99         161.598 
       0.675024         417.654         158.472 
       0.681124         415.326         155.461 
       0.687237         411.143         152.523 
       0.693381         405.902         149.649 
       0.699536         401.387         146.845 
       0.705665          399.31         144.127 
       0.711789          395.99         141.482 
       0.717957         392.674         138.887 
        0.72409         389.427         136.372 
       0.730186         385.398         133.936 
       0.736317         382.023         131.546 
       0.742472         380.706         129.207 
       0.748622         376.386         126.927 
        0.75476          372.61         124.709 
       0.760888          368.35         122.547 
       0.767043          368.88         120.429 
       0.773185         363.807         118.366 
       0.779291         358.848         116.365 
       0.785407          357.46         114.407 
       0.791564         353.523         112.483 
       0.797719         351.203         110.604 
       0.803834         348.568         108.781 
       0.809972         346.623         106.994 
       0.816124          346.63         105.243 
       0.822261         340.804         103.536 
       0.828378         339.078         101.873 
       0.834502         337.223         100.246 
       0.840667         332.776         98.6439 
       0.846816         331.494          97.082 
       0.852925         328.775         95.5643 
       0.859047         327.489         94.0763 
       0.865192          324.25         92.6155 
       0.871341         321.555         91.1851 
       0.877463         319.549         89.7919 
       0.883569         317.674         88.4317 
       0.889708         314.892         87.0932 
       0.895864         311.298         85.7793 
       0.902008         310.539         84.4956 
       0.908149         308.753         83.2393 
       0.914301         305.006         82.0069 
       0.920448          302.73         80.8009 
       0.926574         300.284         79.6237 
       0.932687         300.592         78.4728 
       0.938823         296.789         77.3408 
       0.944975          295.79         76.2288 
       0.951105         293.445          75.143 
       0.957225         291.063         74.0805 
       0.963368         287.625         73.0352 
       0.969511         286.277         72.0103 
       0.975621         283.911         71.0108 
       0.981748         284.205          70.028 
       0.987916         281.195         69.0578 
        0.99406          277.61           68.11 
        1.00019         277.753          67.182 
        1.00632         275.577         66.2723 
        1.01246         273.236         65.3784 
        1.01859          273.23         64.5026 
        1.02471         269.778         63.6442 
        1.03085         267.159         62.7986 
        1.03698         266.438         61.9703 
        1.04314         264.086         61.1536 
        1.04929         262.157         60.3538 
        1.05541         261.863         59.5716 
        1.06154          258.71         58.8014 
        1.06769         257.999         58.0439 
        1.07382         256.358         57.3024 
        1.07993         254.271         56.5757 
        1.08607         253.449         55.8587 
        1.09222         251.596         55.1536 
        1.09836         249.383         54.4616 
        1.10449         247.006         53.7824 
        1.11063         245.111         53.1142 
        1.11677         244.824         52.4577 
         1.1229         242.975         51.8136 
        1.12903         241.308         51.1798 
        1.13518         239.889         50.5563 
        1.14131         238.151         49.9435 
        1.14745         237.679         49.3414 
        1.15359         235.424         48.7492 
        1.15973         234.597         48.1666 
        1.16584         232.067         47.5963 
        1.17197         231.702         47.0345 
        1.17811         229.707         46.4801 
        1.18424         228.336         45.9364 
        1.19038         227.453         45.3999 
        1.19652         225.829         44.8723 
        1.20267         225.033         44.3531 
        1.20881          222.97         43.8424 
        1.21495         221.587         43.3406 
        1.22108         220.671         42.8468 
         1.2272         218.847          42.362 
        1.23334         217.649         41.8837 
        1.23949         216.359         41.4116 
        1.24562         215.315         40.9483 
        1.25174         212.774         40.4928 
        1.25789          211.68         40.0429 
        1.26402         210.809         39.6007 
        1.27014         209.337         39.1664 
        1.27628         208.244         38.7373 
        1.28244         207.795         38.3139 
        1.28858         205.786         37.8975 
        1.29471         203.894         37.4882 
        1.30084         203.104         37.0854 
        1.30697         201.726         36.6879 
        1.31312         200.524         36.2958 
        1.31925         199.933         35.9107 
        1.32537         198.623         35.5316 
        1.33151          196.86         35.1567 
        1.33765         195.904         34.7874 
        1.34378         194.872         34.4243 
        1.34992         193.849         34.0661 
        1.35606         193.258         33.7123 
         1.3622         191.795         33.3642 
        1.36833         189.998         33.0219 
        1.37445         188.795         32.6847 
        1.38059         187.837         32.3511 
        1.38675         186.836         32.0215 
        1.39288         185.721         31.6978 
        1.39901         185.535         31.3788 
        1.40515         183.802         31.0634 
         1.4113         182.211         30.7526 
        1.41742         181.615         30.4473 
        1.42355         180.041         30.1456 
         1.4297         179.217         29.8471 
        1.43585         177.721         29.5528 
        1.44198          177.17         29.2636 
        1.44809         176.293         28.9789 
        1.45423         174.794          28.697 
        1.46036         174.147         28.4193 
        1.46649         172.986         28.1453 
        1.47263         171.969         27.8747 
        1.47877         171.104         27.6078 
        1.48491         169.543          27.344 
        1.49104         169.235         27.0842 
        1.49718         167.284         26.8276 
        1.50333         166.793          26.574 
        1.50947          166.08         26.3242 
         1.5156         164.786         26.0781 
        1.52172         163.825         25.8351 
        1.52787         162.739         25.5947 
          1.534         162.194         25.3577 
        1.54013         160.744          25.124 
        1.54627         160.221         24.8928 
        1.55241         158.992         24.6646 
        1.55855         158.196         24.4395 
        1.56467         157.305         24.2179 
         1.5708         156.404         23.9984 
        1.57695         155.363         23.7814 
        1.58308         154.813         23.5676 
        1.58922          153.84         23.3562 
        1.59535         152.592         23.1476 
         1.6015         152.211         22.9412 
        1.60764          151.08         22.7375 
        1.61376         150.204         22.5368 
        1.61989         149.207         22.3384 
        1.62604         148.567          22.142 
        1.63218         147.694          21.948 
        1.63831         146.682         21.7569 
        1.64444         146.159          21.568 
        1.65059         145.325         21.3809 
        1.65673         144.103         21.1962 
        1.66285           143.8         21.0143 
        1.66898         142.827         20.8344 
        1.67512         142.154         20.6564 
        1.68127         140.955         20.4802 
         1.6874         139.681         20.3065 
        1.69353         139.504          20.135 
        1.69967         138.656         19.9651 
        1.70581         137.838         19.7972 
        1.71193         136.956         19.6318 
        1.71806         136.363         19.4681 
        1.72421         135.549         19.3059 
        1.73035         134.892         19.1457 
        1.73649          134.19         18.9874 
        1.74262         133.263          18.831 
        1.74876         132.831         18.6763 
        1.75489         131.484         18.5237 
        1.76101         131.059         18.3729 
        1.76715          130.14         18.2235 
        1.77329          129.86         18.0756 
        1.77943         128.718         17.9293 
        1.78557         128.023         17.7849 
        1.79171         127.348          17.642 
        1.79785         126.577         17.5007 
        1.80399         125.907          17.361 
        1.81012         125.235          17.223 
        1.81625         124.425         17.0866 
        1.82239         124.079         16.9514 
        1.82853         123.438         16.8178 
        1.83466         122.515         16.6858 
        1.84078         122.018         16.5554 
        1.84692          121.03         16.4261 
        1.85306           120.5         16.2981 
         1.8592         119.616         16.1717 
        1.86533         118.959         16.0466 
        1.87147         118.171         15.9228 
        1.87761         117.866         15.8002 
        1.88375         116.746         15.6791 
        1.88988         116.205         15.5594 
        1.89601         115.493         15.4408 
        1.90215          115.07         15.3234 
        1.90829         114.378         15.2074 
        1.91442         113.934         15.0925 
        1.92056         113.191         14.9789 
         1.9267         112.651         14.8663 
        1.93284         112.015         14.7549 
        1.93897         111.305         14.6448 
        1.94509         110.917         14.5361 
        1.95123         110.226         14.4283 
        1.95737          109.62         14.3214 
        1.96349         108.977          14.216 
        1.96964         108.081         14.1112 
        1.97578         107.716         14.0076 
        1.98192         107.135         13.9051 
        1.98805         106.197         13.8037 
        1.99419         105.896         13.7033 
        2.00033         105.377         13.6038 
        2.00647         104.736         13.5054 
         2.0126         104.154         13.4081 
        2.01874         103.501         13.3117 
        2.02488         103.066         13.2161 
        2.03101         102.364         13.1216 
        2.03714          101.79         13.0282 
        2.04328          101.34         12.9355 
        2.04941         100.685         12.8439 
        2.05554          100.08         12.7532 
        2.06167         99.6246         12.6632 
        2.06781         99.2086         12.5742 
        2.07396         98.4351         12.4858 
        2.08009         97.8756         12.3985 
        2.08622         97.6031         12.3121 
        2.09237         96.7762         12.2264 
        2.09851         96.5208         12.1415 
        2.10464         95.7784         12.0575 
        2.11077         95.4518         11.9744 
        2.11691         94.9906          11.892 
        2.12305         94.2995         11.8103 
        2.12918         93.7152         11.7296 
        2.13531         93.4319         11.6496 
        2.14145         92.4992         11.5702 
         2.1476          92.252         11.4914 
        2.15372         91.7766         11.4138 
        2.15985         91.3024         11.3369 
        2.16599         90.9004         11.2604 
        2.17213         90.1812         11.1847 
        2.17827         89.9292         11.1097 
         2.1844         89.2505         11.0355 
        2.19054         89.0324          10.962 
        2.19666         88.4235         10.8892 
         2.2028         88.0903         10.8171 
        2.20893         87.3924         10.7455 
        2.21508         86.8342         10.6745 
        2.22122         86.5592         10.6042 
        2.22736         85.9854         10.5346 
        2.23349         85.7568         10.4657 
        2.23962         85.1084         10.3974 
        2.24577         84.6484         10.3296 
         2.2519          84.415         10.2625 
        2.25802          83.682         10.1961 
        2.26417         83.2819         10.1302 
        2.27031         82.9065         10.0647 
        2.27644         82.4765         10.0001 
        2.28257         81.8578         9.93598 
        2.28872         81.5131         9.87233 
        2.29486         81.1468         9.80926 
        2.30099          80.645         9.74687 
        2.30712         80.2253           9.685 
        2.31326         79.9076         9.62356 
         2.3194         79.4158          9.5627 
        2.32553         78.9895         9.50247 
        2.33166         78.4692         9.44278 
         2.3378         78.0968         9.38353 
        2.34394         77.7894         9.32478 
        2.35007         77.1986         9.26661 
        2.35619         76.7619         9.20901 
        2.36233         76.4156         9.15177 
        2.36848         76.0528          9.0949 
        2.37462         75.6586         9.03864 
        2.38075         75.4079         8.98291 
        2.38689         74.8342         8.92761 
        2.39303         74.5294         8.87279 
        2.39916         74.1302         8.81848 
        2.40529          73.836         8.76464 
        2.41143         73.3055         8.71121 
        2.41757         73.0318         8.65821 
         2.4237         72.7122         8.60575 
        2.42983         72.2249         8.55373 
        2.43598         71.8832           8.502 
        2.44211         71.5013         8.45079 
        2.44823         71.1365         8.40012 
        2.45437         70.7089         8.34973 
        2.46052         70.2896         8.29972 
        2.46665          69.971          8.2502 
        2.47279         69.5977         8.20111 
        2.47892         69.2652         8.15238 
        2.48507         68.8153         8.10401 
         2.4912         68.5454         8.05613 
