# k  (h/Mpc)    P(k)  (Mpc/h)^3    P_linear(k)  (Mpc/h)^3
     0.00783031         437.699         442.296 
       0.013688         489.862         494.345 
       0.019231         450.281         451.554 
      0.0249154          372.21         371.499 
      0.0312784         282.278          281.22 
      0.0375637         214.213         213.551 
      0.0433917         174.635         173.682 
      0.0492413         151.787         151.371 
      0.0555754         140.033         139.401 
      0.0619321         131.518         131.942 
       0.067871           123.5         123.478 
      0.0738098         111.272         111.227 
      0.0800417         95.4613         95.1748 
      0.0862327         79.1407         78.9163 
      0.0921407         66.0607          65.803 
      0.0982031         56.6443          56.217 
       0.104506         50.5491         50.4198 
       0.110769         47.9357         47.8204 
       0.116806         47.0231          46.826 
       0.122832         45.8727         45.8555 
       0.129052         43.8878         43.7757 
       0.135211         40.4909         40.3018 
       0.141259         36.0741          35.952 
       0.147318         31.5634         31.4783 
       0.153489         27.7604          27.579 
       0.159709         24.9756         24.7584 
       0.165845         23.1757         23.0966 
       0.171974         22.5001         22.2812 
       0.178125          22.037         21.8843 
       0.184229         21.5611         21.4685 
        0.19034          20.874         20.7135 
       0.196428         19.6669          19.523 
       0.202534          18.055         18.0034 
       0.208729         16.5341         16.3754 
       0.214876         15.1371         14.9231 
       0.220989         13.9438         13.7967 
       0.227147         13.2318         13.0205 
        0.23329         12.7434         12.5409 
       0.239377         12.4298         12.2324 
       0.245482         12.1395         11.9498 
       0.251667         11.7095         11.5794 
       0.257832         11.2715         11.0775 
       0.263955         10.6127         10.4658 
       0.270079         9.95803         9.80689 
        0.27624         9.31453         9.17627 
       0.282372         8.78354         8.63962 
        0.28843         8.41394         8.22577 
       0.294538         8.08796         7.91462 
       0.300721         7.81099         7.67532 
        0.30691         7.63335         7.46506 
       0.313033         7.40408         7.24725 
       0.319153         7.19014         6.99545 
       0.325316         6.84412         6.70689 
        0.33145         6.53141         6.39881 
       0.337538         6.24206          6.0968 
       0.343633         5.98672         5.81834 
       0.349808         5.72883         5.57551 
       0.355968         5.51819         5.37304 
       0.362074         5.36927         5.20508 
       0.368217         5.20741         5.05531 
       0.374374         5.08017         4.91006 
       0.380519          4.9076         4.76113 
       0.386598         4.73831         4.60468 
       0.392688         4.56629         4.44179 
        0.39888         4.41583         4.27609 
       0.405048         4.26295         4.11752 
       0.411186         4.11264         3.97238 
       0.417313         3.98262         3.84266 
       0.423458         3.84834         3.72592 
       0.429607         3.76248         3.61992 
       0.435692         3.66717         3.52122 
       0.441815          3.5555         3.42362 
       0.447964         3.44417         3.32528 
       0.454126          3.3578         3.22646 
       0.460267         3.27018         3.12817 
       0.466387         3.16739         3.03246 
        0.47254         3.08182         2.94083 
       0.478662         2.98945         2.85567 
       0.484765         2.91225         2.77639 
       0.490885         2.82652           2.702 
       0.497035         2.74618          2.6315 
       0.503198         2.69127         2.56374 
       0.509342         2.61266         2.49767 
       0.515458         2.55343         2.43265 
       0.521598         2.49102         2.36853 
       0.527764         2.43596         2.30577 
       0.533884           2.357         2.24553 
           0.54         2.30657         2.18766 
       0.546137         2.24324         2.13214 
       0.552299         2.19231         2.07914 
       0.558452         2.13861          2.0288 
       0.564573         2.09244         1.98072 
       0.570708          2.0465         1.93402 
       0.576825         2.00082         1.88853 
       0.582926          1.9499         1.84421 
       0.589034         1.91237           1.801 
       0.595184         1.87377         1.75879 
       0.601379         1.82556          1.7177 
       0.607522         1.78101         1.67835 
       0.613639         1.74065         1.64051 
       0.619772         1.70984         1.60385 
       0.625918         1.67246         1.56835 
       0.632068         1.63737         1.53401 
       0.638161         1.60265         1.50106 
         0.6443         1.56742         1.46884 
       0.650464         1.53662         1.43741 
       0.656582         1.51014         1.40704 
       0.662703         1.47722         1.37746 
       0.668861         1.44099         1.34851 
       0.675024         1.41343         1.32036 
       0.681124         1.39841         1.29332 
       0.687237         1.36438         1.26703 
       0.693381         1.33129         1.24141 
       0.699536          1.3134          1.2165 
       0.705665         1.28792         1.19242 
       0.711789         1.25835         1.16903 
       0.717957         1.23597          1.1461 
        0.72409         1.21322          1.1239 
       0.730186         1.19716          1.1024 
       0.736317          1.1685         1.08133 
       0.742472         1.15165         1.06073 
       0.748622         1.13231         1.04067 
        0.75476         1.10658         1.02118 
       0.760888         1.09091         1.00223 
       0.767043         1.06207        0.983691 
       0.773185         1.04847        0.965671 
       0.779291         1.03649        0.948213 
       0.785407         1.01543        0.931169 
       0.791564        0.996602        0.914442 
       0.797719        0.979349         0.89814 
       0.803834        0.963335        0.882341 
       0.809972        0.946982        0.866868 
       0.816124        0.931916        0.851734 
       0.822261        0.916887        0.837003 
       0.828378         0.90159        0.822667 
       0.834502        0.885538        0.808655 
       0.840667        0.873944        0.794881 
       0.846816        0.857909        0.781469 
       0.852925          0.8428        0.768451 
       0.859047          0.8299        0.755705 
       0.865192        0.817562        0.743207 
       0.871341        0.806202        0.730985 
       0.877463        0.790011        0.719094 
       0.883569        0.779344          0.7075 
       0.889708        0.769305        0.696104 
       0.895864        0.757401        0.684931 
       0.902008        0.743606        0.674028 
       0.908149        0.733729         0.66337 
       0.914301        0.723783        0.652927 
       0.920448        0.714188         0.64272 
       0.926574        0.704886        0.632769 
       0.932687        0.693977         0.62305 
       0.938823         0.68012        0.613502 
       0.944975        0.673038        0.604133 
       0.951105        0.659376        0.594994 
       0.957225        0.652252        0.586062 
       0.963368        0.644001        0.577283 
       0.969511        0.635683        0.568685 
       0.975621        0.624746        0.560309 
       0.981748        0.613841        0.552082 
       0.987916         0.60695        0.543968 
        0.99406        0.599881        0.536049 
        1.00019        0.590939        0.528303 
        1.00632        0.584905        0.520719 
        1.01246        0.576459        0.513273 
        1.01859        0.568964        0.505985 
        1.02471        0.559229        0.498848 
        1.03085         0.55105        0.491825 
        1.03698        0.545837        0.484953 
        1.04314        0.537839        0.478183 
        1.04929        0.532831        0.471559 
        1.05541        0.523252        0.465087 
        1.06154        0.517821        0.458721 
        1.06769         0.51152        0.452466 
        1.07382         0.50451        0.446347 
        1.07993        0.498056        0.440357 
        1.08607        0.492254        0.434452 
        1.09222        0.485167         0.42865 
        1.09836        0.479945        0.422961 
        1.10449        0.472613        0.417382 
        1.11063        0.466699        0.411899 
        1.11677        0.461974        0.406516 
         1.1229        0.454759        0.401239 
        1.12903        0.450736        0.396052 
        1.13518        0.444661        0.390952 
        1.14131        0.440117        0.385946 
        1.14745        0.435911         0.38103 
        1.15359        0.429293        0.376199 
        1.15973        0.424692        0.371451 
        1.16584        0.419279        0.366806 
        1.17197        0.413551        0.362234 
        1.17811        0.408481        0.357727 
        1.18424        0.404177        0.353309 
        1.19038        0.398689        0.348954 
        1.19652        0.395309        0.344674 
        1.20267        0.391392        0.340466 
        1.20881        0.384894         0.33633 
        1.21495        0.381341        0.332268 
        1.22108         0.37745        0.328275 
         1.2272        0.372207        0.324357 
        1.23334        0.368521        0.320494 
        1.23949        0.364922        0.316685 
        1.24562        0.360687        0.312949 
        1.25174        0.357115        0.309279 
        1.25789         0.35177        0.305656 
        1.26402        0.348902        0.302099 
        1.27014        0.343871        0.298606 
        1.27628        0.341251        0.295159 
        1.28244        0.337234         0.29176 
        1.28858        0.332964        0.288419 
        1.29471        0.329789        0.285137 
        1.30084        0.326355         0.28191 
        1.30697        0.323788        0.278728 
        1.31312         0.32007        0.275591 
        1.31925        0.316408        0.272511 
        1.32537         0.31324        0.269483 
        1.33151        0.309776        0.266489 
        1.33765        0.306582        0.263543 
        1.34378        0.303075        0.260647 
        1.34992        0.300918        0.257793 
        1.35606        0.296955        0.254975 
         1.3622          0.2944        0.252205 
        1.36833        0.291851        0.249483 
        1.37445        0.288709        0.246803 
        1.38059        0.285826        0.244153 
        1.38675        0.282531        0.241537 
        1.39288        0.279277        0.238969 
        1.39901         0.27714         0.23644 
        1.40515         0.27422        0.233942 
         1.4113        0.272248        0.231481 
        1.41742        0.269343        0.229065 
        1.42355        0.265521        0.226679 
         1.4297        0.264082         0.22432 
        1.43585         0.26093        0.221995 
        1.44198        0.259043        0.219713 
        1.44809        0.256123        0.217467 
        1.45423        0.253761        0.215244 
        1.46036         0.25127        0.213056 
        1.46649        0.248862        0.210898 
        1.47263        0.245946        0.208768 
        1.47877        0.245155        0.206669 
        1.48491        0.241395        0.204595 
        1.49104        0.240459        0.202554 
        1.49718        0.237386        0.200539 
        1.50333        0.235498        0.198549 
        1.50947        0.233409        0.196589 
         1.5156        0.231276        0.194659 
        1.52172        0.229121        0.192755 
        1.52787        0.226418        0.190873 
          1.534        0.224977        0.189018 
        1.54013         0.22288         0.18719 
        1.54627        0.221166        0.185382 
        1.55241        0.219026        0.183598 
        1.55855        0.216959        0.181841 
        1.56467        0.215268        0.180111 
         1.5708        0.213141        0.178399 
        1.57695        0.211216        0.176706 
        1.58308        0.208808         0.17504 
        1.58922         0.20773        0.173393 
        1.59535        0.205457        0.171769 
         1.6015        0.203895        0.170163 
        1.60764        0.201906        0.168579 
        1.61376        0.200277        0.167019 
        1.61989        0.198534        0.165478 
        1.62604        0.196588        0.163952 
        1.63218        0.195397        0.162447 
        1.63831        0.193398        0.160964 
        1.64444        0.192171          0.1595 
        1.65059        0.189892         0.15805 
        1.65673        0.188473         0.15662 
        1.66285        0.187098        0.155211 
        1.66898        0.185463        0.153819 
        1.67512        0.183678        0.152442 
        1.68127        0.182153         0.15108 
         1.6874        0.180942        0.149738 
        1.69353        0.179161        0.148414 
        1.69967        0.177722        0.147102 
        1.70581         0.17659        0.145806 
        1.71193         0.17526        0.144531 
        1.71806        0.173603        0.143269 
        1.72421        0.172058        0.142019 
        1.73035        0.170622        0.140786 
        1.73649        0.169573        0.139567 
        1.74262        0.167839        0.138364 
        1.74876        0.166844        0.137174 
        1.75489        0.165569        0.136001 
        1.76101        0.164101        0.134841 
        1.76715        0.162832        0.133694 
        1.77329        0.161452        0.132559 
        1.77943        0.160101        0.131436 
        1.78557         0.15923        0.130328 
        1.79171        0.157975        0.129232 
        1.79785         0.15649        0.128149 
        1.80399        0.154906        0.127079 
        1.81012        0.154304        0.126022 
        1.81625        0.153256        0.124978 
        1.82239        0.152212        0.123944 
        1.82853        0.150492        0.122922 
        1.83466        0.149347        0.121913 
        1.84078        0.148357        0.120916 
        1.84692        0.147271        0.119929 
        1.85306        0.146233        0.118952 
         1.8592        0.145211        0.117987 
        1.86533        0.144178        0.117033 
        1.87147        0.142824        0.116089 
        1.87761        0.141715        0.115155 
        1.88375        0.140714        0.114232 
        1.88988        0.139502         0.11332 
        1.89601        0.138312        0.112418 
        1.90215        0.137601        0.111525 
        1.90829        0.136322        0.110642 
        1.91442        0.135799        0.109768 
        1.92056        0.134875        0.108905 
         1.9267        0.133698         0.10805 
        1.93284        0.132466        0.107204 
        1.93897        0.131643        0.106368 
        1.94509        0.130877        0.105543 
        1.95123        0.129616        0.104725 
        1.95737        0.128906        0.103915 
        1.96349        0.127901        0.103116 
        1.96964        0.126901        0.102322 
        1.97578        0.125988        0.101537 
        1.98192        0.125412        0.100762 
        1.98805        0.124469       0.0999942 
        1.99419        0.123787       0.0992347 
        2.00033        0.122591       0.0984827 
        2.00647        0.121907       0.0977387 
         2.0126        0.121021       0.0970036 
        2.01874          0.1202        0.096275 
        2.02488        0.119415       0.0955532 
        2.03101        0.118379       0.0948402 
        2.03714        0.118098       0.0941351 
        2.04328        0.116731       0.0934364 
        2.04941        0.116287       0.0927453 
        2.05554        0.115387       0.0920618 
        2.06167         0.11452       0.0913842 
        2.06781        0.113579       0.0907133 
        2.07396        0.113155       0.0900482 
        2.08009        0.112215        0.089391 
        2.08622        0.111587        0.088741 
        2.09237        0.110827       0.0880962 
        2.09851        0.109913       0.0874578 
        2.10464        0.109383       0.0868267 
        2.11077        0.108428       0.0862026 
        2.11691        0.107857       0.0855833 
        2.12305        0.107076         0.08497 
        2.12918        0.106294       0.0843643 
        2.13531         0.10568       0.0837643 
        2.14145        0.104996       0.0831689 
         2.1476        0.104301       0.0825785 
        2.15372        0.103857       0.0819968 
        2.15985        0.102884       0.0814201 
        2.16599        0.102211       0.0808473 
        2.17213        0.101715       0.0802807 
        2.17827        0.101028       0.0797196 
         2.1844        0.100464       0.0791644 
        2.19054        0.099775       0.0786143 
        2.19666       0.0992044       0.0780702 
         2.2028       0.0982082       0.0775308 
        2.20893       0.0978626       0.0769962 
        2.21508       0.0972809        0.076466 
        2.22122       0.0966544       0.0759407 
        2.22736       0.0959204       0.0754214 
        2.23349       0.0952832       0.0749071 
        2.23962       0.0948207       0.0743973 
        2.24577       0.0942835       0.0738918 
         2.2519       0.0936201       0.0733917 
        2.25802       0.0930246        0.072897 
        2.26417       0.0926132       0.0724056 
        2.27031       0.0919591       0.0719182 
        2.27644       0.0916532       0.0714367 
        2.28257       0.0908095       0.0709596 
        2.28872       0.0903295        0.070486 
        2.29486       0.0898274       0.0700169 
        2.30099       0.0891296       0.0695529 
        2.30712       0.0886808        0.069093 
        2.31326        0.088047       0.0686364 
         2.3194       0.0876377       0.0681842 
        2.32553       0.0871003       0.0677369 
        2.33166       0.0865402       0.0672937 
         2.3378       0.0860314       0.0668539 
        2.34394       0.0855415       0.0664179 
        2.35007        0.085058       0.0659864 
        2.35619       0.0845721       0.0655593 
        2.36233       0.0840906       0.0651349 
        2.36848        0.083509       0.0647134 
        2.37462       0.0832071       0.0642966 
        2.38075       0.0826203       0.0638838 
        2.38689        0.082217       0.0634743 
        2.39303       0.0817319       0.0630684 
        2.39916       0.0811801       0.0626665 
        2.40529        0.080688       0.0622682 
        2.41143       0.0801397        0.061873 
        2.41757       0.0797682       0.0614811 
         2.4237       0.0792696       0.0610933 
        2.42983       0.0789165       0.0607089 
        2.43598       0.0784164       0.0603268 
        2.44211         0.07781       0.0599486 
        2.44823       0.0775746       0.0595745 
        2.45437       0.0771558       0.0592025 
        2.46052       0.0766506       0.0588334 
        2.46665       0.0762805       0.0584682 
        2.47279       0.0757797       0.0581061 
        2.47892       0.0755749       0.0577468 
        2.48507       0.0748588       0.0573903 
         2.4912       0.0745896       0.0570375 
