# k  (h/Mpc)    P(k)  (Mpc/h)^3    P_linear(k)  (Mpc/h)^3
     0.00783031          8555.3         8613.17 
       0.013688           10995         11251.1 
       0.019231         11808.4         11970.4 
      0.0249154         11586.4         11602.1 
      0.0312784         10402.1         10518.6 
      0.0375637         9102.68         9267.13 
      0.0433917         8155.99         8222.06 
      0.0492413         7274.14         7391.67 
      0.0555754         6676.61         6739.75 
      0.0619321         6045.58         6272.93 
       0.067871            5777         5919.44 
      0.0738098         5465.23         5572.93 
      0.0800417          5077.9         5170.84 
      0.0862327         4617.18         4725.67 
      0.0921407         4197.79         4282.78 
      0.0982031         3822.08         3848.68 
       0.104506         3401.02         3456.81 
       0.110769         3120.04         3148.85 
       0.116806         2961.23         2929.67 
       0.122832         2773.36         2772.39 
       0.129052         2650.19         2650.02 
       0.135211         2578.94          2542.3 
       0.141259         2425.91         2428.95 
       0.147318         2264.78         2297.39 
       0.153489         2141.93         2145.55 
       0.159709         2037.68         1984.31 
       0.165845         1852.05         1830.91 
       0.171974         1789.05         1695.45 
       0.178125         1707.68         1584.35 
       0.184229         1578.68         1499.55 
        0.19034         1548.91         1435.73 
       0.196428         1504.94         1385.48 
       0.202534         1419.06         1339.96 
       0.208729         1397.68         1291.43 
       0.214876         1345.72         1236.82 
       0.220989         1267.02          1175.8 
       0.227147         1235.52          1110.4 
        0.23329         1185.33         1045.73 
       0.239377         1164.03         986.641 
       0.245482         1103.94         935.347 
       0.251667         1061.02         892.584 
       0.257832         1048.18         858.298 
       0.263955         997.236         830.146 
       0.270079         969.354          804.93 
        0.27624         930.561         779.836 
       0.282372         915.518         753.243 
        0.28843          907.32         724.838 
       0.294538          862.17         694.558 
       0.300721         838.675         663.584 
        0.30691         823.575         633.849 
       0.313033         788.756         606.993 
       0.319153         776.788         583.411 
       0.325316         764.655         562.953 
        0.33145         749.256         545.317 
       0.337538         723.457          529.56 
       0.343633         704.137          514.55 
       0.349808         688.453         499.335 
       0.355968         676.063         483.654 
       0.362074         655.323         467.641 
       0.368217         651.941          451.31 
       0.374374         640.379         435.261 
       0.380519          616.12         420.039 
       0.386598         610.079         406.116 
       0.392688         597.459         393.479 
        0.39888          581.77         381.839 
       0.405048         572.535         371.249 
       0.411186         569.985         361.346 
       0.417313         564.164         351.748 
       0.423458         547.373         342.212 
       0.429607         533.422         332.631 
       0.435692          525.79          323.13 
       0.441815         517.477         313.698 
       0.447964         507.463         304.502 
       0.454126         501.241         295.706 
       0.460267         493.524         287.478 
       0.466387         486.173         279.831 
        0.47254         478.833         272.623 
       0.478662         468.801         265.856 
       0.484765         464.317         259.398 
       0.490885         459.455         253.098 
       0.497035         450.955         246.859 
       0.503198         450.199           240.7 
       0.509342         439.372         234.661 
       0.515458         432.779         228.777 
       0.521598         426.261         223.047 
       0.527764         419.725         217.526 
       0.533884         418.287         212.309 
           0.54         412.187         207.339 
       0.546137         403.929         202.569 
       0.552299         403.274         197.975 
       0.558452         396.999          193.55 
       0.564573          392.85         189.269 
       0.570708          388.19         185.068 
       0.576825         381.333         180.961 
       0.582926         378.499         176.958 
       0.589034         373.408         173.057 
       0.595184         370.875         169.251 
       0.601379          364.72         165.543 
       0.607522         358.635         161.993 
       0.613639         356.892         158.581 
       0.619772         355.227         155.284 
       0.625918         349.851         152.091 
       0.632068         345.254         148.992 
       0.638161         342.279         146.001 
         0.6443         339.656         143.056 
       0.650464         334.751         140.168 
       0.656582         331.777          137.37 
       0.662703         329.536         134.646 
       0.668861         324.288         131.983 
       0.675024         322.628         129.397 
       0.681124         319.136         126.912 
       0.687237         316.319         124.492 
       0.693381         313.036         122.127 
       0.699536         309.916         119.821 
       0.705665         306.936         117.587 
       0.711789         305.048         115.411 
       0.717957         301.109         113.276 
        0.72409         298.304         111.207 
       0.730186          299.73         109.201 
       0.736317         294.237         107.232 
       0.742472         290.915         105.303 
       0.748622         287.564         103.424 
        0.75476         287.837         101.594 
       0.760888         284.373         99.8123 
       0.767043         281.362         98.0674 
       0.773185         279.865         96.3695 
       0.779291         275.501          94.723 
       0.785407         274.746         93.1138 
       0.791564         271.878         91.5327 
       0.797719         267.939         89.9897 
       0.803834         269.835         88.4924 
       0.809972         266.555         87.0238 
       0.816124         263.123         85.5851 
       0.822261         260.545         84.1827 
       0.828378         260.685         82.8159 
       0.834502         256.535         81.4784 
       0.840667         256.417         80.1619 
       0.846816         252.541         78.8784 
       0.852925         251.684         77.6315 
       0.859047         249.087         76.4092 
       0.865192         248.921         75.2096 
       0.871341         245.472         74.0354 
       0.877463         243.355         72.8918 
       0.883569         242.949         71.7756 
       0.889708         240.728         70.6773 
       0.895864         238.841         69.5994 
       0.902008         236.737         68.5465 
       0.908149         234.707         67.5163 
       0.914301         233.738         66.5057 
       0.920448         232.607         65.5169 
       0.926574         230.374         64.5519 
       0.932687         229.099         63.6085 
       0.938823         227.337         62.6808 
       0.944975         225.879         61.7696 
       0.951105         223.811           60.88 
       0.957225         222.501         60.0095 
       0.963368         221.444         59.1533 
       0.969511          218.24         58.3139 
       0.975621          217.27         57.4954 
       0.981748         215.911         56.6906 
       0.987916         214.954         55.8963 
        0.99406         213.191         55.1204 
        1.00019         211.923         54.3608 
        1.00632         211.076         53.6164 
        1.01246         209.439         52.8849 
        1.01859         207.449         52.1683 
        1.02471         205.894          51.466 
        1.03085         205.035         50.7743 
        1.03698          203.41         50.0969 
        1.04314         203.052         49.4291 
        1.04929         201.748          48.775 
        1.05541         200.126         48.1356 
        1.06154          198.72         47.5061 
        1.06769          197.04          46.887 
        1.07382         196.675          46.281 
        1.07993         194.762         45.6872 
        1.08607         193.298         45.1015 
        1.09222         192.384         44.5255 
        1.09836         191.367         43.9603 
        1.10449         189.541         43.4057 
        1.11063         188.561         42.8601 
        1.11677         187.762         42.3241 
         1.1229         186.199         41.7982 
        1.12903         185.535          41.281 
        1.13518         184.164         40.7721 
        1.14131         183.152         40.2721 
        1.14745         181.639         39.7808 
        1.15359         179.926         39.2978 
        1.15973         179.611         38.8225 
        1.16584         178.782         38.3574 
        1.17197         177.597         37.8992 
        1.17811         175.914         37.4472 
        1.18424         175.192         37.0039 
        1.19038         174.087         36.5666 
        1.19652         172.717         36.1365 
        1.20267         171.933         35.7135 
        1.20881         170.681         35.2973 
        1.21495         170.327         34.8884 
        1.22108         168.949         34.4861 
         1.2272           167.7         34.0912 
        1.23334         167.135         33.7016 
        1.23949          166.55         33.3172 
        1.24562           165.2         32.9399 
        1.25174         163.901          32.569 
        1.25789         163.065         32.2027 
        1.26402         162.688         31.8428 
        1.27014         161.599         31.4893 
        1.27628         159.684         31.1401 
        1.28244         159.415         30.7955 
        1.28858         158.302         30.4567 
        1.29471          157.39         30.1237 
        1.30084         156.434         29.7961 
        1.30697         155.665         29.4728 
        1.31312         154.659         29.1539 
        1.31925         153.391         28.8408 
        1.32537         153.106         28.5326 
        1.33151         152.173         28.2279 
        1.33765         150.699         27.9277 
        1.34378         150.684         27.6326 
        1.34992         149.909         27.3416 
        1.35606         148.745         27.0541 
         1.3622         148.311         26.7713 
        1.36833         146.618         26.4932 
        1.37445         146.499         26.2193 
        1.38059         145.434         25.9484 
        1.38675         144.625         25.6807 
        1.39288         143.654         25.4179 
        1.39901         142.756         25.1589 
        1.40515         142.228         24.9029 
         1.4113          141.51         24.6506 
        1.41742         140.332         24.4028 
        1.42355         140.126          24.158 
         1.4297         138.899         23.9158 
        1.43585         138.089          23.677 
        1.44198         137.019         23.4424 
        1.44809         136.162         23.2115 
        1.45423         135.951         22.9828 
        1.46036         134.893         22.7576 
        1.46649         134.029         22.5354 
        1.47263         133.733          22.316 
        1.47877         132.508         22.0996 
        1.48491         131.893         21.8858 
        1.49104         130.467         21.6752 
        1.49718         130.612         21.4673 
        1.50333          129.89         21.2618 
        1.50947         129.104         21.0594 
         1.5156         128.323           20.86 
        1.52172         127.571         20.6631 
        1.52787         126.883         20.4685 
          1.534         126.317         20.2765 
        1.54013         125.618         20.0873 
        1.54627         124.678         19.9001 
        1.55241         124.173         19.7153 
        1.55855         123.474         19.5331 
        1.56467         122.514         19.3537 
         1.5708         121.938         19.1761 
        1.57695          121.49         19.0004 
        1.58308         120.704         18.8274 
        1.58922          120.53         18.6564 
        1.59535         119.891         18.4876 
         1.6015         118.689         18.3206 
        1.60764         117.977         18.1558 
        1.61376          117.44         17.9935 
        1.61989         116.941         17.8331 
        1.62604         116.201         17.6743 
        1.63218         115.802         17.5175 
        1.63831         114.899         17.3629 
        1.64444         114.229         17.2102 
        1.65059         113.499          17.059 
        1.65673         113.147         16.9098 
        1.66285          112.57         16.7627 
        1.66898         111.692         16.6174 
        1.67512         111.378         16.4736 
        1.68127         110.659         16.3313 
         1.6874         109.924          16.191 
        1.69353         109.218         16.0524 
        1.69967          108.96         15.9152 
        1.70581         108.465         15.7796 
        1.71193         107.721         15.6461 
        1.71806          107.02         15.5139 
        1.72421         106.483         15.3829 
        1.73035         106.127         15.2537 
        1.73649         105.379         15.1259 
        1.74262         104.831         14.9997 
        1.74876         104.164         14.8749 
        1.75489         103.728         14.7517 
        1.76101          103.06           14.63 
        1.76715         102.397         14.5095 
        1.77329         102.033         14.3903 
        1.77943         101.342         14.2723 
        1.78557         100.989         14.1558 
        1.79171          100.52         14.0406 
        1.79785          99.705         13.9266 
        1.80399         99.4057          13.814 
        1.81012         98.6646         13.7028 
        1.81625         98.2783         13.5928 
        1.82239         97.8911         13.4839 
        1.82853         97.2167         13.3762 
        1.83466         96.5214         13.2698 
        1.84078         96.1685         13.1647 
        1.84692         95.9114         13.0605 
        1.85306         95.2721         12.9574 
         1.8592         94.8855         12.8555 
        1.86533         94.2871         12.7548 
        1.87147          93.686         12.6551 
        1.87761         93.1404         12.5564 
        1.88375         92.5933         12.4588 
        1.88988         91.9719         12.3624 
        1.89601         91.7872          12.267 
        1.90215          91.111         12.1725 
        1.90829         90.6025         12.0791 
        1.91442         90.3117         11.9866 
        1.92056         89.8362         11.8952 
         1.9267         89.2793         11.8046 
        1.93284         88.9116          11.715 
        1.93897         88.5222         11.6264 
        1.94509         87.8506          11.539 
        1.95123          87.491         11.4522 
        1.95737         86.9638         11.3663 
        1.96349         86.5731         11.2814 
        1.96964          86.227         11.1972 
        1.97578         85.5589         11.1138 
        1.98192         85.0829         11.0315 
        1.98805         84.6587         10.9499 
        1.99419         84.2263         10.8692 
        2.00033         83.6519         10.7893 
        2.00647         83.4673         10.7102 
         2.0126         83.0057          10.632 
        2.01874         82.6819         10.5545 
        2.02488          82.171         10.4777 
        2.03101         81.7616         10.4018 
        2.03714         81.4348         10.3267 
        2.04328         80.9118         10.2523 
        2.04941         80.3164         10.1787 
        2.05554         80.1263         10.1059 
        2.06167         79.5742         10.0336 
        2.06781          79.089          9.9621 
        2.07396         78.8623         9.89118 
        2.08009         78.3996         9.82106 
        2.08622         78.0217         9.75171 
        2.09237         77.5991         9.68289 
        2.09851         77.0093         9.61473 
        2.10464         76.8479         9.54733 
        2.11077         76.4506         9.48067 
        2.11691         76.1339         9.41449 
        2.12305         75.5969         9.34895 
        2.12918         75.1809         9.28419 
        2.13531         74.9102         9.22004 
        2.14145         74.2987         9.15635 
         2.1476         74.0893         9.09318 
        2.15372         73.7386         9.03094 
        2.15985         73.2533         8.96921 
        2.16599         72.8897         8.90789 
        2.17213         72.5736         8.84721 
        2.17827         72.0448          8.7871 
         2.1844         71.7698         8.72762 
        2.19054         71.5029         8.66866 
        2.19666         71.0235         8.61034 
         2.2028         70.6919         8.55249 
        2.20893         70.2754         8.49516 
        2.21508         69.8804         8.43829 
        2.22122         69.4797         8.38192 
        2.22736         69.1821         8.32618 
        2.23349         68.9003         8.27096 
        2.23962         68.6525         8.21622 
        2.24577         68.0942         8.16193 
         2.2519         67.8215          8.1082 
        2.25802         67.4669         8.05504 
        2.26417         67.0517         8.00221 
        2.27031         66.7118         7.94981 
        2.27644         66.4954         7.89803 
        2.28257         66.1628         7.84672 
        2.28872         65.8568         7.79577 
        2.29486         65.5868         7.74528 
        2.30099         65.0187         7.69534 
        2.30712         64.8995         7.64582 
        2.31326         64.5567         7.59665 
         2.3194         64.1148         7.54795 
        2.32553         63.8839         7.49975 
        2.33166          63.426           7.452 
         2.3378         63.1662          7.4046 
        2.34394         62.8906          7.3576 
        2.35007         62.5789         7.31107 
        2.35619         62.2306         7.26501 
        2.36233         61.9027         7.21923 
        2.36848         61.5885         7.17375 
        2.37462         61.2326         7.12877 
        2.38075         60.9829         7.08421 
        2.38689          60.691         7.03999 
        2.39303         60.3878         6.99617 
        2.39916           60.16         6.95276 
        2.40529         59.7911         6.90972 
        2.41143         59.4974         6.86702 
        2.41757         59.1486         6.82466 
         2.4237         59.0411         6.78273 
        2.42983         58.5424         6.74117 
        2.43598         58.3328         6.69984 
        2.44211         57.9654         6.65893 
        2.44823         57.7117         6.61845 
        2.45437         57.4483         6.57819 
        2.46052          57.127         6.53824 
        2.46665         56.7791          6.4987 
        2.47279         56.5874         6.45949 
        2.47892         56.3496         6.42058 
        2.48507         56.0056         6.38196 
         2.4912         55.7639         6.34373 
