# k  (h/Mpc)    P(k)  (Mpc/h)^3    P_linear(k)  (Mpc/h)^3
     0.00783031         2023.49         2047.72 
       0.013688         2613.53         2615.51 
       0.019231         2696.26         2696.66 
      0.0249154         2496.35         2516.68 
      0.0312784         2179.86         2184.74 
      0.0375637         1860.97         1856.13 
      0.0433917         1606.44         1611.46 
      0.0492413         1438.06         1437.07 
      0.0555754         1304.67         1314.05 
      0.0619321         1236.34         1230.35 
       0.067871         1154.15         1161.27 
      0.0738098         1075.34         1083.17 
      0.0800417         974.279         985.226 
      0.0862327         872.455         877.513 
      0.0921407          776.26         776.642 
      0.0982031         684.209         686.492 
       0.104506         620.054         614.293 
       0.110769         569.977         565.059 
       0.116806         535.291         534.539 
       0.122832         516.725         513.712 
       0.129052         492.869         494.576 
       0.135211         469.905         471.947 
       0.141259         444.821         443.589 
       0.147318         413.745         410.071 
       0.153489          376.61         374.171 
       0.159709         345.101          340.46 
       0.165845          321.44         312.817 
       0.171974         298.095         292.078 
       0.178125         284.189         277.612 
       0.184229         274.605         267.674 
        0.19034         262.085          259.67 
       0.196428         256.381         251.349 
       0.202534         248.402         241.168 
       0.208729         234.538         228.602 
       0.214876         219.455         214.615 
       0.220989          208.68         200.512 
       0.227147         193.879         187.461 
        0.23329         183.658         176.528 
       0.239377         176.554         168.045 
       0.245482         167.505         161.598 
       0.251667          164.44         156.476 
       0.257832         159.524         151.921 
       0.263955         154.377         147.194 
       0.270079             149         141.843 
        0.27624         144.717         135.769 
       0.282372         138.317         129.313 
        0.28843         131.642          122.97 
       0.294538         125.732         117.034 
       0.300721         122.186         111.803 
        0.30691          116.66         107.426 
       0.313033         113.199         103.849 
       0.319153         108.364         100.767 
       0.325316         106.935         97.8853 
        0.33145          103.28         94.9834 
       0.337538         100.855          91.942 
       0.343633         97.2792         88.7093 
       0.349808         94.2134         85.3419 
       0.355968         91.3338         82.0297 
       0.362074         88.2046         78.9356 
       0.368217         85.5198         76.1196 
       0.374374         82.8649         73.6132 
       0.380519         80.8567         71.4063 
       0.386598         78.7585         69.4243 
       0.392688         77.2285         67.5468 
        0.39888         75.0928         65.6706 
       0.405048         73.3696          63.774 
       0.411186         71.6286         61.8561 
       0.417313         69.2798         59.9368 
       0.423458         67.5135         58.0461 
       0.429607         65.6576         56.2398 
       0.435692         63.5853         54.5729 
       0.441815         62.6221         53.0196 
       0.447964         61.5669         51.5816 
       0.454126         59.1181         50.2388 
       0.460267         58.1721          48.962 
       0.466387         56.6187         47.7209 
        0.47254         55.7693         46.4912 
       0.478662         54.8042         45.2774 
       0.484765         53.2352         44.0784 
       0.490885         52.0502         42.9038 
       0.497035         51.3446         41.7673 
       0.503198         49.9978         40.6824 
       0.509342         48.7274         39.6555 
       0.515458         47.7856         38.6886 
       0.521598          47.031         37.7677 
       0.527764         46.0987         36.8804 
       0.533884         45.3152         36.0251 
           0.54         44.3894         35.1883 
       0.546137          43.716         34.3663 
       0.552299         43.0278         33.5594 
       0.558452         41.7274         32.7735 
       0.564573         41.1151          32.014 
       0.570708         40.5054         31.2788 
       0.576825         39.5475         30.5749 
       0.582926          38.824         29.9026 
       0.589034         37.8365         29.2553 
       0.595184         37.3787         28.6254 
       0.601379         36.7451         28.0092 
       0.607522         36.0449         27.4136 
       0.613639         35.7506         26.8357 
       0.619772         34.8336         26.2713 
       0.625918         34.6562         25.7207 
       0.632068         34.0993         25.1848 
       0.638161         33.4153         24.6687 
         0.6443         32.7789         24.1641 
       0.650464         32.2224          23.673 
       0.656582         32.0262         23.2012 
       0.662703         31.4182         22.7439 
       0.668861         30.8687         22.2974 
       0.675024         30.3562         21.8629 
       0.681124          29.839         21.4441 
       0.687237         29.3542         21.0343 
       0.693381         29.1168         20.6324 
       0.699536         28.3955         20.2396 
       0.705665         28.3276         19.8586 
       0.711789          27.708         19.4879 
       0.717957          27.358         19.1248 
        0.72409         26.9639         18.7738 
       0.730186          26.599         18.4344 
       0.736317         26.3325          18.102 
       0.742472          25.886         17.7769 
       0.748622         25.6329         17.4602 
        0.75476         25.1799         17.1517 
       0.760888         24.8461          16.851 
       0.767043         24.5645         16.5561 
       0.773185         24.1296         16.2688 
       0.779291          24.015         15.9899 
       0.785407         23.7271         15.7172 
       0.791564         23.3003         15.4492 
       0.797719         22.8325         15.1878 
       0.803834         22.7961         14.9343 
       0.809972         22.5917         14.6859 
       0.816124         22.0662         14.4428 
       0.822261         21.8996          14.206 
       0.828378          21.673         13.9753 
       0.834502         21.4604         13.7496 
       0.840667         21.1831         13.5274 
       0.846816         20.8165         13.3109 
       0.852925         20.6351         13.1005 
       0.859047         20.4125         12.8942 
       0.865192         20.2245         12.6917 
       0.871341         20.0723         12.4935 
       0.877463         19.7133         12.3005 
       0.883569         19.4765         12.1121 
       0.889708         19.2067         11.9267 
       0.895864         19.0765         11.7447 
       0.902008         18.9306          11.567 
       0.908149          18.726         11.3932 
       0.914301         18.5952         11.2226 
       0.920448         18.2384         11.0558 
       0.926574         18.0983          10.893 
       0.932687         17.9161         10.7338 
       0.938823         17.6824         10.5774 
       0.944975         17.4952         10.4237 
       0.951105         17.3571         10.2736 
       0.957225         17.1958         10.1268 
       0.963368         17.0391         9.98241 
       0.969511         16.8966         9.84085 
       0.975621         16.7379         9.70284 
       0.981748         16.5268         9.56715 
       0.987916         16.4248         9.43323 
        0.99406         16.2078         9.30241 
        1.00019         15.9804         9.17435 
        1.00632         15.9566         9.04885 
        1.01246         15.7901         8.92554 
        1.01859          15.557         8.80476 
        1.02471         15.4964         8.68638 
        1.03085         15.3503         8.56979 
        1.03698          15.115         8.45561 
        1.04314          15.038         8.34305 
        1.04929         14.8503         8.23283 
        1.05541         14.7015         8.12506 
        1.06154         14.6062         8.01898 
        1.06769         14.5354         7.91466 
        1.07382         14.3399         7.81255 
        1.07993         14.2522          7.7125 
        1.08607         14.1071         7.61381 
        1.09222         14.0034         7.51676 
        1.09836         13.8413         7.42154 
        1.10449         13.7504          7.3281 
        1.11063         13.6125         7.23618 
        1.11677         13.5529         7.14588 
         1.1229          13.468          7.0573 
        1.12903         13.3028         6.97016 
        1.13518         13.1477         6.88444 
        1.14131         13.0833         6.80022 
        1.14745         12.9737         6.71748 
        1.15359           12.89         6.63611 
        1.15973         12.7825         6.55607 
        1.16584         12.5992         6.47772 
        1.17197         12.5471         6.40056 
        1.17811          12.473         6.32443 
        1.18424         12.3634         6.24977 
        1.19038         12.3132         6.17611 
        1.19652         12.1817         6.10368 
        1.20267         12.0618         6.03242 
        1.20881         12.0354         5.96233 
        1.21495         11.9408         5.89347 
        1.22108         11.8017         5.82572 
         1.2272         11.7242         5.75921 
        1.23334         11.6129         5.69359 
        1.23949         11.5225         5.62885 
        1.24562         11.4803         5.56531 
        1.25174         11.3985         5.50285 
        1.25789         11.3133         5.44116 
        1.26402         11.2624         5.38054 
        1.27014         11.1646           5.321 
        1.27628         11.0272         5.26219 
        1.28244          10.956         5.20417 
        1.28858         10.9465          5.1471 
        1.29471         10.8272         5.09102 
        1.30084         10.7257         5.03584 
        1.30697         10.7103         4.98141 
        1.31312         10.5595          4.9277 
        1.31925         10.4978         4.87497 
        1.32537         10.4479         4.82307 
        1.33151          10.389         4.77174 
        1.33765          10.302          4.7212 
        1.34378         10.2251          4.6715 
        1.34992         10.1524         4.62248 
        1.35606         10.0996         4.57407 
         1.3622         10.0409         4.52644 
        1.36833          9.9564         4.47962 
        1.37445         9.90615         4.43348 
        1.38059         9.86572         4.38786 
        1.38675         9.76954         4.34278 
        1.39288         9.72754         4.29852 
        1.39901          9.6277          4.2549 
        1.40515          9.5908          4.2118 
         1.4113         9.53165         4.16931 
        1.41742         9.46752         4.12758 
        1.42355         9.39274         4.08634 
         1.4297         9.33929         4.04555 
        1.43585          9.3048         4.00534 
        1.44198         9.26083         3.96583 
        1.44809         9.18412         3.92693 
        1.45423         9.11583         3.88842 
        1.46036         9.06398         3.85049 
        1.46649         9.01544         3.81306 
        1.47263         8.93681          3.7761 
        1.47877         8.89168         3.73966 
        1.48491         8.84455         3.70364 
        1.49104         8.79091         3.66817 
        1.49718          8.7476         3.63315 
        1.50333         8.69821         3.59853 
        1.50947         8.63521         3.56444 
         1.5156          8.5913         3.53084 
        1.52172         8.54759         3.49768 
        1.52787         8.48981         3.46488 
          1.534         8.43411         3.43255 
        1.54013         8.39828         3.40066 
        1.54627         8.32785         3.36913 
        1.55241         8.29426           3.338 
        1.55855         8.26051          3.3073 
        1.56467         8.19491         3.27708 
         1.5708         8.17484         3.24715 
        1.57695         8.09936         3.21756 
        1.58308         8.05268          3.1884 
        1.58922         8.03028         3.15959 
        1.59535         7.99459         3.13115 
         1.6015         7.92972         3.10302 
        1.60764         7.87505         3.07526 
        1.61376         7.85608         3.04791 
        1.61989         7.80858         3.02088 
        1.62604         7.76017         2.99411 
        1.63218         7.73933         2.96769 
        1.63831         7.69843         2.94166 
        1.64444         7.65527         2.91592 
        1.65059         7.57769         2.89044 
        1.65673         7.57565         2.86529 
        1.66285         7.50001         2.84051 
        1.66898         7.47581         2.81602 
        1.67512         7.44333         2.79178 
        1.68127         7.39835         2.76779 
         1.6874         7.37411         2.74415 
        1.69353          7.3186          2.7208 
        1.69967         7.28539         2.69766 
        1.70581         7.25148         2.67481 
        1.71193         7.20953         2.65231 
        1.71806         7.19133         2.63002 
        1.72421         7.13534         2.60795 
        1.73035         7.11987         2.58616 
        1.73649         7.08085         2.56462 
        1.74262         7.03283         2.54335 
        1.74876         7.01192          2.5223 
        1.75489         6.98363         2.50154 
        1.76101         6.92593         2.48102 
        1.76715         6.90853         2.46071 
        1.77329         6.86882          2.4406 
        1.77943         6.82305          2.4207 
        1.78557         6.81404         2.40106 
        1.79171         6.77105         2.38164 
        1.79785         6.73372         2.36243 
        1.80399         6.69383         2.34343 
        1.81012         6.67384         2.32467 
        1.81625         6.63505         2.30613 
        1.82239         6.61333         2.28776 
        1.82853         6.57546         2.26961 
        1.83466          6.5481         2.25166 
        1.84078         6.51582         2.23394 
        1.84692         6.50565         2.21637 
        1.85306         6.45305         2.19898 
         1.8592         6.41863          2.1818 
        1.86533         6.39644         2.16481 
        1.87147         6.37075         2.14799 
        1.87761          6.3401         2.13134 
        1.88375          6.3068         2.11489 
        1.88988         6.28363         2.09863 
        1.89601         6.25763         2.08253 
        1.90215         6.23104         2.06659 
        1.90829         6.19555         2.05083 
        1.91442         6.17181         2.03523 
        1.92056         6.14373         2.01981 
         1.9267          6.1095         2.00453 
        1.93284         6.08595          1.9894 
        1.93897         6.05571         1.97446 
        1.94509         6.03333         1.95971 
        1.95123         6.00341         1.94507 
        1.95737         5.97012         1.93056 
        1.96349         5.95446         1.91625 
        1.96964         5.93048         1.90204 
        1.97578         5.89303         1.88797 
        1.98192         5.87845         1.87407 
        1.98805         5.85545         1.86031 
        1.99419         5.82793         1.84669 
        2.00033         5.81323          1.8332 
        2.00647         5.77932         1.81984 
         2.0126         5.76156         1.80665 
        2.01874         5.72583         1.79357 
        2.02488         5.71263          1.7806 
        2.03101          5.6727         1.76779 
        2.03714         5.65066         1.75512 
        2.04328         5.62855         1.74255 
        2.04941         5.59944         1.73013 
        2.05554         5.58065         1.71783 
        2.06167           5.562         1.70564 
        2.06781         5.53774         1.69356 
        2.07396         5.52537         1.68159 
        2.08009         5.49653         1.66975 
        2.08622         5.46723         1.65804 
        2.09237         5.45526         1.64642 
        2.09851         5.43347         1.63491 
        2.10464         5.40882         1.62353 
        2.11077         5.37605         1.61227 
        2.11691         5.35964         1.60109 
        2.12305         5.34377         1.59003 
        2.12918         5.33019         1.57909 
        2.13531         5.30265         1.56825 
        2.14145         5.28411          1.5575 
         2.1476         5.25271         1.54683 
        2.15372         5.23677         1.53632 
        2.15985         5.23151         1.52589 
        2.16599         5.19172         1.51553 
        2.17213         5.18028         1.50528 
        2.17827         5.16582         1.49513 
         2.1844         5.13711         1.48508 
        2.19054          5.1167         1.47512 
        2.19666         5.09483         1.46527 
         2.2028         5.07683         1.45549 
        2.20893         5.06368         1.44581 
        2.21508         5.03634          1.4362 
        2.22122         5.01696         1.42667 
        2.22736         5.00125         1.41726 
        2.23349         4.99484         1.40793 
        2.23962          4.9677         1.39867 
        2.24577         4.94365          1.3895 
         2.2519         4.93716         1.38042 
        2.25802         4.90689         1.37144 
        2.26417         4.89133         1.36251 
        2.27031         4.87187         1.35365 
        2.27644         4.85158          1.3449 
        2.28257          4.8353         1.33623 
        2.28872         4.82358         1.32762 
        2.29486         4.80112         1.31908 
        2.30099         4.78242         1.31064 
        2.30712         4.76535         1.30227 
        2.31326         4.73948         1.29396 
         2.3194         4.73215         1.28572 
        2.32553         4.71457         1.27758 
        2.33166         4.70309          1.2695 
         2.3378         4.68088         1.26149 
        2.34394         4.66527         1.25354 
        2.35007         4.64104         1.24568 
        2.35619         4.63489         1.23789 
        2.36233         4.61783         1.23015 
        2.36848         4.59451         1.22246 
        2.37462         4.58755         1.21485 
        2.38075         4.56922         1.20731 
        2.38689         4.55297         1.19984 
        2.39303         4.53403         1.19242 
        2.39916         4.51908         1.18508 
        2.40529         4.50271          1.1778 
        2.41143         4.48909         1.17058 
        2.41757         4.47974         1.16341 
         2.4237         4.46332         1.15632 
        2.42983         4.43021         1.14929 
        2.43598         4.42875          1.1423 
        2.44211         4.40659         1.13538 
        2.44823         4.39656         1.12853 
        2.45437         4.37565         1.12172 
        2.46052         4.36606         1.11496 
        2.46665         4.35394         1.10827 
        2.47279         4.33504         1.10164 
        2.47892         4.32078         1.09505 
        2.48507          4.3087         1.08852 
         2.4912         4.28761         1.08205 
