# k  (h/Mpc)    P(k)  (Mpc/h)^3    P_linear(k)  (Mpc/h)^3
     0.00783031         9994.95           10141 
       0.013688         13017.6         12944.2 
       0.019231         13350.1         13341.3 
      0.0249154         12223.8         12448.3 
      0.0312784         10703.7         10804.9 
      0.0375637         9177.96         9178.79 
      0.0433917         7851.74          7968.4 
      0.0492413         7064.71         7105.72 
      0.0555754         6331.63         6497.19 
      0.0619321          6088.3         6083.16 
       0.067871         5601.82          5741.5 
      0.0738098         5218.61         5355.26 
      0.0800417         4700.22         4870.95 
      0.0862327         4237.82         4338.36 
      0.0921407         3814.35         3839.62 
      0.0982031         3363.53          3393.9 
       0.104506         3101.58         3036.94 
       0.110769         2853.68         2793.52 
       0.116806         2682.54         2642.62 
       0.122832         2580.91         2539.65 
       0.129052         2429.53         2445.03 
       0.135211         2319.97         2333.15 
       0.141259         2216.61         2192.95 
       0.147318         2076.25         2027.25 
       0.153489         1891.25         1849.77 
       0.159709         1765.78         1683.11 
       0.165845         1674.96         1546.45 
       0.171974         1569.29         1443.92 
       0.178125         1494.49          1372.4 
       0.184229         1439.54         1323.27 
        0.19034         1359.76          1283.7 
       0.196428         1340.93         1242.56 
       0.202534         1298.09         1192.23 
       0.208729         1233.93         1130.11 
       0.214876         1169.59         1060.96 
       0.220989         1126.26          991.24 
       0.227147         1065.94         926.723 
        0.23329         1020.29         872.673 
       0.239377         998.507         830.737 
       0.245482         934.605         798.864 
       0.251667         928.785         773.546 
       0.257832         896.172         751.025 
       0.263955         868.395          727.66 
       0.270079         838.072         701.204 
        0.27624         828.134         671.175 
       0.282372         792.656         639.261 
        0.28843         776.103         607.903 
       0.294538         737.156          578.56 
       0.300721         733.004         552.698 
        0.30691          700.38          531.06 
       0.313033         686.947         513.377 
       0.319153         668.633         498.142 
       0.325316         649.009         483.897 
        0.33145         631.693         469.551 
       0.337538         623.162         454.516 
       0.343633         604.497         438.535 
       0.349808         584.256         421.888 
       0.355968         579.591         405.514 
       0.362074         569.547         390.218 
       0.368217         553.708         376.297 
       0.374374           531.1         363.907 
       0.380519         528.242         352.997 
       0.386598         515.139         343.199 
       0.392688         512.523         333.917 
        0.39888         497.742         324.642 
       0.405048         488.184         315.266 
       0.411186         479.719         305.785 
       0.417313         470.869         296.297 
       0.423458         462.322         286.951 
       0.429607         453.733         278.021 
       0.435692         443.163          269.78 
       0.441815         439.878         262.102 
       0.447964         430.737         254.993 
       0.454126          419.34         248.355 
       0.460267         413.096         242.043 
       0.466387          408.52         235.908 
        0.47254         400.461         229.829 
       0.478662         399.409         223.828 
       0.484765         386.795         217.901 
       0.490885         382.868         212.094 
       0.497035         376.171         206.476 
       0.503198         370.102         201.113 
       0.509342          367.22         196.037 
       0.515458         363.242         191.256 
       0.521598         355.604         186.704 
       0.527764         349.482         182.317 
       0.533884         346.997          178.09 
           0.54         342.251         173.953 
       0.546137         340.816         169.889 
       0.552299         333.845           165.9 
       0.558452         331.564         162.015 
       0.564573         326.401         158.261 
       0.570708         320.818         154.626 
       0.576825          315.41         151.146 
       0.582926         313.015         147.823 
       0.589034         309.955         144.623 
       0.595184         306.895         141.509 
       0.601379         303.488         138.463 
       0.607522         298.396         135.519 
       0.613639         297.064         132.662 
       0.619772         290.096         129.872 
       0.625918         289.035          127.15 
       0.632068         284.736           124.5 
       0.638161         283.603         121.949 
         0.6443         278.789         119.454 
       0.650464         276.228         117.027 
       0.656582         274.676         114.694 
       0.662703         272.719         112.434 
       0.668861         267.886         110.227 
       0.675024          264.96         108.079 
       0.681124         263.879         106.008 
       0.687237         260.608         103.983 
       0.693381         256.809         101.996 
       0.699536         254.717         100.054 
       0.705665         253.103         98.1703 
       0.711789         250.218          96.338 
       0.717957         248.805         94.5429 
        0.72409         246.102         92.8077 
       0.730186         243.194         91.1299 
       0.736317         240.801         89.4868 
       0.742472         239.633         87.8796 
       0.748622         237.599         86.3138 
        0.75476         235.664         84.7891 
       0.760888         232.503         83.3023 
       0.767043          232.38         81.8445 
       0.773185         229.479         80.4242 
       0.779291         225.504         79.0455 
       0.785407         225.051         77.6973 
       0.791564          222.78         76.3727 
       0.797719         220.243         75.0806 
       0.803834         219.036         73.8275 
       0.809972         217.403         72.5995 
       0.816124         217.315         71.3976 
       0.822261         214.153         70.2267 
       0.828378         212.461         69.0862 
       0.834502         212.116         67.9705 
       0.840667           208.8         66.8725 
       0.846816          207.49          65.802 
       0.852925         206.513         64.7618 
       0.859047         204.529         63.7421 
       0.865192         202.746         62.7412 
       0.871341         200.914         61.7613 
       0.877463         199.614         60.8071 
       0.883569         198.624         59.8756 
       0.889708         196.763         58.9591 
       0.895864         194.361         58.0597 
       0.902008         193.762         57.1812 
       0.908149         192.942         56.3217 
       0.914301         190.644         55.4787 
       0.920448         189.247          54.654 
       0.926574         188.255         53.8491 
       0.932687         187.826         53.0624 
       0.938823           185.5         52.2888 
       0.944975         183.929          51.529 
       0.951105         183.208         50.7873 
       0.957225         181.325         50.0615 
       0.963368         179.325         49.3477 
       0.969511         178.744         48.6479 
       0.975621         177.509         47.9657 
       0.981748          177.21         47.2949 
       0.987916         175.077         46.6329 
        0.99406         173.786         45.9861 
        1.00019         173.611         45.3531 
        1.00632         171.906         44.7327 
        1.01246         170.814         44.1231 
        1.01859         169.955          43.526 
        1.02471          168.45         42.9408 
        1.03085         166.686         42.3645 
        1.03698         165.996            41.8 
        1.04314         164.668         41.2436 
        1.04929         163.496         40.6987 
        1.05541         163.083          40.166 
        1.06154         161.789         39.6416 
        1.06769         161.632         39.1258 
        1.07382         160.236         38.6211 
        1.07993         158.848         38.1265 
        1.08607         157.965         37.6386 
        1.09222         157.266         37.1589 
        1.09836         155.885         36.6881 
        1.10449         154.512         36.2262 
        1.11063         153.425         35.7718 
        1.11677         153.186         35.3254 
         1.1229          151.64         34.8875 
        1.12903         150.926         34.4568 
        1.13518         150.608          34.033 
        1.14131         148.992         33.6167 
        1.14745         148.536         33.2076 
        1.15359         147.429         32.8054 
        1.15973         146.951         32.4097 
        1.16584         145.381         32.0224 
        1.17197         144.797         31.6409 
        1.17811         143.981         31.2646 
        1.18424         143.218         30.8955 
        1.19038         142.764         30.5314 
        1.19652         141.698         30.1733 
        1.20267         140.796         29.8211 
        1.20881         139.662         29.4746 
        1.21495         139.103         29.1342 
        1.22108         138.416         28.7993 
         1.2272         137.149         28.4705 
        1.23334         136.568         28.1461 
        1.23949         135.361          27.826 
        1.24562         134.886         27.5119 
        1.25174         133.537         27.2031 
        1.25789         133.066         26.8982 
        1.26402         132.389         26.5985 
        1.27014         131.529         26.3042 
        1.27628         130.905         26.0135 
        1.28244         130.339         25.7266 
        1.28858         129.757         25.4445 
        1.29471         128.308         25.1673 
        1.30084         127.927         24.8945 
        1.30697         127.111         24.6254 
        1.31312         126.743         24.3599 
        1.31925         125.607         24.0992 
        1.32537         125.101         23.8426 
        1.33151         123.869         23.5889 
        1.33765         123.581         23.3391 
        1.34378         122.758         23.0934 
        1.34992         122.534         22.8511 
        1.35606         121.674         22.6117 
         1.3622          120.73         22.3763 
        1.36833         120.153         22.1448 
        1.37445         119.327         21.9168 
        1.38059          118.93         21.6912 
        1.38675         118.023         21.4684 
        1.39288         117.637         21.2496 
        1.39901         117.164          21.034 
        1.40515          116.28         20.8209 
         1.4113         115.297         20.6108 
        1.41742         115.122         20.4045 
        1.42355          114.26         20.2007 
         1.4297         113.644          19.999 
        1.43585         112.715         19.8002 
        1.44198         112.519         19.6049 
        1.44809         111.682         19.4126 
        1.45423         110.944         19.2222 
        1.46036         110.704         19.0347 
        1.46649          109.96         18.8497 
        1.47263         109.368          18.667 
        1.47877         108.984         18.4868 
        1.48491         107.922         18.3088 
        1.49104         107.667         18.1335 
        1.49718         106.785         17.9603 
        1.50333         106.374         17.7892 
        1.50947         105.849         17.6206 
         1.5156         105.249         17.4546 
        1.52172         104.575         17.2906 
        1.52787         104.208         17.1285 
          1.534         103.523         16.9687 
        1.54013          102.87          16.811 
        1.54627         102.462         16.6552 
        1.55241         101.784         16.5013 
        1.55855         101.432         16.3495 
        1.56467         100.933         16.2001 
         1.5708         100.201         16.0522 
        1.57695         100.027         15.9059 
        1.58308         99.0074         15.7617 
        1.58922         98.9462         15.6193 
        1.59535         98.3021         15.4787 
         1.6015          97.732         15.3397 
        1.60764         97.1733         15.2024 
        1.61376         96.9643         15.0672 
        1.61989         96.1996         14.9336 
        1.62604         95.8584         14.8013 
        1.63218         95.3681         14.6707 
        1.63831         94.5701          14.542 
        1.64444         94.2784         14.4147 
        1.65059         93.6901         14.2888 
        1.65673         92.9354         14.1644 
        1.66285         92.8055          14.042 
        1.66898         92.1391         13.9209 
        1.67512         91.6989          13.801 
        1.68127         91.2059         13.6825 
         1.6874         90.7291         13.5656 
        1.69353         90.2232         13.4501 
        1.69967         89.7283         13.3358 
        1.70581         89.4482         13.2228 
        1.71193         89.1076         13.1116 
        1.71806         88.3499         13.0014 
        1.72421         87.9408         12.8923 
        1.73035         87.4873         12.7846 
        1.73649         87.0299         12.6781 
        1.74262         86.5866         12.5729 
        1.74876         86.2304         12.4689 
        1.75489         85.5117         12.3663 
        1.76101         85.2909         12.2648 
        1.76715         84.7289         12.1644 
        1.77329         84.4467          12.065 
        1.77943         83.7987         11.9666 
        1.78557         83.6301         11.8696 
        1.79171         83.0086         11.7735 
        1.79785         82.6653         11.6786 
        1.80399         82.3045         11.5847 
        1.81012         81.9514         11.4919 
        1.81625         81.3584         11.4003 
        1.82239          81.044         11.3095 
        1.82853         80.7726         11.2197 
        1.83466         80.1722          11.131 
        1.84078         79.9939         11.0434 
        1.84692         79.3062         10.9565 
        1.85306          78.907         10.8706 
         1.8592         78.4643         10.7856 
        1.86533         78.1463         10.7017 
        1.87147         77.5925         10.6185 
        1.87761         77.3527         10.5362 
        1.88375         76.9442         10.4549 
        1.88988          76.588         10.3745 
        1.89601         76.0956         10.2949 
        1.90215         75.8057         10.2161 
        1.90829         75.4898         10.1382 
        1.91442         75.0533         10.0611 
        1.92056         74.4495         9.98483 
         1.9267         74.3121         9.90931 
        1.93284         73.7576         9.83452 
        1.93897         73.3659         9.76066 
        1.94509          73.052         9.68772 
        1.95123         72.6779         9.61534 
        1.95737         72.4819         9.54366 
        1.96349         71.8851          9.4729 
        1.96964         71.6134         9.40265 
        1.97578          71.359         9.33309 
        1.98192         70.8995         9.26438 
        1.98805         70.6332         9.19635 
        1.99419         70.1005         9.12901 
        2.00033         69.8626         9.06232 
        2.00647         69.5613         8.99632 
         2.0126         69.0136         8.93109 
        2.01874         68.6974         8.86641 
        2.02488          68.468         8.80232 
        2.03101         68.1856         8.73899 
        2.03714         67.6912         8.67634 
        2.04328          67.498         8.61424 
        2.04941         67.0415          8.5528 
        2.05554         66.7815         8.49201 
        2.06167         66.4079         8.43174 
        2.06781         66.0731         8.37204 
        2.07396         65.7338         8.31284 
        2.08009         65.4688         8.25432 
        2.08622         65.1794         8.19643 
        2.09237          64.734         8.13898 
        2.09851          64.581         8.08209 
        2.10464         64.1259         8.02583 
        2.11077         63.7514         7.97018 
        2.11691         63.4765         7.91493 
        2.12305         63.2049         7.86021 
        2.12918         62.8925         7.80615 
        2.13531         62.5188         7.75259 
        2.14145         62.2133         7.69941 
         2.1476         61.9969         7.64668 
        2.15372         61.6505          7.5947 
        2.15985         61.2972         7.54316 
        2.16599          61.011         7.49195 
        2.17213         60.7584         7.44128 
        2.17827         60.4176         7.39109 
         2.1844         60.0612         7.34142 
        2.19054         59.7631         7.29218 
        2.19666         59.4958         7.24347 
         2.2028         59.3973         7.19516 
        2.20893         59.0434         7.14727 
        2.21508         58.6325         7.09977 
        2.22122         58.4541         7.05269 
        2.22736         58.1571         7.00613 
        2.23349         57.8842         6.96001 
        2.23962         57.4816         6.91428 
        2.24577         57.1703         6.86892 
         2.2519         56.8832         6.82404 
        2.25802         56.7401         6.77963 
        2.26417         56.3437         6.73549 
        2.27031          56.152         6.69171 
        2.27644         55.8746         6.64845 
        2.28257          55.547         6.60558 
        2.28872         55.2771           6.563 
        2.29486         55.0893         6.52081 
        2.30099         54.7822         6.47908 
        2.30712         54.5563          6.4377 
        2.31326         54.1974         6.39661 
         2.3194         53.9796         6.35591 
        2.32553         53.6494         6.31563 
        2.33166         53.4055         6.27572 
         2.3378           53.16         6.23611 
        2.34394         52.7833         6.19682 
        2.35007         52.5328         6.15793 
        2.35619         52.3822         6.11943 
        2.36233         52.2498         6.08116 
        2.36848         51.8613         6.04315 
        2.37462           51.61         6.00554 
        2.38075         51.3834         5.96829 
        2.38689         51.1602         5.93132 
        2.39303         50.9239         5.89468 
        2.39916         50.7387         5.85839 
        2.40529         50.4654          5.8224 
        2.41143         50.2052          5.7867 
        2.41757         49.9003         5.75128 
         2.4237         49.7411         5.71622 
        2.42983         49.4529         5.68146 
        2.43598         49.1771          5.6469 
        2.44211         49.0039         5.61268 
        2.44823         48.7357         5.57883 
        2.45437         48.5067         5.54516 
        2.46052         48.1654         5.51175 
        2.46665         48.0055         5.47867 
        2.47279         47.8222         5.44588 
        2.47892         47.6404         5.41333 
        2.48507         47.3336         5.38103 
         2.4912         47.1944         5.34904 
