#  k  (h/Mpc)          P(k)  (Mpc/h)^3     P_linear(k) (Mpc/h)^3
     0.00783031          8745.1         8796.19 
       0.013688           10393         10608.9 
       0.019231           10376         10490.5 
      0.0249154         9462.12          9431.9 
      0.0312784         7857.86         7891.76 
      0.0375637         6445.13         6505.84 
      0.0433917         5535.88         5532.89 
      0.0492413         4843.77          4868.6 
      0.0555754         4425.07         4414.33 
      0.0619321         4015.88         4106.52 
       0.067871         3809.04         3846.18 
      0.0738098         3532.98          3548.3 
      0.0800417         3181.24         3179.92 
      0.0862327         2781.43         2786.64 
      0.0921407         2443.93         2431.38 
      0.0982031         2170.83         2126.25 
       0.104506         1911.93         1892.53 
       0.110769         1768.84         1740.55 
       0.116806         1699.23         1649.55 
       0.122832         1612.26         1586.05 
       0.129052         1545.23         1521.87 
       0.135211         1484.96            1441 
       0.141259         1368.38         1339.75 
       0.147318         1245.59          1223.7 
       0.153489         1143.73         1104.62 
       0.159709         1064.67          998.14 
       0.165845         963.189         915.269 
       0.171974         932.746         856.304 
       0.178125         894.012         816.874 
       0.184229         840.282         789.544 
        0.19034         825.351         765.298 
       0.196428         798.644         737.287 
       0.202534          743.56         701.866 
       0.208729         722.657         659.019 
       0.214876         684.165         613.341 
       0.220989         633.077         569.572 
       0.227147         611.707         531.172 
        0.23329         584.257         500.609 
       0.239377         572.001         477.868 
       0.245482         543.458         460.804 
       0.251667         523.076         446.594 
       0.257832         517.361         432.743 
       0.263955         489.128         417.352 
       0.270079         470.155         399.599 
        0.27624         449.106          379.93 
       0.282372         436.203         359.864 
        0.28843         430.283         341.056 
       0.294538          407.12         324.279 
       0.300721         392.858         310.054 
        0.30691         385.948         298.456 
       0.313033         368.379          288.86 
       0.319153         362.312         280.246 
       0.325316         353.896         271.659 
        0.33145         344.517         262.663 
       0.337538         331.768         253.106 
       0.343633         321.251         243.142 
       0.349808         311.953         233.078 
       0.355968         304.992         223.545 
       0.362074         295.448         214.974 
       0.368217           291.7         207.344 
       0.374374         284.686         200.659 
       0.380519         272.933         194.676 
       0.386598          268.89         189.145 
       0.392688         261.508         183.731 
        0.39888         255.479         178.149 
       0.405048          249.93         172.492 
       0.411186         247.659         166.825 
       0.417313         242.609         161.258 
       0.423458         235.975         155.932 
       0.429607         229.741         150.967 
       0.435692         225.866         146.437 
       0.441815         221.116         142.257 
       0.447964         215.013         138.358 
       0.454126         211.722         134.638 
       0.460267         208.963         131.033 
       0.466387         204.212         127.495 
        0.47254         201.714         123.959 
       0.478662         195.674         120.478 
       0.484765         193.059         117.097 
       0.490885         189.957         113.841 
       0.497035         187.349         110.725 
       0.503198         185.101         107.772 
       0.509342         180.176         105.001 
       0.515458         177.608         102.386 
       0.521598          173.44         99.8637 
       0.527764         171.696         97.4033 
       0.533884         170.687         95.0183 
           0.54         166.638         92.6897 
       0.546137          162.84         90.4042 
       0.552299           161.1         88.1667 
       0.558452         158.281          86.003 
       0.564573         157.397         83.9338 
       0.570708         153.398         81.9501 
       0.576825         151.413         80.0563 
       0.582926         149.773         78.2389 
       0.589034         147.357         76.4788 
       0.595184         145.965         74.7588 
       0.601379         143.073         73.0751 
       0.607522         140.168         71.4512 
       0.613639         139.179          69.877 
       0.619772         137.378         68.3405 
       0.625918         136.289         66.8437 
       0.632068         133.117         65.3908 
       0.638161         131.912         63.9978 
         0.6443         130.948         62.6415 
       0.650464         128.302         61.3261 
       0.656582         127.562         60.0619 
       0.662703         126.177         58.8341 
       0.668861         123.544         57.6323 
       0.675024         123.523         56.4598 
       0.681124         121.454         55.3283 
       0.687237         119.832         54.2235 
       0.693381         118.513          53.143 
       0.699536         117.245         52.0906 
       0.705665         115.873         51.0729 
       0.711789         114.341         50.0854 
       0.717957         112.983          49.119 
        0.72409         111.877         48.1844 
       0.730186         111.632         47.2803 
       0.736317         109.835         46.3943 
       0.742472         108.155         45.5272 
       0.748622         106.525         44.6823 
        0.75476         106.796         43.8601 
       0.760888         105.612         43.0595 
       0.767043         103.598         42.2757 
       0.773185         102.441         41.5131 
       0.779291         101.327          40.774 
       0.785407         100.511         40.0523 
       0.791564         99.8393         39.3439 
       0.797719         98.3727         38.6534 
       0.803834         98.1274         37.9842 
       0.809972         97.2458         37.3286 
       0.816124         95.7597         36.6872 
       0.822261           94.83         36.0626 
       0.828378         94.5952         35.4544 
       0.834502         93.3301         34.8597 
       0.840667         92.7386         34.2748 
       0.846816         91.7808         33.7049 
       0.852925         90.7165         33.1515 
       0.859047         90.1873         32.6095 
       0.865192         89.2807         32.0778 
       0.871341          88.369         31.5577 
       0.877463         87.6259         31.0516 
       0.883569          87.518         30.5579 
       0.889708         86.6191         30.0725 
       0.895864         85.8798         29.5965 
       0.902008         84.9185         29.1318 
       0.908149         83.8565         28.6775 
       0.914301         83.7095         28.2321 
       0.920448         83.5129         27.7967 
       0.926574         81.7432         27.3721 
       0.932687         81.6449         26.9572 
       0.938823         81.0431         26.5495 
       0.944975         80.1175         26.1493 
       0.951105         79.3874         25.7589 
       0.957225         79.1899         25.3771 
       0.963368          78.339         25.0018 
       0.969511         77.8526         24.6341 
       0.975621         76.9881         24.2758 
       0.981748          76.456         23.9238 
       0.987916         75.8626         23.5765 
        0.99406         75.6327         23.2375 
        1.00019         74.6553         22.9058 
        1.00632         74.0892         22.5809 
        1.01246         73.7035         22.2618 
        1.01859         73.3724         21.9495 
        1.02471         72.7235         21.6435 
        1.03085         72.0433         21.3424 
        1.03698          71.567         21.0476 
        1.04314         71.0285         20.7572 
        1.04929         70.6557         20.4729 
        1.05541         70.1181         20.1951 
        1.06154         69.6552         19.9218 
        1.06769         69.1219         19.6532 
        1.07382         68.4611         19.3904 
        1.07993         68.2661         19.1331 
        1.08607         67.7081         18.8793 
        1.09222         67.4139         18.6299 
        1.09836         66.8023         18.3854 
        1.10449         66.4138         18.1455 
        1.11063         65.9547         17.9096 
        1.11677         65.5896         17.6781 
         1.1229         64.9684          17.451 
        1.12903         64.7343         17.2278 
        1.13518         64.3936         17.0082 
        1.14131         63.8246         16.7927 
        1.14745         63.5337          16.581 
        1.15359         62.7219         16.3729 
        1.15973         62.7042         16.1683 
        1.16584          62.254         15.9682 
        1.17197         61.7843         15.7712 
        1.17811          61.381         15.5768 
        1.18424         60.7486         15.3864 
        1.19038         60.6683         15.1986 
        1.19652         60.2977         15.0139 
        1.20267         59.8427         14.8324 
        1.20881          59.485         14.6539 
        1.21495         59.1235         14.4787 
        1.22108         59.0054         14.3063 
         1.2272         58.3441         14.1371 
        1.23334         58.1804         13.9703 
        1.23949         57.7468         13.8058 
        1.24562         57.3337         13.6444 
        1.25174         57.0702         13.4859 
        1.25789         56.8774         13.3293 
        1.26402         56.4561         13.1756 
        1.27014         56.2253         13.0246 
        1.27628         55.7062         12.8756 
        1.28244         55.6656         12.7286 
        1.28858         55.1863         12.5841 
        1.29471         54.7924         12.4422 
        1.30084         54.3066         12.3026 
        1.30697         54.3983         12.1649 
        1.31312         53.9603         12.0291 
        1.31925         53.5343         11.8959 
        1.32537         53.2826         11.7648 
        1.33151         53.0014         11.6352 
        1.33765          52.738         11.5076 
        1.34378         52.4038         11.3822 
        1.34992         52.1862         11.2586 
        1.35606         51.7622         11.1366 
         1.3622         51.6155         11.0166 
        1.36833         51.3009         10.8986 
        1.37445         50.8204         10.7825 
        1.38059         50.7272         10.6676 
        1.38675         50.2507         10.5542 
        1.39288         50.1944         10.4429 
        1.39901         49.7528         10.3332 
        1.40515         49.6026         10.2249 
         1.4113         49.4244         10.1182 
        1.41742         49.0519         10.0134 
        1.42355         48.8841         9.90985 
         1.4297         48.6126         9.80749 
        1.43585         48.3097         9.70662 
        1.44198         47.9922         9.60755 
        1.44809         47.6786         9.51005 
        1.45423          47.551         9.41355 
        1.46036         47.3083         9.31856 
        1.46649         47.0164         9.22485 
        1.47263         46.7793         9.13236 
        1.47877         46.5989         9.04117 
        1.48491         46.2922         8.95109 
        1.49104         45.9968         8.86242 
        1.49718         45.8449         8.77489 
        1.50333         45.6231         8.68841 
        1.50947         45.3719         8.60326 
         1.5156         45.2066         8.51939 
        1.52172         44.8453         8.43663 
        1.52787         44.6612          8.3548 
          1.534         44.3821         8.27416 
        1.54013         44.3778         8.19467 
        1.54627         43.9365         8.11607 
        1.55241         43.7699          8.0385 
        1.55855         43.5722         7.96204 
        1.56467         43.2137          7.8868 
         1.5708         43.2078         7.81231 
        1.57695         42.9301         7.73867 
        1.58308         42.6565         7.66615 
        1.58922          42.479         7.59451 
        1.59535         42.4002         7.52382 
         1.6015         42.2622         7.45392 
        1.60764         41.9261         7.38495 
        1.61376         41.7154         7.31704 
        1.61989         41.3945         7.24993 
        1.62604         41.2824         7.18352 
        1.63218         40.9744         7.11797 
        1.63831          40.922         7.05339 
        1.64444         40.7451          6.9896 
        1.65059          40.447         6.92644 
        1.65673         40.2665         6.86412 
        1.66285         40.1496         6.80275 
        1.66898         39.8482         6.74211 
        1.67512         39.6728         6.68209 
        1.68127         39.5492         6.62275 
         1.6874         39.3592         6.56426 
        1.69353         39.1824         6.50651 
        1.69967         39.0244         6.44932 
        1.70581         38.7378         6.39284 
        1.71193         38.5971         6.33725 
        1.71806         38.4411         6.28221 
        1.72421          38.256         6.22771 
        1.73035         38.0614         6.17392 
        1.73649         37.8141         6.12077 
        1.74262         37.5692         6.06829 
        1.74876         37.6604         6.01639 
        1.75489         37.3329         5.96521 
        1.76101         37.1997         5.91464 
        1.76715         37.0303         5.86458 
        1.77329          36.714         5.81504 
        1.77943         36.7476         5.76604 
        1.78557         36.5502         5.71769 
        1.79171         36.3311         5.66988 
        1.79785         36.2064         5.62261 
        1.80399         35.9831         5.57588 
        1.81012         35.8496         5.52975 
        1.81625         35.6191         5.48416 
        1.82239         35.4692         5.43902 
        1.82853         35.3485         5.39441 
        1.83466         35.1689         5.35034 
        1.84078         35.0169         5.30681 
        1.84692         34.8276         5.26369 
        1.85306         34.6485           5.221 
         1.8592         34.5122         5.17885 
        1.86533         34.3923         5.13718 
        1.87147         34.2226         5.09593 
        1.87761         34.0452         5.05511 
        1.88375         33.8993         5.01479 
        1.88988         33.7737         4.97495 
        1.89601         33.5898         4.93552 
        1.90215         33.4044         4.89649 
        1.90829         33.2967         4.85789 
        1.91442         33.1229         4.81971 
        1.92056         33.0132         4.78197 
         1.9267         32.9376          4.7446 
        1.93284         32.7404         4.70761 
        1.93897         32.6027         4.67108 
        1.94509         32.3931         4.63501 
        1.95123         32.3167         4.59923 
        1.95737         32.1537         4.56381 
        1.96349         32.0791         4.52885 
        1.96964          31.859         4.49416 
        1.97578         31.7006         4.45981 
        1.98192          31.546         4.42589 
        1.98805         31.4024         4.39232 
        1.99419          31.306          4.3591 
        2.00033         31.1614          4.3262 
        2.00647         31.0767         4.29365 
         2.0126         30.8687         4.26149 
        2.01874         30.7905         4.22961 
        2.02488         30.5706         4.19803 
        2.03101         30.4949         4.16683 
        2.03714         30.3592         4.13598 
        2.04328         30.2506          4.1054 
        2.04941         30.0588         4.07516 
        2.05554         29.9497         4.04524 
        2.06167         29.8275         4.01558 
        2.06781         29.6944         3.98621 
        2.07396         29.5483          3.9571 
        2.08009         29.4205         3.92832 
        2.08622         29.3204         3.89987 
        2.09237          29.179         3.87164 
        2.09851         29.0762         3.84369 
        2.10464         28.9461         3.81605 
        2.11077         28.8614         3.78872 
        2.11691         28.6336          3.7616 
        2.12305          28.519         3.73474 
        2.12918         28.4286         3.70821 
        2.13531         28.2807         3.68194 
        2.14145         28.2011         3.65586 
         2.1476         28.0786            3.63 
        2.15372         27.9881         3.60452 
        2.15985         27.7981         3.57925 
        2.16599         27.6538         3.55416 
        2.17213         27.5943         3.52934 
        2.17827         27.4799         3.50476 
         2.1844         27.3243         3.48043 
        2.19054          27.276         3.45632 
        2.19666         27.0965         3.43248 
         2.2028         26.9894         3.40884 
        2.20893         26.9311         3.38541 
        2.21508         26.8098         3.36218 
        2.22122         26.6931         3.33915 
        2.22736         26.5435         3.31639 
        2.23349         26.4721         3.29385 
        2.23962         26.3405          3.2715 
        2.24577         26.2346         3.24934 
         2.2519         26.0904         3.22742 
        2.25802         25.9732         3.20573 
        2.26417         25.8613         3.18418 
        2.27031         25.7676         3.16281 
        2.27644         25.7284          3.1417 
        2.28257         25.5721         3.12078 
        2.28872         25.4967         3.10001 
        2.29486         25.3718         3.07944 
        2.30099         25.2236         3.05909 
        2.30712         25.1611         3.03892 
        2.31326         25.0329          3.0189 
         2.3194         24.9296         2.99906 
        2.32553         24.8504         2.97944 
        2.33166         24.7393            2.96 
         2.3378         24.6156         2.94071 
        2.34394          24.539         2.92159 
        2.35007         24.4725         2.90266 
        2.35619         24.3689         2.88392 
        2.36233         24.2259          2.8653 
        2.36848         24.1538         2.84681 
        2.37462         24.0778         2.82852 
        2.38075         23.9265         2.81041 
        2.38689          23.827         2.79244 
        2.39303          23.774         2.77463 
        2.39916         23.6159           2.757 
        2.40529         23.5582         2.73952 
        2.41143         23.4409         2.72217 
        2.41757         23.3479         2.70497 
         2.4237          23.282         2.68795 
        2.42983         23.1231         2.67108 
        2.43598         23.0332         2.65431 
        2.44211         22.9594         2.63771 
        2.44823         22.8555         2.62129 
        2.45437         22.8304         2.60496 
        2.46052         22.6918         2.58876 
        2.46665         22.6085         2.57272 
        2.47279         22.4782         2.55683 
        2.47892         22.4155         2.54106 
        2.48507         22.3282         2.52541 
         2.4912         22.2542         2.50992 
