# k  (h/Mpc)    Pcb(k)  (Mpc/h)^3    Pcb_linear(k)  (Mpc/h)^3
     0.00783031         387.683         391.333 
       0.013688         437.429          441.18 
       0.019231         407.323         408.473 
      0.0249154           342.7         342.288 
      0.0312784         265.773         265.053 
      0.0375637          205.48         205.028 
      0.0433917         168.864         168.097 
      0.0492413         146.492         146.195 
      0.0555754         133.999         133.445 
      0.0619321         124.921         125.343 
       0.067871         117.217         117.215 
      0.0738098         106.305         106.302 
      0.0800417         92.3966         92.1855 
      0.0862327         77.7603         77.6193 
      0.0921407         65.6365         65.4462 
      0.0982031         56.4344         56.0799 
       0.104506         50.0249         49.9348 
       0.110769         46.8266         46.7379 
       0.116806         45.4216         45.2411 
       0.122832         44.0916         44.0778 
       0.129052         42.3205         42.2174 
       0.135211         39.4365         39.2735 
       0.141259         35.6064          35.514 
       0.147318         31.5305         31.4805 
       0.153489         27.9098         27.7616 
       0.159709         25.0535         24.8653 
       0.165845         23.0298          22.969 
       0.171974         22.0829         21.8789 
       0.178125         21.4218         21.2756 
       0.184229         20.8881         20.7988 
        0.19034         20.2951         20.1416 
       0.196428         19.2877         19.1578 
       0.202534          17.906         17.8678 
       0.208729         16.5494         16.4119 
       0.214876         15.2161          15.026 
       0.220989         13.9955         13.8654 
       0.227147         13.1866         12.9893 
        0.23329         12.5859         12.3922 
       0.239377          12.184         11.9928 
       0.245482         11.8598         11.6743 
       0.251667         11.4586         11.3321 
       0.257832           11.09         10.9054 
       0.263955         10.5211         10.3836 
       0.270079         9.94004          9.7989 
        0.27624         9.33204         9.20516 
       0.282372         8.79832         8.66551 
        0.28843         8.39662         8.21819 
       0.294538         8.02701         7.86108 
       0.300721         7.71146         7.58073 
        0.30691         7.51385          7.3486 
       0.313033         7.28649         7.13336 
       0.319153         7.09347         6.90479 
       0.325316         6.78117         6.65001 
        0.33145         6.49964         6.37364 
       0.337538         6.23047         6.09204 
       0.343633         5.97995         5.81949 
       0.349808         5.71453         5.56835 
       0.355968         5.49079         5.35048 
       0.362074         5.32461          5.1656 
       0.368217         5.15283          5.0043 
       0.374374         5.02235         4.85605 
       0.380519         4.85536         4.71218 
       0.386598         4.69713         4.56711 
       0.392688         4.53757         4.41658 
        0.39888         4.39564         4.26122 
       0.405048         4.24806          4.1082 
       0.411186         4.09841          3.9629 
       0.417313         3.96454         3.82906 
       0.423458           3.826         3.70667 
       0.429607         3.73433         3.59538 
       0.435692         3.63609         3.49391 
       0.441815         3.52564         3.39684 
       0.447964         3.41793         3.30151 
       0.454126         3.33516           3.207 
       0.460267         3.25129         3.11325 
       0.466387         3.15205          3.0208 
        0.47254          3.0672          2.9305 
       0.478662         2.97495         2.84487 
       0.484765         2.89663         2.76421 
       0.490885         2.81006         2.68808 
       0.497035         2.72857         2.61617 
       0.503198         2.67226         2.54793 
       0.509342         2.59527         2.48246 
       0.515458          2.5373         2.41891 
       0.521598         2.47612         2.35644 
       0.527764         2.42209         2.29517 
       0.533884         2.34489         2.23593 
           0.54         2.29462         2.17852 
       0.546137         2.23144         2.12298 
       0.552299         2.18022         2.06959 
       0.558452          2.1265          2.0188 
       0.564573         2.08012         1.97045 
       0.570708          2.0341         1.92378 
       0.576825         1.98862         1.87871 
       0.582926         1.93849         1.83498 
       0.589034         1.90149          1.7924 
       0.595184         1.86315         1.75075 
       0.601379         1.81578         1.71003 
       0.607522         1.77165         1.67086 
       0.613639         1.73103         1.63308 
       0.619772          1.7003         1.59643 
       0.625918         1.66304         1.56095 
       0.632068         1.62789         1.52668 
       0.638161         1.59354         1.49385 
         0.6443         1.55855         1.46181 
       0.650464         1.52779         1.43058 
       0.656582         1.50165         1.40043 
       0.662703         1.46892         1.37105 
       0.668861         1.43294         1.34228 
       0.675024         1.40577         1.31428 
       0.681124         1.39037         1.28737 
       0.687237         1.35663          1.2612 
       0.693381         1.32387         1.23568 
       0.699536         1.30606         1.21087 
       0.705665         1.28072         1.18688 
       0.711789         1.25139         1.16358 
       0.717957         1.22903         1.14075 
        0.72409         1.20639         1.11865 
       0.730186         1.19019         1.09724 
       0.736317           1.162         1.07627 
       0.742472         1.14497         1.05576 
       0.748622          1.1258          1.0358 
        0.75476         1.10036          1.0164 
       0.760888         1.08479        0.997533 
       0.767043          1.0561        0.979083 
       0.773185         1.04254        0.961148 
       0.779291         1.03031        0.943774 
       0.785407         1.00972        0.926811 
       0.791564        0.991025        0.910164 
       0.797719        0.973775        0.893938 
       0.803834        0.957675        0.878212 
       0.809972        0.941625        0.862808 
       0.816124        0.926661         0.84774 
       0.822261        0.911574        0.833072 
       0.828378        0.896228        0.818795 
       0.834502        0.880435        0.804842 
       0.840667        0.868724        0.791124 
       0.846816        0.853038        0.777766 
       0.852925        0.837878        0.764802 
       0.859047        0.825034        0.752108 
       0.865192         0.81281        0.739662 
       0.871341        0.801476        0.727491 
       0.877463        0.785423         0.71565 
       0.883569        0.774674        0.704105 
       0.889708        0.764723        0.692757 
       0.895864        0.752962        0.681631 
       0.902008        0.739219        0.670774 
       0.908149        0.729443        0.660161 
       0.914301        0.719597        0.649762 
       0.920448        0.709899        0.639598 
       0.926574        0.700592        0.629687 
       0.932687        0.689725        0.620009 
       0.938823        0.676073        0.610501 
       0.944975        0.668946        0.601171 
       0.951105        0.655549         0.59207 
       0.957225        0.648176        0.583175 
       0.963368         0.64004        0.574433 
       0.969511        0.631732        0.565871 
       0.975621         0.62104         0.55753 
       0.981748        0.610136        0.549336 
       0.987916        0.603208        0.541256 
        0.99406        0.596228         0.53337 
        1.00019        0.587249        0.525658 
        1.00632        0.581248        0.518105 
        1.01246        0.572789         0.51069 
        1.01859        0.565361        0.503433 
        1.02471        0.555742        0.496327 
        1.03085        0.547661        0.489333 
        1.03698        0.542389         0.48249 
        1.04314        0.534496        0.475749 
        1.04929        0.529466        0.469152 
        1.05541        0.519937        0.462708 
        1.06154        0.514518        0.456369 
        1.06769        0.508206         0.45014 
        1.07382         0.50133        0.444047 
        1.07993        0.494946        0.438082 
        1.08607         0.48902        0.432202 
        1.09222        0.482028        0.426424 
        1.09836        0.476781        0.420759 
        1.10449        0.469643        0.415204 
        1.11063        0.463663        0.409744 
        1.11677        0.459015        0.404383 
         1.1229        0.451795        0.399129 
        1.12903        0.447817        0.393963 
        1.13518        0.441732        0.388885 
        1.14131        0.437211        0.383899 
        1.14745        0.433041        0.379003 
        1.15359        0.426465        0.374193 
        1.15973        0.421909        0.369464 
        1.16584        0.416468        0.364839 
        1.17197        0.410819        0.360286 
        1.17811        0.405733        0.355797 
        1.18424        0.401446        0.351398 
        1.19038         0.39602        0.347061 
        1.19652        0.392684        0.342799 
        1.20267          0.3887        0.338609 
        1.20881        0.382301         0.33449 
        1.21495        0.378749        0.330446 
        1.22108        0.374883         0.32647 
         1.2272        0.369651        0.322569 
        1.23334        0.365964        0.318722 
        1.23949        0.362487         0.31493 
        1.24562        0.358216         0.31121 
        1.25174        0.354568        0.307556 
        1.25789        0.349332        0.303949 
        1.26402        0.346503        0.300407 
        1.27014        0.341537         0.29693 
        1.27628        0.338877        0.293498 
        1.28244        0.334933        0.290113 
        1.28858        0.330644        0.286787 
        1.29471          0.3275         0.28352 
        1.30084        0.324055        0.280307 
        1.30697        0.321477        0.277138 
        1.31312        0.317861        0.274015 
        1.31925        0.314202        0.270949 
        1.32537        0.310987        0.267934 
        1.33151        0.307586        0.264953 
        1.33765         0.30438         0.26202 
        1.34378        0.300831        0.259137 
        1.34992        0.298781        0.256296 
        1.35606        0.294797        0.253491 
         1.3622        0.292252        0.250733 
        1.36833        0.289753        0.248022 
        1.37445         0.28668        0.245354 
        1.38059        0.283759        0.242716 
        1.38675        0.280452        0.240111 
        1.39288        0.277202        0.237555 
        1.39901        0.275187        0.235037 
        1.40515        0.272204         0.23255 
         1.4113        0.270199          0.2301 
        1.41742        0.267363        0.227695 
        1.42355        0.263531         0.22532 
         1.4297        0.262163        0.222971 
        1.43585        0.258983        0.220657 
        1.44198        0.257127        0.218385 
        1.44809        0.254188        0.216149 
        1.45423        0.251909        0.213936 
        1.46036        0.249404        0.211758 
        1.46649        0.246987         0.20961 
        1.47263        0.244056         0.20749 
        1.47877        0.243265          0.2054 
        1.48491        0.239557        0.203336 
        1.49104        0.238668        0.201304 
        1.49718        0.235621        0.199299 
        1.50333        0.233707        0.197318 
        1.50947        0.231621        0.195367 
         1.5156        0.229446        0.193446 
        1.52172        0.227363        0.191551 
        1.52787        0.224636        0.189678 
          1.534        0.223231        0.187832 
        1.54013        0.221135        0.186012 
        1.54627        0.219442        0.184213 
        1.55241        0.217283        0.182438 
        1.55855        0.215259        0.180688 
        1.56467        0.213595        0.178967 
         1.5708         0.21144        0.177263 
        1.57695        0.209559        0.175578 
        1.58308        0.207129         0.17392 
        1.58922        0.206078        0.172281 
        1.59535        0.203818        0.170665 
         1.6015        0.202264        0.169067 
        1.60764         0.20032         0.16749 
        1.61376        0.198693        0.165938 
        1.61989        0.196896        0.164404 
        1.62604        0.195011        0.162886 
        1.63218        0.193844        0.161388 
        1.63831        0.191845        0.159912 
        1.64444        0.190589        0.158455 
        1.65059        0.188325        0.157012 
        1.65673         0.18697        0.155588 
        1.66285        0.185593        0.154187 
        1.66898        0.183927        0.152802 
        1.67512        0.182201        0.151431 
        1.68127        0.180647        0.150076 
         1.6874        0.179441        0.148741 
        1.69353        0.177684        0.147422 
        1.69967        0.176229        0.146117 
        1.70581        0.175131        0.144828 
        1.71193        0.173834        0.143559 
        1.71806        0.172133        0.142303 
        1.72421        0.170625        0.141059 
        1.73035        0.169208        0.139832 
        1.73649        0.168126        0.138619 
        1.74262        0.166429        0.137422 
        1.74876        0.165471        0.136238 
        1.75489         0.16416        0.135071 
        1.76101          0.1627        0.133917 
        1.76715        0.161455        0.132776 
        1.77329        0.160075        0.131646 
        1.77943        0.158726        0.130529 
        1.78557        0.157859        0.129427 
        1.79171        0.156623        0.128337 
        1.79785        0.155134         0.12726 
        1.80399        0.153578        0.126195 
        1.81012        0.152969        0.125144 
        1.81625        0.151895        0.124105 
        1.82239        0.150909        0.123076 
        1.82853          0.1492         0.12206 
        1.83466        0.148049        0.121056 
        1.84078        0.147061        0.120065 
        1.84692        0.145976        0.119082 
        1.85306        0.144953         0.11811 
         1.8592        0.143888         0.11715 
        1.86533        0.142896        0.116202 
        1.87147        0.141595        0.115262 
        1.87761         0.14046        0.114333 
        1.88375         0.13945        0.113415 
        1.88988        0.138288        0.112508 
        1.89601         0.13709         0.11161 
        1.90215        0.136369        0.110722 
        1.90829        0.135111        0.109844 
        1.91442        0.134576        0.108975 
        1.92056        0.133665        0.108116 
         1.9267        0.132496        0.107266 
        1.93284        0.131285        0.106424 
        1.93897        0.130455        0.105593 
        1.94509        0.129654        0.104773 
        1.95123        0.128442        0.103959 
        1.95737        0.127751        0.103153 
        1.96349        0.126742        0.102358 
        1.96964        0.125759        0.101569 
        1.97578        0.124822        0.100788 
        1.98192        0.124258        0.100017 
        1.98805        0.123342       0.0992533 
        1.99419        0.122629       0.0984979 
        2.00033        0.121461         0.09775 
        2.00647        0.120746       0.0970101 
         2.0126         0.11991       0.0962791 
        2.01874        0.119071       0.0955544 
        2.02488        0.118323       0.0948366 
        2.03101        0.117246       0.0941275 
        2.03714        0.117001       0.0934263 
        2.04328        0.115638       0.0927315 
        2.04941        0.115181       0.0920443 
        2.05554        0.114311       0.0913645 
        2.06167        0.113457       0.0906907 
        2.06781        0.112509       0.0900236 
        2.07396        0.112072       0.0893623 
        2.08009        0.111149       0.0887087 
        2.08622        0.110531       0.0880624 
        2.09237        0.109775       0.0874213 
        2.09851        0.108854       0.0867865 
        2.10464        0.108323        0.086159 
        2.11077         0.10741       0.0855384 
        2.11691        0.106849       0.0849226 
        2.12305        0.106014       0.0843129 
        2.12918         0.10527       0.0837106 
        2.13531        0.104658       0.0831141 
        2.14145        0.103991        0.082522 
         2.1476          0.1033        0.081935 
        2.15372        0.102815       0.0813567 
        2.15985        0.101899       0.0807834 
        2.16599        0.101188       0.0802139 
        2.17213        0.100733       0.0796506 
        2.17827        0.100042       0.0790927 
         2.1844       0.0994524       0.0785408 
        2.19054        0.098805       0.0779939 
        2.19666       0.0982289       0.0774529 
         2.2028       0.0972499       0.0769167 
        2.20893       0.0969015       0.0763852 
        2.21508       0.0963121       0.0758582 
        2.22122       0.0956934       0.0753359 
        2.22736       0.0949948       0.0748197 
        2.23349       0.0943462       0.0743084 
        2.23962       0.0938888       0.0738017 
        2.24577       0.0933386       0.0732992 
         2.2519       0.0927002       0.0728021 
        2.25802       0.0921005       0.0723104 
        2.26417       0.0916933       0.0718218 
        2.27031       0.0910264       0.0713373 
        2.27644       0.0907321       0.0708587 
        2.28257       0.0899035       0.0703845 
        2.28872       0.0893994       0.0699138 
        2.29486        0.088921       0.0694474 
        2.30099       0.0882238       0.0689863 
        2.30712       0.0877943       0.0685291 
        2.31326       0.0871468       0.0680752 
         2.3194        0.086751       0.0676258 
        2.32553       0.0862104       0.0671812 
        2.33166       0.0856447       0.0667407 
         2.3378       0.0851604       0.0663036 
        2.34394       0.0846642       0.0658702 
        2.35007       0.0841928       0.0654414 
        2.35619       0.0837333       0.0650168 
        2.36233       0.0832138       0.0645951 
        2.36848       0.0826534       0.0641762 
        2.37462       0.0823457       0.0637619 
        2.38075       0.0817652       0.0633516 
        2.38689       0.0813706       0.0629446 
        2.39303       0.0808852       0.0625413 
        2.39916       0.0803171       0.0621419 
        2.40529       0.0798455        0.061746 
        2.41143       0.0793054       0.0613533 
        2.41757       0.0789292       0.0609639 
         2.4237       0.0784698       0.0605785 
        2.42983       0.0780908       0.0601965 
        2.43598       0.0775899       0.0598167 
        2.44211       0.0769793       0.0594409 
        2.44823        0.076763       0.0590691 
        2.45437        0.076323       0.0586995 
        2.46052       0.0758388       0.0583328 
        2.46665       0.0754682       0.0579698 
        2.47279       0.0749709         0.05761 
        2.47892       0.0747734        0.057253 
        2.48507       0.0740534       0.0568987 
         2.4912       0.0737897       0.0565481 
