# k  (h/Mpc)    P(k)  (Mpc/h)^3    P_linear(k)  (Mpc/h)^3
     0.00783031         21363.3         21433.3 
       0.013688         25906.6         26725.2 
       0.019231         26798.7         27339.2 
      0.0249154         25581.1         25608.6 
      0.0312784           22190         22602.5 
      0.0375637         19133.9         19698.1 
      0.0433917         17240.4         17535.8 
      0.0492413           15500         15933.9 
      0.0555754         14325.6         14665.1 
      0.0619321         12821.1         13611.6 
       0.067871         12069.7         12627.4 
      0.0738098         11208.9         11559.7 
      0.0800417         10096.6         10377.4 
      0.0862327          8998.2         9240.72 
      0.0921407         8172.72            8290 
      0.0982031         7542.31         7508.91 
       0.104506         6835.37         6908.13 
       0.110769         6433.06         6475.86 
       0.116806         6188.89         6144.27 
       0.122832         5834.24         5830.45 
       0.129052         5460.18         5479.74 
       0.135211         5265.76         5095.03 
       0.141259         4834.45         4700.18 
       0.147318         4481.92         4320.63 
       0.153489         4232.89         3981.23 
       0.159709         4102.71          3704.1 
       0.165845         3789.02         3493.01 
       0.171974         3693.53          3328.4 
       0.178125         3607.93         3187.39 
       0.184229         3323.18         3050.95 
        0.19034          3282.2         2905.13 
       0.196428         3189.81         2748.26 
       0.202534         3016.98         2585.54 
       0.208729         2941.17         2425.73 
       0.214876         2810.96         2282.41 
       0.220989         2707.14         2160.52 
       0.227147         2631.94         2058.71 
        0.23329         2532.53         1973.62 
       0.239377         2528.21         1898.84 
       0.245482         2425.07         1826.92 
       0.251667         2337.75         1752.75 
       0.257832         2293.56         1676.13 
       0.263955          2206.4         1598.94 
       0.270079         2162.73         1523.64 
        0.27624         2076.13         1452.96 
       0.282372          2064.6         1389.71 
        0.28843         2007.35         1334.51 
       0.294538         1938.48         1285.22 
       0.300721         1913.25         1239.78 
        0.30691         1854.17         1196.69 
       0.313033         1802.25         1154.77 
       0.319153         1789.63         1112.95 
       0.325316         1764.56         1071.03 
        0.33145         1724.23         1030.34 
       0.337538         1679.25         991.818 
       0.343633          1645.4         955.868 
       0.349808         1625.63         922.324 
       0.355968         1586.07         891.576 
       0.362074         1557.03         863.224 
       0.368217         1547.47         836.166 
       0.374374          1518.8         809.997 
       0.380519         1477.17         784.438 
       0.386598         1476.16         759.682 
       0.392688         1435.67         735.543 
        0.39888         1421.59         711.892 
       0.405048         1389.95         689.488 
       0.411186         1380.96         668.438 
       0.417313         1372.38         648.617 
       0.423458         1337.45          629.84 
       0.429607         1309.59         611.932 
       0.435692         1298.04         594.878 
       0.441815         1273.41         578.264 
       0.447964         1268.86         562.068 
       0.454126         1251.28         546.301 
       0.460267         1236.97         531.115 
       0.466387         1216.84         516.568 
        0.47254         1199.65         502.553 
       0.478662          1185.1         489.208 
       0.484765         1172.75         476.485 
       0.490885         1161.86         464.251 
       0.497035         1139.66         452.408 
       0.503198         1140.38         440.932 
       0.509342         1117.79         429.852 
       0.515458         1099.04         419.169 
       0.521598          1103.5         408.781 
       0.527764          1077.4          398.69 
       0.533884         1062.99         389.017 
           0.54          1059.9         379.701 
       0.546137         1046.97         370.692 
       0.552299          1035.5         361.964 
       0.558452         1027.97         353.542 
       0.564573         1026.03         345.428 
       0.570708         1011.02         337.547 
       0.576825         994.225          329.93 
       0.582926         990.394         322.564 
       0.589034         982.418         315.409 
       0.595184         967.614         308.424 
       0.601379          955.02         301.606 
       0.607522         946.701         295.055 
       0.613639         941.985         288.735 
       0.619772         929.311         282.594 
       0.625918         925.784         276.625 
       0.632068         917.448         270.828 
       0.638161         902.946         265.247 
         0.6443         896.408         259.781 
       0.650464         889.234         254.448 
       0.656582         883.427         249.303 
       0.662703         872.331           244.3 
       0.668861          864.66         239.409 
       0.675024         858.225         234.652 
       0.681124         844.558         230.075 
       0.687237          843.22         225.613 
       0.693381         827.522          221.25 
       0.699536         831.758         216.996 
       0.705665         818.742         212.872 
       0.711789         815.791          208.86 
       0.717957         807.163         204.923 
        0.72409         799.394         201.111 
       0.730186         798.154          197.42 
       0.736317         789.402         193.802 
       0.742472         778.715         190.263 
       0.748622         779.278         186.817 
        0.75476             763         183.464 
       0.760888         762.845         180.199 
       0.767043         758.423         177.002 
       0.773185          752.61          173.89 
       0.779291         744.249         170.871 
       0.785407         738.274          167.92 
       0.791564         735.351          165.02 
       0.797719         723.183         162.191 
       0.803834         723.043         159.446 
       0.809972         713.112         156.756 
       0.816124         709.771         154.123 
       0.822261         702.465         151.557 
       0.828378         702.293         149.059 
       0.834502          692.08         146.615 
       0.840667         687.779          144.21 
       0.846816         684.712         141.867 
       0.852925         678.864         139.591 
       0.859047         671.668         137.361 
       0.865192         668.112         135.172 
       0.871341          663.37         133.031 
       0.877463         660.565         130.945 
       0.883569         655.636         128.911 
       0.889708         646.679         126.909 
       0.895864         642.316         124.945 
       0.902008         639.112         123.027 
       0.908149         633.822         121.151 
       0.914301         629.399         119.311 
       0.920448         624.551         117.512 
       0.926574         620.694         115.756 
       0.932687         613.504          114.04 
       0.938823         609.406         112.353 
       0.944975         606.916         110.696 
       0.951105         603.044         109.079 
       0.957225         596.477         107.497 
       0.963368         594.084         105.942 
       0.969511         589.983         104.417 
       0.975621         584.999         102.931 
       0.981748         580.761          101.47 
       0.987916         577.356         100.028 
        0.99406         571.791           98.62 
        1.00019         567.787         97.2421 
        1.00632         563.382         95.8918 
        1.01246         558.833         94.5654 
        1.01859         556.143         93.2663 
        1.02471         554.106         91.9933 
        1.03085         547.541         90.7399 
        1.03698         544.635         89.5126 
        1.04314         540.893          88.303 
        1.04929         538.628         87.1187 
        1.05541         531.276          85.961 
        1.06154         527.762         84.8217 
        1.06769         524.993         83.7014 
        1.07382         521.311         82.6052 
        1.07993         520.389         81.5313 
        1.08607         516.724         80.4721 
        1.09222         511.681         79.4308 
        1.09836         507.694         78.4093 
        1.10449         503.112          77.407 
        1.11063         499.273         76.4213 
        1.11677         495.682         75.4532 
         1.1229         492.419         74.5037 
        1.12903          487.72         73.5698 
        1.13518         487.823         72.6512 
        1.14131         483.487         71.7489 
        1.14745         478.884         70.8626 
        1.15359         476.126         69.9911 
        1.15973         473.834          69.134 
        1.16584         471.109         68.2951 
        1.17197         467.449         67.4691 
        1.17811         462.541         66.6542 
        1.18424         459.376         65.8553 
        1.19038         457.775         65.0672 
        1.19652         453.068         64.2923 
        1.20267         449.697         63.5302 
        1.20881         447.491         62.7806 
        1.21495          442.92         62.0443 
        1.22108         443.044           61.32 
         1.2272         438.152         60.6091 
        1.23334         434.972         59.9078 
        1.23949         432.897          59.216 
        1.24562         429.133         58.5371 
        1.25174          426.11         57.8698 
        1.25789         423.433          57.211 
        1.26402         420.292         56.5637 
        1.27014         418.245          55.928 
        1.27628         415.044         55.3002 
        1.28244         411.821         54.6809 
        1.28858         409.427         54.0719 
        1.29471         406.235         53.4736 
        1.30084         404.166          52.885 
        1.30697         401.069         52.3044 
        1.31312          398.74         51.7317 
        1.31925         395.351         51.1694 
        1.32537         393.993         50.6161 
        1.33151          390.03          50.069 
        1.33765         386.981         49.5304 
        1.34378         386.535         49.0008 
        1.34992         382.095         48.4787 
        1.35606         379.926          47.963 
         1.3622         377.429         47.4558 
        1.36833         375.489         46.9572 
        1.37445         373.326          46.466 
        1.38059         369.974         45.9804 
        1.38675          367.34         45.5006 
        1.39288         364.891         45.0296 
        1.39901          362.56         44.5655 
        1.40515         360.584         44.1069 
         1.4113         359.105          43.655 
        1.41742         356.255         43.2111 
        1.42355         353.746         42.7726 
         1.4297         352.001         42.3389 
        1.43585         349.544         41.9114 
        1.44198         346.717         41.4914 
        1.44809         344.471          41.078 
        1.45423         341.815         40.6687 
        1.46036           340.8         40.2657 
        1.46649         337.995         39.8681 
        1.47263         335.652         39.4756 
        1.47877         334.259         39.0885 
        1.48491          331.38          38.706 
        1.49104          328.35         38.3295 
        1.49718         326.685         37.9577 
        1.50333           324.7         37.5902 
        1.50947         322.099         37.2284 
         1.5156         320.294         36.8719 
        1.52172         317.675         36.5201 
        1.52787         316.047         36.1722 
          1.534         314.897         35.8293 
        1.54013         311.767         35.4912 
        1.54627         309.832         35.1568 
        1.55241         308.603         34.8268 
        1.55855         306.049         34.5014 
        1.56467         303.857         34.1811 
         1.5708         302.452          33.864 
        1.57695         301.193         33.5504 
        1.58308         298.562         33.2416 
        1.58922         296.258         32.9364 
        1.59535         293.887         32.6352 
         1.6015         293.455         32.3374 
        1.60764         291.478         32.0434 
        1.61376         288.373         31.7539 
        1.61989         287.031         31.4678 
        1.62604         286.196         31.1845 
        1.63218         283.175          30.905 
        1.63831         281.929         30.6295 
        1.64444         279.888         30.3572 
        1.65059         278.872         30.0877 
        1.65673         276.869         29.8217 
        1.66285         275.121         29.5597 
        1.66898         272.532         29.3007 
        1.67512         270.866         29.0444 
        1.68127         269.225         28.7909 
         1.6874         267.518          28.541 
        1.69353         266.623         28.2942 
        1.69967         264.611         28.0497 
        1.70581         262.549         27.8083 
        1.71193         261.147         27.5706 
        1.71806         259.604         27.3352 
        1.72421         257.684          27.102 
        1.73035           256.5         26.8719 
        1.73649         254.931         26.6445 
        1.74262         253.309         26.4199 
        1.74876         251.325         26.1978 
        1.75489         249.689         25.9787 
        1.76101         248.356         25.7622 
        1.76715         246.806         25.5478 
        1.77329         244.786         25.3356 
        1.77943         243.781         25.1258 
        1.78557         242.958         24.9186 
        1.79171         240.233         24.7138 
        1.79785         238.236         24.5112 
        1.80399         237.674         24.3109 
        1.81012         236.294         24.1132 
        1.81625         235.239         23.9177 
        1.82239         233.206         23.7241 
        1.82853         231.281         23.5328 
        1.83466         229.973         23.3437 
        1.84078         228.725          23.157 
        1.84692         227.943          22.972 
        1.85306         226.219         22.7887 
         1.8592         224.354         22.6078 
        1.86533          222.87          22.429 
        1.87147         222.575         22.2519 
        1.87761         220.741         22.0766 
        1.88375         219.212         21.9034 
        1.88988         218.013         21.7323 
        1.89601         216.908         21.5629 
        1.90215         215.573         21.3952 
        1.90829         214.066         21.2293 
        1.91442         212.131         21.0652 
        1.92056         211.272          20.903 
         1.9267         210.219         20.7423 
        1.93284         209.209         20.5832 
        1.93897         207.546         20.4261 
        1.94509         206.205          20.271 
        1.95123         205.192         20.1171 
        1.95737         204.001         19.9646 
        1.96349          202.49         19.8142 
        1.96964         201.165         19.6649 
        1.97578         200.168          19.517 
        1.98192         199.182          19.371 
        1.98805         198.122         19.2264 
        1.99419         196.916         19.0834 
        2.00033         196.085         18.9417 
        2.00647          194.01         18.8015 
         2.0126         193.201         18.6629 
        2.01874         191.969         18.5255 
        2.02488         190.621         18.3894 
        2.03101         189.539          18.255 
        2.03714         189.017          18.122 
        2.04328         187.679         17.9901 
        2.04941         186.533         17.8597 
        2.05554          185.58         17.7307 
        2.06167         184.537         17.6028 
        2.06781         183.368         17.4761 
        2.07396         181.815         17.3505 
        2.08009         180.828         17.2264 
        2.08622          180.25         17.1036 
        2.09237         178.835         16.9818 
        2.09851         177.779         16.8611 
        2.10464         177.116         16.7418 
        2.11077         175.919         16.6238 
        2.11691         174.765         16.5067 
        2.12305         173.814         16.3907 
        2.12918         172.736         16.2761 
        2.13531         171.713         16.1626 
        2.14145         170.709         16.0499 
         2.1476         169.292         15.9382 
        2.15372         169.101         15.8281 
        2.15985         167.659         15.7189 
        2.16599         166.752         15.6104 
        2.17213         165.411         15.5031 
        2.17827         165.038         15.3968 
         2.1844         163.703         15.2917 
        2.19054         163.222         15.1874 
        2.19666         162.266         15.0843 
         2.2028         161.158          14.982 
        2.20893         160.328         14.8807 
        2.21508         159.415         14.7802 
        2.22122         158.521         14.6805 
        2.22736         157.662          14.582 
        2.23349         156.722         14.4844 
        2.23962         155.625         14.3877 
        2.24577         154.846         14.2918 
         2.2519         153.873         14.1968 
        2.25802         152.787         14.1029 
        2.26417         152.268         14.0096 
        2.27031           151.3          13.917 
        2.27644         150.548         13.8256 
        2.28257         149.634          13.735 
        2.28872         148.706          13.645 
        2.29486         147.972         13.5558 
        2.30099         147.191         13.4676 
        2.30712         146.312         13.3802 
        2.31326         145.317         13.2934 
         2.3194         144.666         13.2074 
        2.32553          143.76         13.1223 
        2.33166         143.127          13.038 
         2.3378         142.098         12.9544 
        2.34394         141.312         12.8714 
        2.35007         140.561         12.7893 
        2.35619         139.661          12.708 
        2.36233         139.062         12.6272 
        2.36848         138.424          12.547 
        2.37462          137.42         12.4676 
        2.38075          136.67          12.389 
        2.38689         135.981          12.311 
        2.39303         135.379         12.2337 
        2.39916         134.647         12.1571 
        2.40529         133.686         12.0812 
        2.41143         133.044         12.0059 
        2.41757          131.99         11.9312 
         2.4237          131.69         11.8573 
        2.42983          130.86          11.784 
        2.43598          129.96         11.7111 
        2.44211         129.302          11.639 
        2.44823         128.787         11.5676 
        2.45437         128.043         11.4966 
        2.46052         127.153         11.4262 
        2.46665         126.528         11.3565 
        2.47279          125.85         11.2874 
        2.47892         125.192         11.2188 
        2.48507         124.601         11.1508 
         2.4912         123.848         11.0834 
