# k  (h/Mpc)    Pcb(k)  (Mpc/h)^3    Pcb_linear(k)  (Mpc/h)^3
     0.00783031         1987.07         2000.21 
       0.013688         2467.45          2498.6 
       0.019231         2543.66         2558.15 
      0.0249154         2399.85         2397.42 
      0.0312784         2113.05         2116.72 
      0.0375637         1837.21         1845.13 
      0.0433917         1644.61         1642.83 
      0.0492413         1488.69         1492.91 
      0.0555754         1376.17         1374.15 
      0.0619321         1260.58         1275.51 
       0.067871         1178.39         1183.35 
      0.0738098         1081.28         1083.34 
      0.0800417          974.01         972.565 
      0.0862327         865.295         866.061 
      0.0921407         776.577         776.974 
      0.0982031         707.346          703.78 
       0.104506         645.208         647.483 
       0.110769         605.614         606.976 
       0.116806          579.48         575.903 
       0.122832         545.626         546.495 
       0.129052         515.197         513.627 
       0.135211         482.429         477.571 
       0.141259         443.288         440.564 
       0.147318         405.283          404.99 
       0.153489         376.205         373.179 
       0.159709         352.944         347.205 
       0.165845         328.241         327.419 
       0.171974         318.289         311.991 
       0.178125         304.778         298.774 
       0.184229         288.857         285.985 
        0.19034         278.095         272.318 
       0.196428         263.822         257.614 
       0.202534         245.405         242.362 
       0.208729         234.234         227.382 
       0.214876          222.69         213.948 
       0.220989         207.702         202.524 
       0.227147         201.788         192.981 
        0.23329         194.122         185.005 
       0.239377         187.942         177.995 
       0.245482         179.723         171.253 
       0.251667         171.712         164.301 
       0.257832         167.305         157.119 
       0.263955         157.995         149.884 
       0.270079         151.158         142.825 
        0.27624         143.805         136.199 
       0.282372         138.552         130.271 
        0.28843         135.873         125.097 
       0.294538         130.207         120.476 
       0.300721         124.776         116.217 
        0.30691         122.225         112.178 
       0.313033         117.427         108.248 
       0.319153         114.986         104.328 
       0.325316         109.712         100.399 
        0.33145         105.871         96.5843 
       0.337538         102.433         92.9732 
       0.343633         99.3145         89.6034 
       0.349808          95.956         86.4593 
       0.355968          93.008         83.5766 
       0.362074         91.1643          80.919 
       0.368217         88.5475         78.3827 
       0.374374         86.6142         75.9293 
       0.380519          82.944         73.5338 
       0.386598         80.5937         71.2131 
       0.392688         78.1602         68.9503 
        0.39888         76.5835         66.7333 
       0.405048          74.657         64.6331 
       0.411186         72.6978         62.6599 
       0.417313         70.6683          60.802 
       0.423458         68.6732         59.0417 
       0.429607         67.4773          57.363 
       0.435692         66.2846         55.7644 
       0.441815         63.8273         54.2071 
       0.447964         61.8967         52.6887 
       0.454126         60.7942         51.2109 
       0.460267          60.154         49.7873 
       0.466387         58.4456         48.4237 
        0.47254         57.5675         47.1098 
       0.478662         55.6977          45.859 
       0.484765         54.5808         44.6663 
       0.490885         53.0511         43.5195 
       0.497035         52.2797         42.4092 
       0.503198         51.0738         41.3335 
       0.509342         49.7157         40.2948 
       0.515458         49.0776         39.2934 
       0.521598         47.9039         38.3197 
       0.527764         47.2537         37.3737 
       0.533884         46.2419          36.467 
           0.54         45.2766         35.5937 
       0.546137         43.9328         34.7491 
       0.552299         43.2156          33.931 
       0.558452         42.3265         33.1415 
       0.564573         41.9499         32.3809 
       0.570708         40.7981         31.6421 
       0.576825         40.2771         30.9281 
       0.582926          39.601         30.2376 
       0.589034         38.8228         29.5669 
       0.595184         38.3103         28.9121 
       0.601379         37.2777          28.273 
       0.607522         36.7132         27.6589 
       0.613639         36.1428         27.0665 
       0.619772         35.5199         26.4908 
       0.625918         34.8254         25.9313 
       0.632068         34.5324         25.3878 
       0.638161         33.8142         24.8647 
         0.6443         33.3117         24.3523 
       0.650464         32.4909         23.8524 
       0.656582         32.2934         23.3701 
       0.662703         31.9108         22.9011 
       0.668861         31.0701         22.4426 
       0.675024         30.7152         21.9966 
       0.681124         30.5018         21.5676 
       0.687237         29.8832         21.1493 
       0.693381         29.2942         20.7403 
       0.699536         29.1477         20.3415 
       0.705665         28.6014          19.955 
       0.711789         28.0983         19.5788 
       0.717957         27.5519         19.2099 
        0.72409         27.3054         18.8525 
       0.730186          27.168         18.5065 
       0.736317         26.6165         18.1674 
       0.742472         26.2895         17.8356 
       0.748622         25.8673         17.5125 
        0.75476         25.2405         17.1982 
       0.760888         25.1663         16.8922 
       0.767043         24.7414         16.5925 
       0.773185         24.4851         16.3007 
       0.779291          24.237         16.0177 
       0.785407         23.8255         15.7411 
       0.791564         23.6748         15.4692 
       0.797719         23.1687          15.204 
       0.803834         23.0585         14.9468 
       0.809972         22.6301         14.6946 
       0.816124         22.3835         14.4477 
       0.822261         22.1453         14.2072 
       0.828378         21.9082          13.973 
       0.834502         21.6868         13.7439 
       0.840667         21.4561         13.5185 
       0.846816          20.991         13.2989 
       0.852925         20.9292         13.0855 
       0.859047         20.6816         12.8764 
       0.865192         20.3898         12.6713 
       0.871341         20.1327         12.4705 
       0.877463         19.9196         12.2751 
       0.883569         19.8067         12.0843 
       0.889708         19.4846         11.8967 
       0.895864         19.2472         11.7126 
       0.902008         19.0219         11.5328 
       0.908149         18.7903         11.3569 
       0.914301         18.6957         11.1844 
       0.920448         18.4186         11.0158 
       0.926574          18.282         10.8512 
       0.932687         18.0372         10.6903 
       0.938823         17.8145         10.5321 
       0.944975         17.6766         10.3768 
       0.951105         17.4809         10.2253 
       0.957225         17.3785          10.077 
       0.963368         17.1097         9.93115 
       0.969511         16.9464         9.78823 
       0.975621         16.7913         9.64891 
       0.981748         16.5779         9.51195 
       0.987916         16.4641         9.37682 
        0.99406         16.2897         9.24483 
        1.00019         16.1613         9.11565 
        1.00632         16.0226         8.98908 
        1.01246         15.8652         8.86473 
        1.01859         15.6754         8.74295 
        1.02471         15.5064         8.62363 
        1.03085         15.4491         8.50613 
        1.03698         15.3004         8.39108 
        1.04314         15.1137         8.27769 
        1.04929         14.9279         8.16667 
        1.05541         14.8635         8.05815 
        1.06154         14.7376         7.95135 
        1.06769         14.6192         7.84633 
        1.07382         14.3996         7.74357 
        1.07993         14.2852          7.6429 
        1.08607         14.2208         7.54361 
        1.09222         14.0424         7.44599 
        1.09836         13.9819         7.35023 
        1.10449         13.7916         7.25628 
        1.11063         13.7415         7.16388 
        1.11677         13.6494         7.07313 
         1.1229         13.5147         6.98412 
        1.12903         13.4104         6.89658 
        1.13518         13.2335         6.81047 
        1.14131         13.1647         6.72588 
        1.14745         12.9832         6.64279 
        1.15359         12.8888          6.5611 
        1.15973         12.7831         6.48075 
        1.16584         12.6872         6.40212 
        1.17197         12.5753         6.32468 
        1.17811         12.4757          6.2483 
        1.18424          12.394          6.1734 
        1.19038         12.3223         6.09952 
        1.19652         12.2097         6.02689 
        1.20267         12.1245         5.95544 
        1.20881         11.9871         5.88517 
        1.21495         11.9036         5.81616 
        1.22108         11.8523         5.74826 
         1.2272         11.7425         5.68161 
        1.23334         11.6907         5.61587 
        1.23949         11.5722         5.55102 
        1.24562         11.4779         5.48738 
        1.25174         11.4159         5.42483 
        1.25789         11.2805         5.36307 
        1.26402         11.2463         5.30239 
        1.27014         11.1851          5.2428 
        1.27628         11.0386         5.18395 
        1.28244         11.0283         5.12589 
        1.28858         10.9278         5.06881 
        1.29471         10.7855         5.01272 
        1.30084         10.7178         4.95754 
        1.30697         10.7091         4.90312 
        1.31312         10.5901         4.84943 
        1.31925         10.5317         4.79672 
        1.32537         10.4603         4.74486 
        1.33151         10.3826         4.69357 
        1.33765         10.3017         4.64308 
        1.34378         10.2855         4.59344 
        1.34992         10.1782         4.54449 
        1.35606         10.0964         4.49615 
         1.3622         10.0206          4.4486 
        1.36833         9.97797         4.40186 
        1.37445         9.91265         4.35582 
        1.38059          9.8481          4.3103 
        1.38675          9.7785         4.26532 
        1.39288         9.68917         4.22116 
        1.39901         9.63529         4.17766 
        1.40515         9.57327         4.13467 
         1.4113          9.4995          4.0923 
        1.41742          9.4653          4.0507 
        1.42355         9.37358         4.00959 
         1.4297         9.33635         3.96893 
        1.43585         9.28449         3.92886 
        1.44198         9.22663         3.88949 
        1.44809         9.16829         3.85074 
        1.45423         9.09362         3.81237 
        1.46036         9.04982         3.77459 
        1.46649         8.98909         3.73732 
        1.47263         8.94644         3.70052 
        1.47877         8.88366         3.66424 
        1.48491         8.84419         3.62838 
        1.49104          8.7663         3.59308 
        1.49718         8.73948         3.55823 
        1.50333         8.67819         3.52379 
        1.50947         8.60919         3.48987 
         1.5156         8.58906         3.45645 
        1.52172         8.53208         3.42347 
        1.52787         8.48379         3.39086 
          1.534         8.43125         3.35871 
        1.54013         8.39282         3.32702 
        1.54627         8.33412         3.29568 
        1.55241         8.26612         3.26473 
        1.55855         8.25608         3.23423 
        1.56467          8.1963         3.20421 
         1.5708         8.15405         3.17448 
        1.57695         8.08899         3.14509 
        1.58308         8.03509         3.11614 
        1.58922         8.01103         3.08753 
        1.59535         7.96339         3.05929 
         1.6015         7.89564         3.03137 
        1.60764         7.87105         3.00382 
        1.61376         7.84156         2.97668 
        1.61989         7.76744         2.94986 
        1.62604          7.7473          2.9233 
        1.63218         7.70968          2.8971 
        1.63831         7.66344         2.87127 
        1.64444         7.60144         2.84575 
        1.65059         7.56708         2.82048 
        1.65673         7.54555         2.79555 
        1.66285         7.50229         2.77099 
        1.66898         7.46116         2.74671 
        1.67512         7.41433         2.72268 
        1.68127         7.36304         2.69892 
         1.6874          7.3428         2.67549 
        1.69353         7.28949         2.65236 
        1.69967         7.26515         2.62944 
        1.70581         7.21026         2.60681 
        1.71193         7.19577         2.58452 
        1.71806         7.15387         2.56246 
        1.72421         7.10632          2.5406 
        1.73035         7.07684         2.51903 
        1.73649         7.04351         2.49772 
        1.74262          6.9881         2.47666 
        1.74876          6.9877         2.45584 
        1.75489         6.93936          2.4353 
        1.76101         6.88764           2.415 
        1.76715         6.87846         2.39491 
        1.77329          6.8449         2.37502 
        1.77943         6.78605         2.35535 
        1.78557         6.78564         2.33593 
        1.79171         6.74673         2.31672 
        1.79785         6.71436         2.29773 
        1.80399         6.65139         2.27896 
        1.81012         6.64107         2.26042 
        1.81625         6.59837          2.2421 
        1.82239          6.5734         2.22395 
        1.82853         6.53375         2.20601 
        1.83466          6.4888         2.18829 
        1.84078         6.47257         2.17078 
        1.84692         6.44452         2.15344 
        1.85306         6.41412         2.13627 
         1.8592         6.39651         2.11931 
        1.86533         6.36718         2.10254 
        1.87147          6.3281         2.08594 
        1.87761         6.31227         2.06951 
        1.88375         6.27055         2.05327 
        1.88988         6.23892         2.03723 
        1.89601         6.21929         2.02135 
        1.90215         6.17245         2.00563 
        1.90829         6.16322         1.99008 
        1.91442         6.12179          1.9747 
        1.92056         6.11783         1.95949 
         1.9267         6.06877         1.94443 
        1.93284         6.06508         1.92952 
        1.93897         6.01949         1.91479 
        1.94509         5.97938         1.90025 
        1.95123          5.9705         1.88582 
        1.95737         5.94747         1.87153 
        1.96349         5.90056         1.85743 
        1.96964         5.88057         1.84343 
        1.97578          5.8615         1.82957 
        1.98192         5.83011         1.81588 
        1.98805         5.81157         1.80233 
        1.99419         5.79218         1.78892 
        2.00033         5.75003         1.77563 
        2.00647         5.74075         1.76249 
         2.0126         5.71428          1.7495 
        2.01874         5.69021         1.73663 
        2.02488         5.66609         1.72387 
        2.03101         5.62793         1.71126 
        2.03714         5.60555         1.69879 
        2.04328         5.58956         1.68644 
        2.04941         5.55834         1.67421 
        2.05554         5.54808         1.66212 
        2.06167         5.52106         1.65013 
        2.06781         5.49388         1.63825 
        2.07396          5.4681         1.62648 
        2.08009         5.45193         1.61484 
        2.08622          5.4342         1.60333 
        2.09237         5.42038         1.59191 
        2.09851         5.37619          1.5806 
        2.10464         5.36246         1.56941 
        2.11077          5.3457         1.55835 
        2.11691         5.33056         1.54738 
        2.12305          5.2975          1.5365 
        2.12918         5.28331         1.52576 
        2.13531         5.25623         1.51512 
        2.14145         5.24033         1.50456 
         2.1476         5.21673         1.49408 
        2.15372         5.19273         1.48376 
        2.15985         5.18131         1.47353 
        2.16599         5.16071         1.46336 
        2.17213         5.14906          1.4533 
        2.17827         5.10975         1.44334 
         2.1844         5.09186         1.43348 
        2.19054         5.08056          1.4237 
        2.19666          5.0589         1.41404 
         2.2028           5.025         1.40445 
        2.20893         5.02488         1.39495 
        2.21508         5.00454         1.38553 
        2.22122         4.96356         1.37619 
        2.22736         4.95623         1.36695 
        2.23349         4.93768         1.35781 
        2.23962         4.92699         1.34874 
        2.24577         4.89195         1.33974 
         2.2519         4.89002         1.33084 
        2.25802         4.85024         1.32204 
        2.26417         4.84254         1.31329 
        2.27031         4.82233         1.30462 
        2.27644         4.80466         1.29604 
        2.28257         4.78872         1.28755 
        2.28872         4.77451         1.27911 
        2.29486          4.7504         1.27075 
        2.30099         4.73479         1.26249 
        2.30712         4.71695         1.25429 
        2.31326         4.70049         1.24615 
         2.3194         4.68063         1.23809 
        2.32553         4.66133         1.23012 
        2.33166         4.65262         1.22222 
         2.3378         4.63298         1.21437 
        2.34394         4.61245          1.2066 
        2.35007         4.59111          1.1989 
        2.35619         4.58607         1.19128 
        2.36233         4.55831         1.18371 
        2.36848         4.55118         1.17619 
        2.37462         4.53333         1.16875 
        2.38075         4.52331         1.16138 
        2.38689         4.50483         1.15406 
        2.39303         4.48326         1.14682 
        2.39916         4.46999         1.13964 
        2.40529         4.44975         1.13252 
        2.41143         4.44146         1.12546 
        2.41757         4.42892         1.11846 
         2.4237         4.40668         1.11153 
        2.42983         4.39913         1.10466 
        2.43598         4.38612         1.09783 
        2.44211         4.36194         1.09107 
        2.44823         4.34168         1.08438 
        2.45437         4.32883         1.07772 
        2.46052         4.31845         1.07112 
        2.46665         4.30536         1.06459 
        2.47279         4.27926         1.05811 
        2.47892         4.26951         1.05168 
        2.48507         4.26167          1.0453 
         2.4912         4.24387         1.03899 
