#  k  (h/Mpc)          P(k)  (Mpc/h)^3     P_linear(k) (Mpc/h)^3
     0.00783031           17201         17452.8 
       0.013688           21501         21286.4 
       0.019231         21467.6         21427.2 
      0.0249154         19286.2         19730.1 
      0.0312784         16778.6         16993.7 
      0.0375637         14341.7         14353.3 
      0.0433917         12132.7           12368 
      0.0492413         10830.6         10909.2 
      0.0555754          9516.9         9833.99 
      0.0619321         9103.88          9086.9 
       0.067871         8252.93         8506.36 
      0.0738098          7674.6         7910.45 
      0.0800417         6909.59         7207.88 
      0.0862327         6276.22         6447.49 
      0.0921407         5702.19         5724.92 
      0.0982031            5032         5056.75 
       0.104506         4650.69         4493.08 
       0.110769          4242.8         4081.08 
       0.116806         3964.36         3806.22 
       0.122832         3766.04         3614.22 
       0.129052         3509.21         3455.89 
       0.135211         3352.08         3297.56 
       0.141259         3227.31         3115.91 
       0.147318         3049.19          2903.4 
       0.153489         2791.72          2668.3 
       0.159709          2626.3         2434.69 
       0.165845         2505.07         2228.73 
       0.171974         2350.59         2060.49 
       0.178125         2226.02         1932.14 
       0.184229         2120.39         1838.83 
        0.19034         2011.41         1767.74 
       0.196428          1974.2         1705.87 
       0.202534         1903.42         1641.48 
       0.208729         1821.17         1567.07 
       0.214876         1749.28         1483.41 
       0.220989         1687.03         1394.62 
       0.227147         1614.08         1306.19 
        0.23329         1546.03         1225.37 
       0.239377         1518.17         1156.71 
       0.245482         1422.72         1100.46 
       0.251667         1414.46          1054.8 
       0.257832         1358.21         1017.11 
       0.263955         1314.54         983.343 
       0.270079          1269.8         949.697 
        0.27624          1255.9         913.755 
       0.282372         1204.15          875.49 
        0.28843         1196.12          836.18 
       0.294538         1136.39         796.867 
       0.300721         1128.76         759.353 
        0.30691         1085.19         725.527 
       0.313033         1063.36          696.32 
       0.319153         1044.55         671.045 
       0.325316         1010.92         648.645 
        0.33145         988.571          628.15 
       0.337538         970.396         608.478 
       0.343633         949.223         588.692 
       0.349808         917.265         568.242 
       0.355968         910.749         547.622 
       0.362074         901.919         527.408 
       0.368217         873.399         507.891 
       0.374374         840.853         489.584 
       0.380519         841.923         472.837 
       0.386598          817.84         457.746 
       0.392688         815.211         443.868 
        0.39888         791.201         430.708 
       0.405048         781.549         418.166 
       0.411186         770.488         405.962 
       0.417313         754.301          393.93 
       0.423458         741.004         381.971 
       0.429607         731.941         370.227 
       0.435692         716.308         358.979 
       0.441815         709.843          348.15 
       0.447964         695.605         337.875 
       0.454126         689.075         328.211 
       0.460267         672.076         319.145 
       0.466387         664.173         310.582 
        0.47254         659.908         302.348 
       0.478662         653.281         294.425 
       0.484765         633.534         286.718 
       0.490885         629.684         279.164 
       0.497035         616.786         271.764 
       0.503198         612.847         264.559 
       0.509342         606.991         257.621 
       0.515458         603.046         250.992 
       0.521598         587.631         244.632 
       0.527764         578.011         238.525 
       0.533884         575.677         232.713 
           0.54         569.703         227.126 
       0.546137         565.308         221.713 
       0.552299         557.207         216.444 
       0.558452         553.087         211.324 
       0.564573         546.315         206.364 
       0.570708         539.832         201.534 
       0.576825         525.856         196.868 
       0.582926         527.525         192.367 
       0.589034         522.368         188.011 
       0.595184         518.055         183.775 
       0.601379         510.243         179.655 
       0.607522         503.224         175.708 
       0.613639         502.824         171.904 
       0.619772         492.836         168.204 
       0.625918         490.085           164.6 
       0.632068         483.223          161.09 
       0.638161         481.344         157.707 
         0.6443         473.474         154.394 
       0.650464         471.233         151.165 
       0.656582         466.961         148.055 
       0.662703         465.726         145.035 
       0.668861         458.153         142.086 
       0.675024         454.499         139.219 
       0.681124         451.017         136.461 
       0.687237         447.444         133.774 
       0.693381          441.28         131.148 
       0.699536         435.028         128.588 
       0.705665         434.187         126.107 
       0.711789         432.158         123.694 
       0.717957         428.302         121.326 
        0.72409         425.861         119.033 
       0.730186         419.901         116.814 
       0.736317         417.062         114.639 
       0.742472         414.686         112.512 
       0.748622         410.502         110.443 
        0.75476         404.984         108.431 
       0.760888         401.204         106.473 
       0.767043         401.677         104.556 
       0.773185         397.567         102.691 
       0.779291         392.894         100.883 
       0.785407         390.999         99.1158 
       0.791564         386.542         97.3799 
       0.797719           384.5         95.6864 
       0.803834         380.155         94.0441 
       0.809972         379.614         92.4346 
       0.816124         378.506         90.8595 
       0.822261         373.542         89.3256 
       0.828378         371.484          87.832 
       0.834502         367.303         86.3715 
       0.840667         364.852         84.9352 
       0.846816         363.398         83.5359 
       0.852925         360.981         82.1772 
       0.859047         358.776          80.846 
       0.865192         354.493         79.5402 
       0.871341         351.735         78.2626 
       0.877463         351.551          77.019 
       0.883569          348.51         75.8056 
       0.889708         345.749         74.6124 
       0.895864         344.447         73.4419 
       0.902008         341.277         72.2991 
       0.908149          337.84         71.1814 
       0.914301         335.551         70.0857 
       0.920448         333.844         69.0141 
       0.926574         329.484         67.9688 
       0.932687         329.454         66.9475 
       0.938823         326.138         65.9436 
       0.944975         325.966         64.9581 
       0.951105         322.713         63.9963 
       0.957225         320.681         63.0558 
       0.963368         316.847         62.1311 
       0.969511         315.986          61.225 
       0.975621         313.971          60.342 
       0.981748         312.515         59.4742 
       0.987916         310.899         58.6181 
        0.99406         306.251         57.7822 
        1.00019         305.223         56.9644 
        1.00632         304.028         56.1632 
        1.01246         301.395         55.3763 
        1.01859         301.949         54.6059 
        1.02471         297.121         53.8511 
        1.03085         296.036         53.1081 
        1.03698         294.743         52.3808 
        1.04314          292.19         51.6641 
        1.04929         289.857         50.9626 
        1.05541         290.623         50.2769 
        1.06154         285.718         49.6023 
        1.06769         285.345         48.9391 
        1.07382         283.156         48.2902 
        1.07993         281.627         47.6546 
        1.08607         280.917         47.0279 
        1.09222         278.024         46.4119 
        1.09836         276.203         45.8077 
        1.10449         274.105          45.215 
        1.11063         271.567         44.6322 
        1.11677         271.527         44.0599 
         1.1229         269.329         43.4986 
        1.12903         267.919         42.9467 
        1.13518         265.778         42.4039 
        1.14131         264.184         41.8708 
        1.14745         263.536         41.3472 
        1.15359         261.464         40.8325 
        1.15973         259.606         40.3264 
        1.16584         257.935         39.8311 
        1.17197         258.151         39.3435 
        1.17811         254.738         38.8625 
        1.18424         253.382         38.3911 
        1.19038         252.773         37.9261 
        1.19652         250.483          37.469 
        1.20267         250.028         37.0195 
        1.20881         248.041         36.5775 
        1.21495           246.4         36.1434 
        1.22108         245.012         35.7164 
         1.2272         243.602         35.2974 
        1.23334         242.619         34.8842 
        1.23949         240.394         34.4766 
        1.24562         239.698         34.0767 
        1.25174         238.396         33.6838 
        1.25789         236.682         33.2959 
        1.26402         234.502         32.9148 
        1.27014         233.411         32.5406 
        1.27628          232.12         32.1712 
        1.28244         232.043         31.8068 
        1.28858         229.666         31.4486 
        1.29471         228.428         31.0967 
        1.30084         226.863         30.7505 
        1.30697         225.679         30.4091 
        1.31312          223.66         30.0724 
        1.31925          222.64         29.7418 
        1.32537         222.263         29.4166 
        1.33151         220.189         29.0951 
        1.33765         218.645         28.7786 
        1.34378         218.065         28.4674 
        1.34992          216.89         28.1607 
        1.35606         216.656         27.8578 
         1.3622         214.289         27.5599 
        1.36833         212.718         27.2671 
        1.37445         211.997         26.9787 
        1.38059         210.255         26.6936 
        1.38675         209.567         26.4119 
        1.39288         208.505         26.1355 
        1.39901         207.573         25.8631 
        1.40515         205.912          25.594 
         1.4113         204.983         25.3288 
        1.41742         203.496         25.0684 
        1.42355         202.641         24.8112 
         1.4297         200.908         24.5568 
        1.43585         200.116         24.3061 
        1.44198         199.416         24.0599 
        1.44809         198.145         23.8175 
        1.45423         197.276         23.5776 
        1.46036         195.928         23.3415 
        1.46649         194.661         23.1085 
        1.47263         193.685         22.8785 
        1.47877         192.317         22.6517 
        1.48491         190.732         22.4277 
        1.49104         190.423         22.2071 
        1.49718          188.76         21.9894 
        1.50333         188.087         21.7743 
        1.50947         186.906         21.5625 
         1.5156         185.645         21.3538 
        1.52172         185.064         21.1479 
        1.52787         183.316         20.9443 
          1.534         183.134         20.7436 
        1.54013         181.722         20.5458 
        1.54627         180.682         20.3502 
        1.55241         179.522         20.1571 
        1.55855         178.476         19.9668 
        1.56467         177.376         19.7795 
         1.5708         176.576         19.5941 
        1.57695         175.928         19.4108 
        1.58308          174.82         19.2302 
        1.58922         173.745         19.0519 
        1.59535         172.473         18.8758 
         1.6015         171.839         18.7018 
        1.60764         170.861           18.53 
        1.61376          170.01         18.3608 
        1.61989         169.106         18.1937 
        1.62604           167.9         18.0282 
        1.63218         167.287         17.8649 
        1.63831         166.024          17.704 
        1.64444         165.334          17.545 
        1.65059         164.401         17.3876 
        1.65673         163.297         17.2323 
        1.66285         162.416         17.0793 
        1.66898         161.562         16.9282 
        1.67512         161.078         16.7785 
        1.68127         159.607         16.6306 
         1.6874          158.87         16.4847 
        1.69353         158.008         16.3407 
        1.69967         156.934         16.1981 
        1.70581         156.324         16.0573 
        1.71193         155.361         15.9186 
        1.71806         154.677         15.7813 
        1.72421         153.795         15.6454 
        1.73035         153.243         15.5112 
        1.73649         152.302         15.3786 
        1.74262         151.329         15.2477 
        1.74876         150.391         15.1182 
        1.75489         149.737         14.9905 
        1.76101         148.498         14.8643 
        1.76715         148.269         14.7394 
        1.77329          147.32         14.6157 
        1.77943          146.68         14.4935 
        1.78557         145.962         14.3728 
        1.79171         145.072         14.2534 
        1.79785           144.2         14.1354 
        1.80399         143.424         14.0188 
        1.81012         142.661         13.9037 
        1.81625         142.199         13.7898 
        1.82239         141.241         13.6771 
        1.82853         140.538         13.5657 
        1.83466         139.697         13.4557 
        1.84078         139.037          13.347 
        1.84692          137.87         13.2393 
        1.85306         137.749         13.1327 
         1.8592         136.762         13.0274 
        1.86533         136.113         12.9233 
        1.87147         135.042         12.8203 
        1.87761         134.257         12.7183 
        1.88375         133.623         12.6176 
        1.88988         132.766          12.518 
        1.89601         132.413         12.4195 
        1.90215         131.536         12.3219 
        1.90829         130.835         12.2255 
        1.91442         130.332         12.1301 
        1.92056         129.433         12.0357 
         1.9267         128.925         11.9423 
        1.93284         128.017         11.8499 
        1.93897         127.469         11.7585 
        1.94509         126.991         11.6684 
        1.95123         126.301         11.5789 
        1.95737          125.57         11.4903 
        1.96349         124.958         11.4029 
        1.96964         123.973         11.3162 
        1.97578         123.256         11.2303 
        1.98192         122.866         11.1454 
        1.98805         122.209         11.0615 
        1.99419         121.584         10.9784 
        2.00033         120.871         10.8961 
        2.00647         120.358         10.8147 
         2.0126         119.384         10.7342 
        2.01874         118.853         10.6545 
        2.02488         118.575         10.5754 
        2.03101         117.504         10.4974 
        2.03714         117.104         10.4202 
        2.04328         116.329         10.3437 
        2.04941         115.855          10.268 
        2.05554         115.097         10.1931 
        2.06167         114.779         10.1189 
        2.06781         113.905         10.0454 
        2.07396         113.532          9.9725 
        2.08009         112.833         9.90048 
        2.08622         112.074         9.82925 
        2.09237         111.718         9.75858 
        2.09851         111.086          9.6886 
        2.10464         110.636         9.61941 
        2.11077         109.932         9.55099 
        2.11691          109.52         9.48308 
        2.12305         108.843         9.41583 
        2.12918         108.096         9.34939 
        2.13531         107.582         9.28359 
        2.14145          106.96         9.21827 
         2.1476         106.315          9.1535 
        2.15372         106.054         9.08968 
        2.15985         105.457         9.02641 
        2.16599         104.695         8.96355 
        2.17213         104.341         8.90136 
        2.17827         103.744         8.83978 
         2.1844         103.022         8.77883 
        2.19054          102.75         8.71843 
        2.19666         102.239         8.65869 
         2.2028         101.587         8.59945 
        2.20893         101.217         8.54074 
        2.21508          100.57         8.48252 
        2.22122         100.084         8.42481 
        2.22736          99.516         8.36776 
        2.23349         99.1101         8.31126 
        2.23962         98.6531         8.25524 
        2.24577         98.0493          8.1997 
         2.2519         97.7521         8.14474 
        2.25802         96.8941         8.09037 
        2.26417         96.6199         8.03635 
        2.27031         96.0573         7.98277 
        2.27644         95.5107         7.92984 
        2.28257         94.9878         7.87739 
        2.28872         94.7406         7.82531 
        2.29486         94.0243         7.77372 
        2.30099         93.4667         7.72269 
        2.30712         93.1219          7.6721 
        2.31326          92.584         7.62188 
         2.3194          92.124         7.57214 
        2.32553         91.7469         7.52292 
        2.33166         91.2838         7.47417 
         2.3378         90.7538         7.42577 
        2.34394         90.3306          7.3778 
        2.35007         89.8861         7.33031 
        2.35619          89.477          7.2833 
        2.36233         88.9335         7.23658 
        2.36848          88.422         7.19019 
        2.37462         88.0896         7.14429 
        2.38075         87.5494         7.09884 
        2.38689         87.1153         7.05375 
        2.39303         86.5861         7.00906 
        2.39916         86.3093          6.9648 
        2.40529          86.024         6.92093 
        2.41143         85.3205          6.8774 
        2.41757         85.0067         6.83423 
         2.4237         84.6201         6.79151 
        2.42983         84.1089         6.74916 
        2.43598         83.6137         6.70706 
        2.44211          83.493         6.66538 
        2.44823         82.9286         6.62415 
        2.45437          82.316         6.58316 
        2.46052         81.9768         6.54249 
        2.46665         81.7334         6.50222 
        2.47279         81.1477         6.46231 
        2.47892         80.8093         6.42271 
        2.48507         80.4061          6.3834 
         2.4912         80.0457          6.3445 
