# k  (h/Mpc)    P(k)  (Mpc/h)^3    P_linear(k)  (Mpc/h)^3
     0.00783031         22665.7         23043.8 
       0.013688         26206.1         25905.6 
       0.019231         24076.4         23969.8 
      0.0249154         19787.7           20206 
      0.0312784         15871.9         15987.1 
      0.0375637         12957.2         12854.6 
      0.0433917         10883.7         10998.8 
      0.0492413         9876.19         9888.08 
      0.0555754         8863.22         9112.38 
      0.0619321         8452.02         8387.54 
       0.067871         7413.24         7566.86 
      0.0738098          6523.8         6613.27 
      0.0800417         5525.17         5607.57 
      0.0862327         4800.99         4759.62 
      0.0921407         4328.31          4170.6 
      0.0982031         3891.65         3786.87 
       0.104506         3751.77         3557.63 
       0.110769         3538.81         3403.67 
       0.116806         3355.74         3241.38 
       0.122832         3145.23         3021.58 
       0.129052         2823.41          2737.5 
       0.135211            2576          2438.3 
       0.141259         2402.83          2173.1 
       0.147318         2230.62         1965.96 
       0.153489         2047.39         1821.87 
       0.159709         1958.36         1730.68 
       0.165845         1902.68         1668.09 
       0.171974         1818.11         1606.48 
       0.178125         1725.33         1528.11 
       0.184229         1628.12         1430.49 
        0.19034         1518.34         1321.51 
       0.196428         1462.07         1215.64 
       0.202534          1391.1         1124.21 
       0.208729         1317.67         1052.45 
       0.214876         1266.62         1000.87 
       0.220989         1222.63         962.559 
       0.227147         1178.66         928.701 
        0.23329         1130.51         892.728 
       0.239377         1106.27         851.684 
       0.245482         1031.46         805.802 
       0.251667         1020.07         758.061 
       0.257832         972.999         713.533 
       0.263955         937.184         675.309 
       0.270079          901.44         643.989 
        0.27624         888.935          618.39 
       0.282372         853.945         596.427 
        0.28843         843.296          575.81 
       0.294538         798.428         554.305 
       0.300721         792.302         531.311 
        0.30691         759.768          507.51 
       0.313033         742.464         484.427 
       0.319153         725.388         462.925 
       0.325316         702.853         443.647 
        0.33145          684.28         426.824 
       0.337538         669.641         412.063 
       0.343633         653.718         398.429 
       0.349808         628.582         385.089 
       0.355968         623.837           371.8 
       0.362074         616.453         358.524 
       0.368217         596.382         345.311 
       0.374374         571.781         332.511 
       0.380519         571.247         320.515 
       0.386598         553.357         309.586 
       0.392688         549.878         299.509 
        0.39888         533.516         290.026 
       0.405048         525.237         281.097 
       0.411186         517.355         272.488 
       0.417313         506.522          264.08 
       0.423458         494.444          255.81 
       0.429607         489.727         247.735 
       0.435692         476.503         240.052 
       0.441815         470.967         232.715 
       0.447964         461.641         225.755 
       0.454126          455.38         219.168 
       0.460267         444.352         212.952 
       0.466387         438.459         207.026 
        0.47254         434.143         201.262 
       0.478662         429.712         195.684 
       0.484765         414.693         190.288 
       0.490885         411.165         185.053 
       0.497035         402.827         179.979 
       0.503198         398.868         175.096 
       0.509342         396.366          170.44 
       0.515458          391.94         166.012 
       0.521598         380.464         161.747 
       0.527764         376.045         157.619 
       0.533884         372.285         153.652 
           0.54         367.394         149.811 
       0.546137           364.7         146.078 
       0.552299         358.757         142.454 
       0.558452         355.985         138.957 
       0.564573         351.908         135.598 
       0.570708         345.544         132.346 
       0.576825         338.312         129.217 
       0.582926         336.968         126.206 
       0.589034         333.102         123.291 
       0.595184         330.952         120.452 
       0.601379         324.003         117.681 
       0.607522         320.746         115.016 
       0.613639         318.221          112.44 
       0.619772         313.292         109.936 
       0.625918         311.162         107.503 
       0.632068         305.895         105.145 
       0.638161         304.188         102.881 
         0.6443         299.931         100.671 
       0.650464         297.293         98.5202 
       0.656582         293.147         96.4482 
       0.662703         293.166         94.4353 
       0.668861         288.963         92.4678 
       0.675024         285.618         90.5541 
       0.681124         282.723         88.7134 
       0.687237         280.125         86.9201 
       0.693381         275.884         85.1683 
       0.699536         272.695         83.4621 
       0.705665         270.648         81.8107 
       0.711789         269.535         80.2062 
       0.717957         267.237         78.6344 
        0.72409         265.364         77.1139 
       0.730186         261.699         75.6431 
       0.736317         259.242         74.2029 
       0.742472         256.831         72.7951 
       0.748622             255         71.4252 
        0.75476         251.713         70.0935 
       0.760888         249.239         68.7979 
       0.767043         248.706           67.53 
       0.773185         246.591         66.2969 
       0.779291         242.641         65.1017 
       0.785407         241.982         63.9344 
       0.791564         239.365         62.7885 
       0.797719         236.984         61.6715 
       0.803834         234.238         60.5889 
       0.809972         233.694         59.5286 
       0.816124         232.497         58.4915 
       0.822261         230.821         57.4821 
       0.828378         228.101         56.4997 
       0.834502         225.986         55.5396 
       0.840667         224.509         54.5957 
       0.846816          223.19         53.6766 
       0.852925         221.584         52.7846 
       0.859047          219.69         51.9111 
       0.865192         216.937         51.0546 
       0.871341         215.052          50.217 
       0.877463         215.096         49.4021 
       0.883569         213.211         48.6075 
       0.889708         210.705         47.8263 
       0.895864         210.256         47.0604 
       0.902008         208.001          46.313 
       0.908149         206.287         45.5823 
       0.914301          204.26         44.8662 
       0.920448         203.055         44.1663 
       0.926574         200.886         43.4838 
       0.932687         200.916         42.8172 
       0.938823         198.316         42.1623 
       0.944975         198.003         41.5196 
       0.951105         196.274         40.8926 
       0.957225         195.315         40.2797 
       0.963368          192.39         39.6773 
       0.969511         191.662         39.0873 
       0.975621         190.233         38.5124 
       0.981748          189.38         37.9477 
       0.987916         188.144         37.3907 
        0.99406         186.647         36.8471 
        1.00019          185.27         36.3154 
        1.00632         184.389         35.7947 
        1.01246         182.754         35.2835 
        1.01859         182.583         34.7831 
        1.02471         179.973         34.2931 
        1.03085         179.003         33.8109 
        1.03698         177.683         33.3389 
        1.04314         176.456         32.8741 
        1.04929          175.71         32.4192 
        1.05541         174.915         31.9748 
        1.06154         172.952         31.5377 
        1.06769         172.656         31.1081 
        1.07382         171.116          30.688 
        1.07993         169.929         30.2766 
        1.08607          169.71         29.8711 
        1.09222         168.004         29.4726 
        1.09836          166.67         29.0819 
        1.10449         165.392         28.6988 
        1.11063          164.23         28.3221 
        1.11677         163.495         27.9524 
         1.1229         161.847           27.59 
        1.12903         161.444         27.2336 
        1.13518         160.439         26.8833 
        1.14131         159.113         26.5394 
        1.14745         159.228         26.2017 
        1.15359         157.298         25.8698 
        1.15973         156.087         25.5435 
        1.16584         155.537         25.2244 
        1.17197         155.208         24.9102 
        1.17811         153.167         24.6005 
        1.18424         152.762         24.2969 
        1.19038         152.087         23.9975 
        1.19652          150.52         23.7034 
        1.20267         150.469         23.4141 
        1.20881          149.12         23.1298 
        1.21495         148.128         22.8506 
        1.22108          147.27         22.5761 
         1.2272         146.102         22.3067 
        1.23334         146.183         22.0412 
        1.23949         144.343         21.7793 
        1.24562         143.812         21.5224 
        1.25174         143.051         21.2701 
        1.25789         142.386          21.021 
        1.26402         140.728         20.7764 
        1.27014         140.012         20.5363 
        1.27628         139.278         20.2993 
        1.28244         139.116         20.0656 
        1.28858         137.781         19.8359 
        1.29471         137.128         19.6103 
        1.30084          136.24         19.3884 
        1.30697         135.003         19.1696 
        1.31312          134.29         18.9539 
        1.31925         133.393         18.7422 
        1.32537         133.349          18.534 
        1.33151         132.144         18.3281 
        1.33765         131.217         18.1256 
        1.34378         130.605         17.9265 
        1.34992         130.104         17.7302 
        1.35606         129.697         17.5365 
         1.3622         128.225          17.346 
        1.36833         127.682         17.1588 
        1.37445         127.126         16.9745 
        1.38059         126.139         16.7923 
        1.38675         125.685         16.6123 
        1.39288         124.741         16.4357 
        1.39901         124.425         16.2618 
        1.40515         123.331           16.09 
         1.4113         122.902         15.9207 
        1.41742         121.699         15.7545 
        1.42355         121.498         15.5904 
         1.4297          120.49         15.4281 
        1.43585          119.89         15.2682 
        1.44198         119.619         15.1112 
        1.44809         118.837         14.9566 
        1.45423         118.407         14.8037 
        1.46036         117.314         14.6532 
        1.46649         116.604         14.5047 
        1.47263         115.908         14.3582 
        1.47877         115.057         14.2138 
        1.48491         114.379         14.0711 
        1.49104         114.176         13.9307 
        1.49718         113.206         13.7921 
        1.50333         112.477         13.6551 
        1.50947         111.958         13.5203 
         1.5156         111.494         13.3876 
        1.52172         110.877         13.2566 
        1.52787         110.002         13.1271 
          1.534         109.681         12.9995 
        1.54013         109.144         12.8737 
        1.54627         108.559         12.7494 
        1.55241         107.764         12.6266 
        1.55855         107.217         12.5057 
        1.56467          106.38         12.3867 
         1.5708         105.764         12.2689 
        1.57695         105.668         12.1525 
        1.58308         105.125         12.0378 
        1.58922         104.479         11.9245 
        1.59535         103.838         11.8128 
         1.6015         103.542         11.7023 
        1.60764         102.959         11.5933 
        1.61376         102.191         11.4859 
        1.61989         101.528         11.3799 
        1.62604         100.979         11.2749 
        1.63218         100.753         11.1714 
        1.63831         100.155         11.0693 
        1.64444         99.4854         10.9685 
        1.65059         98.7618         10.8688 
        1.65673          98.489         10.7703 
        1.66285         98.0693         10.6734 
        1.66898         97.3867         10.5776 
        1.67512          96.566         10.4829 
        1.68127         96.3654         10.3892 
         1.6874          95.894         10.2968 
        1.69353         95.4748         10.2056 
        1.69967         94.9247         10.1153 
        1.70581         94.0486         10.0262 
        1.71193         93.5603         9.93845 
        1.71806         93.4389         9.85157 
        1.72421         92.8971         9.76556 
        1.73035          92.568         9.68067 
        1.73649         91.9583         9.59681 
        1.74262         91.5185         9.51401 
        1.74876         91.0739         9.43213 
        1.75489         90.3707         9.35139 
        1.76101           89.88         9.27161 
        1.76715         89.5523         9.19266 
        1.77329         88.9785         9.11453 
        1.77943         88.6705         9.03727 
        1.78557         88.3305         8.96103 
        1.79171         87.4662         8.88565 
        1.79785         87.0847         8.81112 
        1.80399         86.6947         8.73746 
        1.81012         86.1976         8.66474 
        1.81625         85.9027         8.59288 
        1.82239         85.3243         8.52173 
        1.82853         84.7896         8.45142 
        1.83466          84.475         8.38197 
        1.84078         84.1334         8.31337 
        1.84692         83.3877         8.24542 
        1.85306         83.2061         8.17816 
         1.8592         82.6725         8.11174 
        1.86533         82.3098         8.04611 
        1.87147         81.7203         7.98112 
        1.87761         81.2194         7.91682 
        1.88375         80.9805          7.8533 
        1.88988         80.4079         7.79055 
        1.89601         79.9734         7.72846 
        1.90215         79.5938         7.66698 
        1.90829         79.2404         7.60621 
        1.91442         78.8584         7.54609 
        1.92056         78.3492         7.48668 
         1.9267         78.0767         7.42784 
        1.93284         77.6222          7.3696 
        1.93897         77.1252         7.31209 
        1.94509         76.8998         7.25532 
        1.95123         76.4899         7.19901 
        1.95737         75.9879         7.14326 
        1.96349         75.6231         7.08824 
        1.96964         75.0469         7.03364 
        1.97578         74.7364         6.97959 
        1.98192         74.5786         6.92622 
        1.98805         74.1947         6.87339 
        1.99419         73.6528         6.82112 
        2.00033         73.3933         6.76936 
        2.00647         73.0047         6.71816 
         2.0126         72.5965         6.66757 
        2.01874         72.2465         6.61743 
        2.02488         71.9322         6.56775 
        2.03101         71.4883         6.51868 
        2.03714         71.0056         6.47016 
        2.04328         70.7189         6.42207 
        2.04941         70.3899         6.37451 
        2.05554         70.0553         6.32747 
        2.06167         69.6531         6.28084 
        2.06781         69.1407         6.23467 
        2.07396         68.9149          6.1889 
        2.08009         68.6966         6.14367 
        2.08622         68.2458         6.09894 
        2.09237          68.036         6.05457 
        2.09851         67.6176         6.01063 
        2.10464         67.3258          5.9672 
        2.11077         66.8348         5.92425 
        2.11691         66.6935         5.88163 
        2.12305         66.2762         5.83942 
        2.12918         65.8968         5.79773 
        2.13531         65.4749         5.75645 
        2.14145         65.3479         5.71546 
         2.1476         64.9053         5.67483 
        2.15372         64.5879          5.6348 
        2.15985         64.2133         5.59512 
        2.16599         63.9465          5.5557 
        2.17213         63.5269          5.5167 
        2.17827         63.1498         5.47809 
         2.1844         62.9771         5.43988 
        2.19054         62.5471         5.40203 
        2.19666         62.3395         5.36458 
         2.2028         62.1087         5.32746 
        2.20893         61.6487         5.29067 
        2.21508         61.5447         5.25419 
        2.22122         61.0709         5.21803 
        2.22736         60.7785          5.1823 
        2.23349         60.5589          5.1469 
        2.23962         60.2169         5.11182 
        2.24577         59.9861         5.07703 
         2.2519          59.702         5.04262 
        2.25802         59.3462         5.00858 
        2.26417         59.0669         4.97475 
        2.27031         58.8055         4.94121 
        2.27644         58.3793         4.90808 
        2.28257          58.179         4.87525 
        2.28872         57.9714         4.84265 
        2.29486         57.5024         4.81037 
        2.30099         57.1493         4.77844 
        2.30712         56.9827         4.74678 
        2.31326         56.6903         4.71536 
         2.3194          56.414         4.68425 
        2.32553         56.2245         4.65346 
        2.33166         55.8666         4.62297 
         2.3378         55.6078          4.5927 
        2.34394         55.3102          4.5627 
        2.35007         55.0156         4.53301 
        2.35619         54.7404         4.50361 
        2.36233         54.5301         4.47441 
        2.36848         54.1573         4.44541 
        2.37462         54.0161         4.41672 
        2.38075         53.6991         4.38832 
        2.38689         53.4715         4.36014 
        2.39303          53.162         4.33221 
        2.39916         52.8151         4.30456 
        2.40529         52.7173         4.27715 
        2.41143         52.1964         4.24996 
        2.41757         52.1718         4.22299 
         2.4237         51.9165         4.19631 
        2.42983         51.6421         4.16986 
        2.43598         51.3637         4.14356 
        2.44211         51.0707         4.11754 
        2.44823         50.8783         4.09179 
        2.45437         50.6527          4.0662 
        2.46052         50.4307          4.0408 
        2.46665         50.1973         4.01567 
        2.47279         49.8203         3.99076 
        2.47892         49.6475         3.96604 
        2.48507         49.3607          3.9415 
         2.4912         49.0858         3.91722 
