# k  (h/Mpc)    P(k)  (Mpc/h)^3    P_linear(k)  (Mpc/h)^3
     0.00783031          7758.4         7811.94 
       0.013688         9607.01          9812.2 
       0.019231         9910.56         10026.3 
      0.0249154         9311.68         9299.49 
      0.0312784         7983.71         8034.35 
      0.0375637          6724.4         6803.23 
      0.0433917          5880.5         5892.17 
      0.0492413         5199.09         5242.12 
      0.0555754          4773.2         4779.12 
      0.0619321         4344.57         4458.56 
       0.067871         4135.05         4192.38 
      0.0738098         3861.61          3895.6 
      0.0800417         3513.28         3530.78 
      0.0862327         3112.14         3136.42 
      0.0921407         2764.88         2771.82 
      0.0982031         2477.91         2449.03 
       0.104506         2195.82         2192.16 
       0.110769          2031.4         2017.18 
       0.116806          1949.5         1907.57 
       0.122832         1846.44         1830.64 
       0.129052          1771.8         1757.93 
       0.135211         1708.98         1672.06 
       0.141259         1585.23         1566.45 
       0.147318         1452.75         1444.09 
       0.153489          1345.2         1315.32 
       0.159709         1258.91         1196.24 
       0.165845         1141.31         1099.81 
       0.171974         1105.27         1028.11 
       0.178125         1059.74         978.125 
       0.184229          993.86         943.165 
        0.19034         977.081         913.923 
       0.196428         947.461         882.675 
       0.202534         886.175         844.484 
       0.208729         864.078         798.098 
       0.214876         822.156         747.479 
       0.220989         763.308           697.4 
       0.227147         739.569         651.857 
        0.23329         707.543         614.272 
       0.239377         692.757         585.418 
       0.245482         658.497         563.476 
       0.251667          634.16         545.706 
       0.257832         627.965         529.385 
       0.263955         595.002         512.032 
       0.270079         574.155          492.29 
        0.27624         549.061         470.119 
       0.282372         534.933         446.906 
        0.28843         528.613         424.503 
       0.294538         500.683         403.884 
       0.300721          483.79         385.987 
        0.30691          475.59         371.146 
       0.313033         454.721         358.994 
       0.319153         447.429         348.375 
       0.325316         437.777         338.218 
        0.33145         427.269         327.791 
       0.337538         412.022         316.793 
       0.343633         399.336         305.138 
       0.349808         388.564         293.136 
       0.355968         380.274         281.483 
       0.362074         368.765         270.764 
       0.368217         364.714         261.114 
       0.374374         356.579         252.591 
       0.380519         342.178         245.081 
       0.386598         337.494         238.267 
       0.392688          329.15          231.73 
        0.39888         321.157         225.109 
       0.405048         314.961         218.363 
       0.411186         312.542         211.557 
       0.417313         306.718         204.776 
       0.423458         298.283         198.159 
       0.429607         290.842         191.911 
       0.435692         285.768         186.186 
       0.441815          280.43         180.879 
       0.447964         273.144         175.976 
       0.454126         269.216         171.371 
       0.460267          265.58         166.952 
       0.466387         260.233         162.629 
        0.47254         256.944         158.326 
       0.478662         249.687         154.066 
       0.484765         246.677         149.872 
       0.490885         243.279         145.788 
       0.497035         239.705         141.864 
       0.503198         237.354         138.133 
       0.509342         231.052         134.616 
       0.515458         228.088         131.312 
       0.521598          223.07         128.159 
       0.527764         220.605         125.107 
       0.533884         219.731         122.149 
           0.54         214.877          119.25 
       0.546137         210.062         116.401 
       0.552299         208.516         113.605 
       0.558452         204.887         110.888 
       0.564573         203.553         108.269 
       0.570708         199.001         105.745 
       0.576825         196.213         103.337 
       0.582926         194.184         101.039 
       0.589034         191.352         98.8245 
       0.595184         189.836         96.6653 
       0.601379         186.083         94.5476 
       0.607522         182.619         92.4993 
       0.613639         181.333         90.5116 
       0.619772         179.472         88.5711 
       0.625918         177.856         86.6798 
       0.632068         173.967         84.8411 
       0.638161         172.403         83.0731 
         0.6443         171.296         81.3463 
       0.650464         168.052         79.6683 
       0.656582         167.022          78.057 
       0.662703         165.391         76.4953 
       0.668861         162.113         74.9702 
       0.675024         162.057         73.4854 
       0.681124         159.548          72.053 
       0.687237         157.523         70.6512 
       0.693381         156.026         69.2766 
       0.699536         154.299         67.9341 
       0.705665         152.512         66.6327 
       0.711789         150.686         65.3678 
       0.717957         148.996         64.1299 
        0.72409          147.67          62.934 
       0.730186         147.532         61.7781 
       0.736317         145.059         60.6463 
       0.742472         143.082         59.5394 
       0.748622         140.927         58.4611 
        0.75476         141.399         57.4109 
       0.760888         139.797         56.3871 
       0.767043         137.377         55.3833 
       0.773185             136         54.4056 
       0.779291         134.423         53.4569 
       0.785407         133.416         52.5296 
       0.791564         132.511         51.6188 
       0.797719         130.702         50.7307 
       0.803834         130.534         49.8698 
       0.809972         129.473         49.0263 
       0.816124         127.558         48.2011 
       0.822261         126.387         47.3974 
       0.828378         126.146         46.6148 
       0.834502         124.246         45.8493 
       0.840667         123.713         45.0963 
       0.846816         122.457         44.3622 
       0.852925         121.152         43.6492 
       0.859047         120.262         42.9504 
       0.865192         119.348         42.2647 
       0.871341         118.049         41.5936 
       0.877463         117.157         40.9402 
       0.883569         117.015         40.3025 
       0.889708         115.901         39.6753 
       0.895864         114.826           39.06 
       0.902008         113.672         38.4591 
       0.908149         112.274         37.8713 
       0.914301         112.243          37.295 
       0.920448         111.787         36.7313 
       0.926574         109.661         36.1813 
       0.932687         109.599         35.6439 
       0.938823         108.735         35.1155 
       0.944975         107.581         34.5967 
       0.951105         106.651         34.0903 
       0.957225         106.463          33.595 
       0.963368         105.265         33.1079 
       0.969511         104.526         32.6305 
       0.975621         103.516         32.1652 
       0.981748         102.769         31.7078 
       0.987916         102.117         31.2565 
        0.99406         101.731         30.8157 
        1.00019         100.564         30.3843 
        1.00632         99.8989         29.9617 
        1.01246         99.2792         29.5465 
        1.01859         98.7975         29.1399 
        1.02471         98.0166         28.7415 
        1.03085         97.0918         28.3493 
        1.03698         96.4561         27.9652 
        1.04314         95.8124         27.5867 
        1.04929         95.4382         27.2161 
        1.05541         94.7103         26.8538 
        1.06154         94.0939         26.4973 
        1.06769         93.3496         26.1468 
        1.07382         92.5684         25.8038 
        1.07993         92.2318         25.4678 
        1.08607         91.4696         25.1365 
        1.09222         91.1231         24.8107 
        1.09836         90.2163         24.4911 
        1.10449         89.7405         24.1776 
        1.11063         89.1643         23.8692 
        1.11677         88.5591         23.5664 
         1.1229         87.8739         23.2694 
        1.12903         87.5355         22.9773 
        1.13518         87.0491           22.69 
        1.14131         86.3801         22.4078 
        1.14745         85.9174         22.1305 
        1.15359         84.8848          21.858 
        1.15973         84.7738         21.5899 
        1.16584         84.2041         21.3276 
        1.17197          83.661         21.0693 
        1.17811         83.0408         20.8145 
        1.18424         82.3926         20.5646 
        1.19038         82.3028         20.3182 
        1.19652         81.6933         20.0759 
        1.20267         81.1103         19.8376 
        1.20881         80.6175         19.6032 
        1.21495         80.1604          19.373 
        1.22108         79.8632         19.1465 
         1.2272          79.053         18.9243 
        1.23334         78.8782          18.705 
        1.23949          78.322         18.4888 
        1.24562         77.7017         18.2765 
        1.25174         77.2934          18.068 
        1.25789         77.1399          17.862 
        1.26402         76.5375         17.6597 
        1.27014          76.182          17.461 
        1.27628         75.4836         17.2647 
        1.28244         75.3721         17.0711 
        1.28858         74.7816         16.8808 
        1.29471          74.344         16.6938 
        1.30084         73.7021         16.5098 
        1.30697         73.7347         16.3284 
        1.31312         73.1276         16.1494 
        1.31925         72.6378         15.9737 
        1.32537         72.2802         15.8007 
        1.33151          72.028         15.6298 
        1.33765         71.5003         15.4614 
        1.34378         71.1529         15.2959 
        1.34992         70.8671         15.1328 
        1.35606         70.3395         14.9716 
         1.3622         70.1061         14.8131 
        1.36833         69.5358         14.6573 
        1.37445         69.0204         14.5038 
        1.38059         68.8781         14.3521 
        1.38675         68.1705         14.2022 
        1.39288         68.1452          14.055 
        1.39901         67.5209           13.91 
        1.40515         67.2961         13.7667 
         1.4113         67.0264         13.6255 
        1.41742         66.5622         13.4868 
        1.42355         66.3078         13.3498 
         1.4297         65.8917         13.2143 
        1.43585         65.4667         13.0808 
        1.44198         65.1368         12.9496 
        1.44809         64.6963         12.8204 
        1.45423         64.4802         12.6926 
        1.46036         64.0431         12.5667 
        1.46649         63.7807         12.4425 
        1.47263         63.4631         12.3199 
        1.47877         63.2148          12.199 
        1.48491         62.8051         12.0795 
        1.49104         62.3113         11.9619 
        1.49718         62.1213         11.8458 
        1.50333         61.7946          11.731 
        1.50947         61.5573          11.618 
         1.5156         61.3129         11.5066 
        1.52172         60.8086         11.3967 
        1.52787         60.4489         11.2881 
          1.534          60.199          11.181 
        1.54013          60.056         11.0754 
        1.54627         59.4865          10.971 
        1.55241         59.2423         10.8679 
        1.55855         58.9919         10.7663 
        1.56467         58.4822         10.6662 
         1.5708         58.4129         10.5672 
        1.57695         58.0591         10.4693 
        1.58308         57.7384         10.3728 
        1.58922         57.4812         10.2775 
        1.59535         57.3285         10.1834 
         1.6015         57.1747         10.0904 
        1.60764         56.7559         9.99864 
        1.61376         56.4218         9.90823 
        1.61989         55.9884         9.81888 
        1.62604         55.8234         9.73043 
        1.63218         55.5338         9.64314 
        1.63831           55.36         9.55711 
        1.64444         55.1114         9.47211 
        1.65059         54.7537         9.38795 
        1.65673         54.4118         9.30489 
        1.66285         54.2181         9.22308 
        1.66898         53.7913         9.14223 
        1.67512         53.6403         9.06219 
        1.68127         53.4395         8.98304 
         1.6874         53.1044         8.90502 
        1.69353         52.8798         8.82797 
        1.69967         52.6744         8.75165 
        1.70581         52.3128         8.67626 
        1.71193         52.1117         8.60206 
        1.71806         51.8231         8.52856 
        1.72421         51.6559         8.45578 
        1.73035         51.3829         8.38393 
        1.73649         51.0288         8.31294 
        1.74262         50.6713         8.24283 
        1.74876         50.6834         8.17348 
        1.75489         50.2986         8.10508 
        1.76101         50.0698         8.03748 
        1.76715          49.995         7.97056 
        1.77329         49.4882         7.90433 
        1.77943         49.4878         7.83882 
        1.78557         49.2211         7.77415 
        1.79171         48.9483          7.7102 
        1.79785         48.7159         7.64696 
        1.80399         48.4436         7.58445 
        1.81012         48.2523         7.52272 
        1.81625         47.9744          7.4617 
        1.82239         47.7466         7.40127 
        1.82853         47.5344         7.34155 
        1.83466         47.3287         7.28254 
        1.84078         47.0963         7.22424 
        1.84692         46.8656         7.16649 
        1.85306         46.6175          7.1093 
         1.8592         46.4466         7.05283 
        1.86533         46.2083         6.99701 
        1.87147         45.9748         6.94172 
        1.87761         45.7533         6.88702 
        1.88375         45.5472         6.83296 
        1.88988         45.3706         6.77955 
        1.89601         45.1173         6.72668 
        1.90215          44.865         6.67433 
        1.90829         44.7241         6.62257 
        1.91442         44.4467         6.57135 
        1.92056         44.2996         6.52072 
         1.9267         44.1523         6.47058 
        1.93284         43.9017         6.42093 
        1.93897         43.7151          6.3719 
        1.94509         43.3818         6.32348 
        1.95123          43.253         6.27545 
        1.95737         43.0265         6.22788 
        1.96349         42.9161         6.18093 
        1.96964         42.6229         6.13433 
        1.97578         42.4434         6.08818 
        1.98192         42.2181         6.04261 
        1.98805         42.0259          5.9975 
        1.99419         41.8708         5.95285 
        2.00033         41.7129         5.90863 
        2.00647         41.5392         5.86488 
         2.0126         41.2753         5.82164 
        2.01874         41.1318         5.77877 
        2.02488          40.877          5.7363 
        2.03101         40.7685         5.69434 
        2.03714         40.5375         5.65283 
        2.04328         40.3923          5.6117 
        2.04941         40.1554           5.571 
        2.05554         40.0319         5.53074 
        2.06167         39.8715         5.49083 
        2.06781         39.5953          5.4513 
        2.07396         39.4223         5.41211 
        2.08009         39.2747         5.37337 
        2.08622          39.119         5.33505 
        2.09237         38.9101         5.29704 
        2.09851         38.7448         5.25939 
        2.10464         38.5742         5.22216 
        2.11077         38.4305         5.18534 
        2.11691         38.1445          5.1488 
        2.12305         37.9547         5.11261 
        2.12918         37.8635         5.07685 
        2.13531         37.6969         5.04144 
        2.14145         37.5202         5.00628 
         2.1476         37.3688         4.97141 
        2.15372          37.261         4.93705 
        2.15985         36.9661         4.90299 
        2.16599         36.8153         4.86915 
        2.17213         36.6725         4.83566 
        2.17827         36.5027          4.8025 
         2.1844         36.3035         4.76968 
        2.19054         36.1896         4.73716 
        2.19666         35.9744         4.70498 
         2.2028         35.7917         4.67308 
        2.20893           35.69         4.64146 
        2.21508         35.5437         4.61009 
        2.22122         35.3721         4.57901 
        2.22736         35.1297         4.54827 
        2.23349          35.061         4.51783 
        2.23962         34.8821         4.48765 
        2.24577         34.7264         4.45772 
         2.2519         34.5297          4.4281 
        2.25802         34.4292          4.3988 
        2.26417         34.2456         4.36969 
        2.27031         34.1075         4.34081 
        2.27644         34.0547         4.31227 
        2.28257         33.7292           4.284 
        2.28872         33.7448         4.25593 
        2.29486          33.538         4.22811 
        2.30099         33.3241          4.2006 
        2.30712         33.2593         4.17332 
        2.31326         33.0531         4.14624 
         2.3194         32.8812         4.11942 
        2.32553         32.7928         4.09287 
        2.33166         32.6215         4.06658 
         2.3378         32.4714         4.04048 
        2.34394         32.3355          4.0146 
        2.35007         32.2399         3.98898 
        2.35619         32.1095         3.96362 
        2.36233         31.8791         3.93842 
        2.36848         31.8075         3.91339 
        2.37462         31.6584         3.88863 
        2.38075         31.5064          3.8641 
        2.38689         31.3974         3.83977 
        2.39303         31.2918         3.81565 
        2.39916         31.0262         3.79177 
        2.40529         30.9448         3.76809 
        2.41143         30.8183          3.7446 
        2.41757         30.7343         3.72129 
         2.4237         30.5833         3.69823 
        2.42983         30.4082         3.67536 
        2.43598         30.2978         3.65263 
        2.44211         30.1712         3.63013 
        2.44823         29.9935         3.60787 
        2.45437         29.9502         3.58573 
        2.46052         29.7491         3.56376 
        2.46665         29.6309         3.54202 
        2.47279         29.4405         3.52046 
        2.47892         29.3781         3.49907 
        2.48507           29.27         3.47784 
         2.4912           29.14         3.45682 
