# k  (h/Mpc)    Pcb(k)  (Mpc/h)^3    Pcb_linear(k)  (Mpc/h)^3
     0.00783031         7839.91         7936.73 
       0.013688         9827.44         9773.28 
       0.019231         9913.09         9896.25 
      0.0249154         9017.28         9148.11 
      0.0312784         7858.25         7907.24 
      0.0375637         6720.33         6707.91 
      0.0433917         5753.49         5812.45 
      0.0492413         5147.41         5160.62 
      0.0555754         4594.71         4681.91 
      0.0619321         4364.09         4342.09 
       0.067871         3998.64         4064.52 
      0.0738098         3704.54         3768.27 
      0.0800417            3333         3416.59 
      0.0862327         2999.51         3042.32 
      0.0921407         2693.85          2696.3 
      0.0982031         2375.88         2386.51 
       0.104506         2180.81         2134.36 
       0.110769         1998.99         1956.37 
       0.116806         1867.83         1839.75 
       0.122832         1789.43         1755.65 
       0.129052         1680.56         1678.99 
       0.135211         1598.86         1594.73 
       0.141259         1521.54         1495.79 
       0.147318         1422.06         1382.98 
       0.153489         1295.81         1263.88 
       0.159709         1205.07         1151.89 
       0.165845         1136.18         1058.68 
       0.171974         1059.17         986.652 
       0.178125         1007.01         934.034 
       0.184229         967.817         895.871 
        0.19034         910.776         864.492 
       0.196428         895.587         833.296 
       0.202534         867.012         797.596 
       0.208729          821.31         755.569 
       0.214876         774.447         709.877 
       0.220989         743.745          664.06 
       0.227147         700.096         621.332 
        0.23329         667.858         584.805 
       0.239377         649.778         555.561 
       0.245482         607.092         532.483 
       0.251667         600.994         513.569 
       0.257832         580.622         496.762 
       0.263955         561.456         479.993 
       0.270079         540.883         461.831 
        0.27624         532.482         441.895 
       0.282372         509.795         421.065 
        0.28843         493.711         400.621 
       0.294538           469.6         381.341 
       0.300721         464.716         364.004 
        0.30691         442.867         349.167 
       0.313033         433.184           336.7 
       0.319153         418.187         325.829 
       0.325316         407.031         315.696 
        0.33145         394.558         305.758 
       0.337538         388.974         295.604 
       0.343633         375.963         285.087 
       0.349808         363.573         274.232 
       0.355968         358.545         263.592 
       0.362074         350.044         253.581 
       0.368217         340.349         244.332 
       0.374374         327.633         235.989 
       0.380519          323.38         228.504 
       0.386598          315.22         221.753 
       0.392688         311.909          215.38 
        0.39888         303.373          209.08 
       0.405048         296.513         202.844 
       0.411186         290.231         196.612 
       0.417313          284.67         190.429 
       0.423458         278.947         184.364 
       0.429607         272.779         178.536 
       0.435692          265.26         173.109 
       0.441815          263.18         168.021 
       0.447964         258.082         163.258 
       0.454126         248.274         158.788 
       0.460267         245.261         154.557 
       0.466387         242.275         150.476 
        0.47254         236.982         146.455 
       0.478662          235.63         142.526 
       0.484765         228.349          138.68 
       0.490885         225.244         134.912 
       0.497035         221.875         131.254 
       0.503198         216.533         127.753 
       0.509342         214.065         124.433 
       0.515458         211.159         121.286 
       0.521598         207.597         118.275 
       0.527764          204.44         115.379 
       0.533884         201.624         112.604 
           0.54         198.532         109.904 
       0.546137         197.255         107.257 
       0.552299         193.434         104.665 
       0.558452         190.765          102.15 
       0.564573         187.602          99.725 
       0.570708         184.285          97.375 
       0.576825         181.976         95.1155 
       0.582926         179.191         92.9481 
       0.589034         176.933         90.8614 
       0.595184         174.961          88.835 
       0.601379         173.066         86.8591 
       0.607522         169.367         84.9542 
       0.613639         168.616         83.1061 
       0.619772         164.936         81.3024 
       0.625918         163.388         79.5452 
       0.632068          161.45         77.8381 
       0.638161         160.232         76.1974 
         0.6443         157.891          74.594 
       0.650464         156.229         73.0329 
       0.656582         154.435           71.53 
       0.662703          152.42         70.0715 
       0.668861         150.165         68.6476 
       0.675024         148.459         67.2634 
       0.681124         147.569         65.9318 
       0.687237         144.974         64.6328 
       0.693381         143.028         63.3614 
       0.699536         141.943         62.1202 
       0.705665         141.945         60.9166 
       0.711789         138.664         59.7455 
       0.717957         138.214         58.5974 
        0.72409          136.23         57.4868 
       0.730186          134.11         56.4129 
       0.736317         133.404         55.3618 
       0.742472          132.45         54.3345 
       0.748622         131.226         53.3348 
        0.75476         130.002         52.3626 
       0.760888         128.151         51.4161 
       0.767043         127.411         50.4888 
       0.773185         126.027          49.586 
       0.779291         124.315         48.7101 
       0.785407         123.614          47.854 
       0.791564         122.413          47.013 
       0.797719         120.601         46.1928 
       0.803834         120.054         45.3975 
       0.809972         118.521         44.6183 
       0.816124         118.214          43.856 
       0.822261         116.912         43.1138 
       0.828378         115.823         42.3911 
       0.834502         115.299         41.6846 
       0.840667         113.728         40.9898 
       0.846816         112.587         40.3129 
       0.852925         111.806         39.6555 
       0.859047         110.435         39.0115 
       0.865192         109.887         38.3797 
       0.871341         108.873         37.7616 
       0.877463          107.74         37.1599 
       0.883569         107.025         36.5728 
       0.889708         106.265         35.9955 
       0.895864         105.304         35.4293 
       0.902008         104.493         34.8764 
       0.908149         103.906         34.3358 
       0.914301           102.8         33.8057 
       0.920448         102.111         33.2874 
       0.926574          101.38         32.7818 
       0.932687         101.039         32.2879 
       0.938823         99.4694         31.8024 
       0.944975         98.6824         31.3258 
       0.951105         98.1113         30.8607 
       0.957225           96.95         30.4059 
       0.963368         96.4648         29.9587 
       0.969511         96.1274         29.5206 
       0.975621         95.6361         29.0936 
       0.981748         94.7692          28.674 
       0.987916          93.843         28.2601 
        0.99406         93.2692         27.8559 
        1.00019          92.532         27.4604 
        1.00632         91.9852          27.073 
        1.01246         91.2462         26.6926 
        1.01859         90.0768           26.32 
        1.02471         90.1914         25.9551 
        1.03085         89.2406         25.5958 
        1.03698         88.6867         25.2442 
        1.04314         87.8389         24.8976 
        1.04929         87.3365         24.5584 
        1.05541         86.6452         24.2269 
        1.06154         86.3139         23.9007 
        1.06769         85.8502           23.58 
        1.07382         85.4249         23.2663 
        1.07993         84.8043         22.9591 
        1.08607         84.0949         22.6561 
        1.09222         83.6853         22.3583 
        1.09836         83.0343         22.0662 
        1.10449         82.5549         21.7797 
        1.11063         81.9638          21.498 
        1.11677         81.5313         21.2213 
         1.1229         80.7408         20.9501 
        1.12903         79.9538         20.6833 
        1.13518         80.2189          20.421 
        1.14131         79.5632         20.1634 
        1.14745         78.7118         19.9104 
        1.15359         78.4107         19.6617 
        1.15973         77.9519         19.4171 
        1.16584         77.3892         19.1778 
        1.17197         76.9324         18.9423 
        1.17811         76.4901         18.7099 
        1.18424         75.8933         18.4822 
        1.19038         75.4578         18.2576 
        1.19652         75.1606         18.0368 
        1.20267         74.4909         17.8196 
        1.20881         74.1349         17.6061 
        1.21495         73.5736         17.3965 
        1.22108         73.2053         17.1902 
         1.2272         72.5685         16.9879 
        1.23334         72.3041         16.7883 
        1.23949          71.927         16.5915 
        1.24562          71.543         16.3983 
        1.25174         71.1352         16.2086 
        1.25789         70.7902         16.0212 
        1.26402         70.3722         15.8372 
        1.27014         69.6819         15.6565 
        1.27628         69.5219         15.4781 
        1.28244          68.921         15.3021 
        1.28858         68.6378         15.1291 
        1.29471         68.3708         14.9591 
        1.30084         67.9087          14.792 
        1.30697          67.469         14.6271 
        1.31312         67.0854         14.4645 
        1.31925         66.8539         14.3049 
        1.32537          66.528         14.1478 
        1.33151         65.8469         13.9926 
        1.33765         65.5916         13.8398 
        1.34378         65.1941         13.6896 
        1.34992         64.9138         13.5415 
        1.35606         64.5523         13.3952 
         1.3622         64.0127         13.2514 
        1.36833         63.8619         13.1101 
        1.37445         63.5152         12.9709 
        1.38059         63.0104         12.8333 
        1.38675         62.6967         12.6973 
        1.39288         62.3403         12.5639 
        1.39901         62.1923         12.4324 
        1.40515         61.7976         12.3026 
         1.4113         61.4724         12.1746 
        1.41742         61.2675          12.049 
        1.42355          60.749         11.9249 
         1.4297         60.4982         11.8021 
        1.43585         60.0963         11.6812 
        1.44198         59.8535         11.5624 
        1.44809         59.5691         11.4454 
        1.45423         59.2725         11.3297 
        1.46036         59.0098         11.2158 
        1.46649         58.6521         11.1034 
        1.47263         58.2675         10.9924 
        1.47877         58.1066          10.883 
        1.48491         57.8909          10.775 
        1.49104         57.4311         10.6686 
        1.49718         56.9839         10.5636 
        1.50333         56.8317         10.4598 
        1.50947         56.5416         10.3576 
         1.5156         56.2413          10.257 
        1.52172         56.0323         10.1577 
        1.52787          55.877         10.0595 
          1.534         55.4878         9.96269 
        1.54013         55.1646         9.86729 
        1.54627         54.9653         9.77296 
        1.55241         54.5694         9.67984 
        1.55855         54.2706         9.58808 
        1.56467         53.8684         9.49775 
         1.5708         53.8703         9.40834 
        1.57695         53.5906         9.31994 
        1.58308         53.2362         9.23287 
        1.58922          53.192         9.14686 
        1.59535         52.9268         9.06198 
         1.6015         52.4137         8.97806 
        1.60764         52.2827         8.89523 
        1.61376         51.9838         8.81369 
        1.61989         51.6527         8.73309 
        1.62604         51.5538         8.65333 
        1.63218         51.3775         8.57461 
        1.63831         51.0657         8.49705 
        1.64444         50.7818         8.42042 
        1.65059         50.4133         8.34456 
        1.65673          50.257         8.26971 
        1.66285          49.988         8.19598 
        1.66898         49.7498         8.12314 
        1.67512         49.4723         8.05103 
        1.68127         49.1903         7.97974 
         1.6874         49.0844         7.90946 
        1.69353         48.7588         7.84008 
        1.69967         48.5428         7.77136 
        1.70581         48.4715         7.70349 
        1.71193         48.1873         7.63669 
        1.71806         47.7601         7.57054 
        1.72421         47.6636         7.50504 
        1.73035         47.3922         7.44039 
        1.73649         47.0261         7.37651 
        1.74262         47.0046         7.31343 
        1.74876         46.8111         7.25105 
        1.75489         46.5082         7.18953 
        1.76101         46.3408         7.12873 
        1.76715         46.0641         7.06856 
        1.77329         45.8513         7.00901 
        1.77943         45.6699         6.95011 
        1.78557         45.4975         6.89198 
        1.79171         45.1977         6.83451 
        1.79785         45.0127         6.77767 
        1.80399         44.8574          6.7215 
        1.81012         44.6674         6.66604 
        1.81625          44.265         6.61122 
        1.82239         44.1674         6.55694 
        1.82853         43.8292          6.5033 
        1.83466         43.7707          6.4503 
        1.84078         43.4039         6.39795 
        1.84692         43.2674          6.3461 
        1.85306         43.0823         6.29476 
         1.8592         42.8321         6.24406 
        1.86533         42.6896         6.19396 
        1.87147         42.5269         6.14434 
        1.87761         42.3638         6.09524 
        1.88375         42.1148         6.04674 
        1.88988         42.0728         5.99882 
        1.89601         41.7386         5.95139 
        1.90215         41.5807         5.90444 
        1.90829         41.4783         5.85801 
        1.91442         41.2271         5.81208 
        1.92056         41.0222         5.76668 
         1.9267           40.73         5.72172 
        1.93284         40.5911         5.67721 
        1.93897         40.4601         5.63326 
        1.94509          40.183         5.58987 
        1.95123         40.1116         5.54682 
        1.95737         39.8489          5.5042 
        1.96349         39.6725         5.46213 
        1.96964         39.5548         5.42038 
        1.97578         39.3347         5.37905 
        1.98192         39.1627         5.33823 
        1.98805         39.0109         5.29783 
        1.99419         38.7377         5.25784 
        2.00033         38.5974         5.21825 
        2.00647         38.4354         5.17907 
         2.0126         38.2456         5.14036 
        2.01874         38.1134         5.10199 
        2.02488         37.9924         5.06398 
        2.03101         37.7319         5.02642 
        2.03714         37.5746         4.98928 
        2.04328         37.3785         4.95247 
        2.04941         37.2148         4.91606 
        2.05554         37.0014         4.88004 
        2.06167         36.9469         4.84434 
        2.06781         36.7269         4.80899 
        2.07396          36.554         4.77394 
        2.08009         36.4308         4.73929 
        2.08622         36.2121         4.70504 
        2.09237          36.043         4.67105 
        2.09851         35.8594         4.63739 
        2.10464         35.7603         4.60412 
        2.11077         35.6065         4.57121 
        2.11691           35.43         4.53855 
        2.12305         35.2323         4.50621 
        2.12918         35.1592         4.47426 
        2.13531         34.9313         4.44262 
        2.14145         34.8679         4.41121 
         2.1476          34.627         4.38007 
        2.15372         34.4366         4.34938 
        2.15985         34.3364         4.31896 
        2.16599         34.2997         4.28874 
        2.17213         34.1608         4.25884 
        2.17827         33.8639         4.22924 
         2.1844         33.7313         4.19994 
        2.19054         33.5745          4.1709 
        2.19666         33.4527         4.14219 
         2.2028         33.2993         4.11371 
        2.20893         33.2035         4.08549 
        2.21508         33.0399         4.05751 
        2.22122         32.8315         4.02977 
        2.22736         32.7417         4.00235 
        2.23349         32.6144          3.9752 
        2.23962         32.4049         3.94828 
        2.24577          32.264         3.92158 
         2.2519         32.1339         3.89517 
        2.25802         32.0179         3.86905 
        2.26417         31.8908         3.84309 
        2.27031         31.7983         3.81734 
        2.27644         31.5573          3.7919 
        2.28257         31.4675          3.7667 
        2.28872         31.2924         3.74168 
        2.29486         31.2383         3.71689 
        2.30099         31.0848         3.69237 
        2.30712         30.9439         3.66807 
        2.31326         30.8526         3.64394 
         2.3194         30.6959         3.62004 
        2.32553          30.518          3.5964 
        2.33166         30.3986         3.57297 
         2.3378         30.2654         3.54973 
        2.34394         30.0808         3.52668 
        2.35007         29.9838         3.50387 
        2.35619         29.9302         3.48129 
        2.36233         29.8221         3.45885 
        2.36848         29.5932         3.43656 
        2.37462         29.5277         3.41452 
        2.38075         29.3859         3.39269 
        2.38689         29.3231         3.37104 
        2.39303         29.1363         3.34957 
        2.39916         28.9677         3.32832 
        2.40529         28.7983         3.30725 
        2.41143         28.7484         3.28635 
        2.41757         28.6521         3.26561 
         2.4237         28.4909          3.2451 
        2.42983         28.3966         3.22476 
        2.43598         28.2443         3.20454 
        2.44211         28.1312         3.18453 
        2.44823         27.9953         3.16474 
        2.45437         27.9225         3.14506 
        2.46052         27.7588         3.12552 
        2.46665         27.6943         3.10619 
        2.47279         27.5737         3.08703 
        2.47892          27.407         3.06802 
        2.48507         27.3019         3.04915 
         2.4912         27.2142         3.03047 
