# k  (h/Mpc)    Pcb(k)  (Mpc/h)^3    Pcb_linear(k)  (Mpc/h)^3
     0.00783031         161.138         162.551 
       0.013688         193.397         194.943 
       0.019231         189.677         190.192 
      0.0249154         168.337         168.364 
      0.0312784         139.386         139.203 
      0.0375637         114.987         114.853 
      0.0433917         99.2553         98.9781 
      0.0492413         88.8935          88.801 
      0.0555754         81.9892         81.8369 
      0.0619321         76.0305         76.2446 
       0.067871         70.3727         70.4197 
      0.0738098         63.4086          63.422 
      0.0800417         55.4405         55.3546 
      0.0862327          47.798         47.7311 
      0.0921407         41.7915         41.7341 
      0.0982031         37.4059         37.2846 
       0.104506         34.3428         34.3456 
       0.110769         32.5613         32.5755 
       0.116806         31.3191         31.2858 
       0.122832         29.8035         29.8445 
       0.129052         27.8953         27.8879 
       0.135211         25.5595         25.5144 
       0.141259         23.0599         23.0405 
       0.147318          20.753         20.7575 
       0.153489         18.9166          18.883 
       0.159709         17.5804         17.5367 
       0.165845         16.6383          16.663 
       0.171974          16.099         16.0608 
       0.178125         15.5387         15.5207 
       0.184229         14.8784         14.8881 
        0.19034         14.1252         14.0914 
       0.196428         13.1922         13.1674 
       0.202534         12.1921         12.2067 
       0.208729          11.339         11.3087 
       0.214876         10.6258         10.5712 
       0.220989         10.0214         10.0119 
       0.227147         9.64506         9.59607 
        0.23329         9.31639         9.26968 
       0.239377         9.01325          8.9678 
       0.245482         8.67931         8.63642 
       0.251667         8.27225         8.25123 
       0.257832         7.87663         7.82818 
       0.263955         7.43333         7.39994 
       0.270079         7.03235         6.99881 
        0.27624         6.66792         6.64759 
       0.282372          6.3814         6.35876 
        0.28843         6.16898         6.12514 
       0.294538         5.96107         5.92305 
       0.300721         5.75128         5.73148 
        0.30691         5.57358         5.53504 
       0.313033         5.36334         5.32897 
       0.319153         5.17165         5.11286 
       0.325316         4.92035         4.89466 
        0.33145         4.71416         4.68747 
       0.337538         4.53316         4.50031 
       0.343633          4.3763         4.33477 
       0.349808         4.22136         4.18745 
       0.355968         4.08525         4.05546 
       0.362074          3.9708         3.93206 
       0.368217         3.84594         3.81008 
       0.374374         3.73443         3.68639 
       0.380519         3.59677         3.56168 
       0.386598         3.46956         3.43958 
       0.392688         3.34744         3.32138 
        0.39888         3.24171         3.20861 
       0.405048         3.14037         3.10519 
       0.411186         3.04279         3.01049 
       0.417313         2.95639         2.92295 
       0.423458         2.86525         2.83985 
       0.429607         2.79459         2.75913 
       0.435692         2.71778         2.68061 
       0.441815         2.63509         2.60273 
       0.447964         2.55036         2.52583 
       0.454126         2.48441         2.45113 
       0.460267         2.41881         2.38009 
       0.466387         2.34894         2.31314 
        0.47254         2.28783         2.24949 
       0.478662         2.22464         2.18958 
       0.484765         2.16969         2.13269 
       0.490885          2.1095         2.07768 
       0.497035         2.05025         2.02379 
       0.503198         2.00389         1.97108 
       0.509342         1.94708         1.91994 
       0.515458         1.90209         1.87058 
       0.521598         1.85499         1.82272 
       0.527764         1.81374         1.77649 
       0.533884         1.76023         1.73256 
           0.54         1.72117         1.69059 
       0.546137         1.67705         1.65012 
       0.552299         1.63996         1.61086 
       0.558452         1.60179         1.57281 
       0.564573         1.56535         1.53599 
       0.570708         1.52955         1.50015 
       0.576825          1.4953         1.46549 
       0.582926         1.45841         1.43202 
       0.589034         1.43066         1.39958 
       0.595184         1.40055         1.36799 
       0.601379         1.36656         1.33722 
       0.607522         1.33534         1.30772 
       0.613639           1.304         1.27931 
       0.619772         1.28044         1.25172 
       0.625918         1.25314         1.22489 
       0.632068         1.22687         1.19881 
       0.638161         1.20097         1.17367 
         0.6443         1.17554         1.14904 
       0.650464         1.15251         1.12501 
       0.656582         1.13101         1.10184 
       0.662703         1.10729         1.07934 
       0.668861         1.08126         1.05738 
       0.675024         1.06156         1.03606 
       0.681124         1.04712         1.01555 
       0.687237         1.02299        0.995582 
       0.693381        0.999847        0.976058 
       0.699536        0.985342         0.95702 
       0.705665        0.966446        0.938562 
       0.711789        0.944756          0.9206 
       0.717957        0.928399        0.902983 
        0.72409        0.910888        0.885924 
       0.730186        0.897168        0.869413 
       0.736317        0.877639        0.853239 
       0.742472        0.863962        0.837426 
       0.748622         0.84885        0.822037 
        0.75476        0.831592        0.807074 
       0.760888        0.819238        0.792513 
       0.767043        0.798577        0.778258 
       0.773185        0.787826        0.764387 
       0.779291        0.777273        0.750937 
       0.785407        0.762475        0.737792 
       0.791564        0.748578        0.724882 
       0.797719        0.735839        0.712288 
       0.803834        0.723142        0.700077 
       0.809972        0.711527         0.68811 
       0.816124        0.699333          0.6764 
       0.822261        0.688599        0.664996 
       0.828378        0.676423        0.653892 
       0.834502        0.665399        0.643034 
       0.840667        0.655735        0.632356 
       0.846816        0.644782        0.621952 
       0.852925        0.633266        0.611851 
       0.859047         0.62349        0.601955 
       0.865192        0.614154        0.592247 
       0.871341        0.605348         0.58275 
       0.877463        0.594097        0.573505 
       0.883569        0.585395        0.564486 
       0.889708         0.57733        0.555617 
       0.895864        0.568548        0.546918 
       0.902008        0.558772        0.538424 
       0.908149        0.551395        0.530118 
       0.914301        0.544143        0.521975 
       0.920448        0.535962        0.514012 
       0.926574        0.528886        0.506244 
       0.932687        0.520748        0.498654 
       0.938823        0.511476        0.491194 
       0.944975        0.505019        0.483871 
       0.951105         0.49626        0.476724 
       0.957225        0.489235        0.469734 
       0.963368        0.483535        0.462862 
       0.969511        0.477211        0.456129 
       0.975621        0.469289        0.449566 
       0.981748        0.461341        0.443117 
       0.987916        0.455706        0.436754 
        0.99406        0.450444        0.430541 
        1.00019        0.443668        0.424462 
        1.00632        0.438936        0.418507 
        1.01246         0.43264        0.412658 
        1.01859        0.426729        0.406931 
        1.02471        0.419942         0.40132 
        1.03085        0.413819        0.395797 
        1.03698        0.409403         0.39039 
        1.04314        0.403803        0.385062 
        1.04929        0.399576        0.379846 
        1.05541         0.39265        0.374749 
        1.06154        0.388382        0.369733 
        1.06769        0.383625        0.364803 
        1.07382        0.378594        0.359979 
        1.07993        0.374032        0.355255 
        1.08607        0.368842        0.350596 
        1.09222        0.364009        0.346016 
        1.09836        0.359777        0.341525 
        1.10449        0.354685        0.337119 
        1.11063        0.350174        0.332786 
        1.11677        0.346736        0.328532 
         1.1229        0.341327         0.32436 
        1.12903        0.337917        0.320257 
        1.13518        0.333452        0.316222 
        1.14131        0.329696         0.31226 
        1.14745        0.326904        0.308368 
        1.15359        0.321876        0.304542 
        1.15973        0.318587         0.30078 
        1.16584        0.314269        0.297098 
        1.17197        0.310101        0.293473 
        1.17811          0.3064        0.289898 
        1.18424        0.302985        0.286393 
        1.19038        0.298951        0.282936 
        1.19652        0.296636        0.279538 
        1.20267        0.293146        0.276196 
        1.20881        0.288491         0.27291 
        1.21495        0.285788        0.269682 
        1.22108        0.282854        0.266508 
         1.2272        0.279039        0.263392 
        1.23334        0.276055        0.260319 
        1.23949        0.273623        0.257289 
        1.24562        0.270268        0.254315 
        1.25174        0.267474        0.251393 
        1.25789        0.263479        0.248508 
        1.26402        0.261518        0.245674 
        1.27014        0.257804        0.242891 
        1.27628        0.255627        0.240143 
        1.28244        0.252853        0.237433 
        1.28858        0.249646        0.234768 
        1.29471        0.247185        0.232151 
        1.30084        0.244396        0.229576 
        1.30697        0.242426        0.227036 
        1.31312         0.23976        0.224531 
        1.31925        0.237064        0.222073 
        1.32537        0.234555        0.219654 
        1.33151        0.232047        0.217262 
        1.33765        0.229404        0.214907 
        1.34378        0.226803        0.212593 
        1.34992        0.225296        0.210311 
        1.35606        0.222446        0.208057 
         1.3622        0.220352        0.205841 
        1.36833        0.218501        0.203663 
        1.37445        0.216333        0.201517 
        1.38059        0.213964        0.199396 
        1.38675        0.211364        0.197301 
        1.39288        0.208914        0.195244 
        1.39901        0.207636        0.193217 
        1.40515        0.205279        0.191215 
         1.4113        0.203612        0.189242 
        1.41742        0.201645        0.187305 
        1.42355         0.19871        0.185391 
         1.4297        0.197712        0.183499 
        1.43585         0.19536        0.181633 
        1.44198        0.193706        0.179801 
        1.44809        0.191641        0.177997 
        1.45423         0.18979        0.176212 
        1.46036        0.187968        0.174455 
        1.46649        0.186187        0.172721 
        1.47263        0.183841        0.171009 
        1.47877        0.183214        0.169321 
        1.48491        0.180542        0.167654 
        1.49104        0.179877        0.166012 
        1.49718        0.177645        0.164391 
        1.50333        0.176158         0.16279 
        1.50947        0.174647        0.161213 
         1.5156         0.17284         0.15966 
        1.52172        0.171431        0.158127 
        1.52787        0.169336        0.156611 
          1.534        0.168201        0.155117 
        1.54013        0.166514        0.153644 
        1.54627        0.165249        0.152188 
        1.55241        0.163695        0.150751 
        1.55855        0.162216        0.149334 
        1.56467        0.160846        0.147939 
         1.5708        0.159344        0.146558 
        1.57695        0.157943        0.145193 
        1.58308        0.156059        0.143849 
        1.58922        0.155163         0.14252 
        1.59535        0.153583        0.141209 
         1.6015        0.152529        0.139913 
        1.60764          0.1509        0.138634 
        1.61376        0.149698        0.137374 
        1.61989        0.148305        0.136129 
        1.62604        0.147117        0.134897 
        1.63218        0.145992         0.13368 
        1.63831        0.144597        0.132482 
        1.64444        0.143441        0.131298 
        1.65059        0.141925        0.130126 
        1.65673        0.140919        0.128969 
        1.66285        0.139987        0.127829 
        1.66898        0.138497        0.126703 
        1.67512        0.137343        0.125589 
        1.68127        0.136179        0.124487 
         1.6874        0.135221          0.1234 
        1.69353        0.134007        0.122328 
        1.69967        0.132587        0.121265 
        1.70581        0.132015        0.120216 
        1.71193        0.131001        0.119183 
        1.71806        0.129681         0.11816 
        1.72421         0.12853        0.117147 
        1.73035        0.127581        0.116147 
        1.73649        0.126582        0.115159 
        1.74262          0.1255        0.114183 
        1.74876         0.12479        0.113218 
        1.75489        0.123609        0.112267 
        1.76101        0.122654        0.111326 
        1.76715        0.121744        0.110395 
        1.77329        0.120588        0.109474 
        1.77943        0.119569        0.108562 
        1.78557        0.119008        0.107663 
        1.79171        0.117996        0.106773 
        1.79785        0.116875        0.105894 
        1.80399        0.115826        0.105024 
        1.81012        0.115226        0.104166 
        1.81625         0.11435        0.103317 
        1.82239        0.113644        0.102477 
        1.82853        0.112506        0.101647 
        1.83466         0.11167        0.100826 
        1.84078        0.110848        0.100016 
        1.84692         0.11002       0.0992127 
        1.85306         0.10922       0.0984177 
         1.8592        0.108467       0.0976326 
        1.86533        0.107697       0.0968567 
        1.87147        0.106766       0.0960882 
        1.87761        0.105897       0.0953278 
        1.88375        0.105027       0.0945766 
        1.88988        0.104386       0.0938343 
        1.89601        0.103415       0.0930996 
        1.90215        0.102734       0.0923722 
        1.90829        0.101871       0.0916529 
        1.91442        0.101392       0.0909412 
        1.92056        0.100648       0.0902378 
         1.9267       0.0998587       0.0895411 
        1.93284       0.0989589       0.0888513 
        1.93897       0.0982996       0.0881702 
        1.94509       0.0976499       0.0874976 
        1.95123       0.0969579       0.0868304 
        1.95737       0.0963769       0.0861697 
        1.96349       0.0956874       0.0855176 
        1.96964       0.0948436       0.0848704 
        1.97578       0.0942774       0.0842296 
        1.98192       0.0936648       0.0835967 
        1.98805       0.0930339       0.0829703 
        1.99419       0.0924369       0.0823503 
        2.00033       0.0916247       0.0817363 
        2.00647       0.0910288       0.0811288 
         2.0126       0.0905476       0.0805285 
        2.01874       0.0897991       0.0799334 
        2.02488       0.0891878       0.0793438 
        2.03101       0.0885276       0.0787613 
        2.03714       0.0882865       0.0781851 
        2.04328        0.087222       0.0776141 
        2.04941       0.0868799       0.0770493 
        2.05554       0.0863288       0.0764905 
        2.06167       0.0856312       0.0759365 
        2.06781       0.0849629       0.0753879 
        2.07396       0.0844071        0.074844 
        2.08009       0.0839047       0.0743064 
        2.08622       0.0834467       0.0737746 
        2.09237       0.0827784       0.0732471 
        2.09851       0.0822346       0.0727247 
        2.10464       0.0817239       0.0722082 
        2.11077       0.0811307       0.0716973 
        2.11691       0.0807584       0.0711903 
        2.12305       0.0799324       0.0706882 
        2.12918       0.0794946       0.0701921 
        2.13531       0.0790242       0.0697008 
        2.14145       0.0785266       0.0692131 
         2.1476       0.0781074       0.0687294 
        2.15372       0.0775587       0.0682529 
        2.15985        0.077037       0.0677804 
        2.16599       0.0763988        0.067311 
        2.17213       0.0761235       0.0668466 
        2.17827       0.0755905       0.0663867 
         2.1844       0.0750325       0.0659315 
        2.19054       0.0746471       0.0654804 
        2.19666       0.0741996       0.0650343 
         2.2028       0.0734937       0.0645919 
        2.20893       0.0732696       0.0641534 
        2.21508        0.072701       0.0637185 
        2.22122       0.0722303       0.0632874 
        2.22736       0.0718114       0.0628613 
        2.23349        0.071383       0.0624392 
        2.23962       0.0709928       0.0620208 
        2.24577       0.0705599       0.0616058 
         2.2519       0.0700338       0.0611953 
        2.25802       0.0696678       0.0607891 
        2.26417       0.0692781       0.0603855 
        2.27031       0.0687742       0.0599852 
        2.27644       0.0685564       0.0595897 
        2.28257        0.067967       0.0591978 
        2.28872       0.0675717       0.0588087 
        2.29486       0.0672535       0.0584232 
        2.30099       0.0667559       0.0580419 
        2.30712       0.0664521       0.0576639 
        2.31326       0.0659017       0.0572886 
         2.3194       0.0655857       0.0569168 
        2.32553       0.0652542        0.056549 
        2.33166       0.0647412       0.0561847 
         2.3378       0.0643905        0.055823 
        2.34394        0.064067       0.0554644 
        2.35007       0.0636996       0.0551095 
        2.35619       0.0634825       0.0547581 
        2.36233       0.0629253        0.054409 
        2.36848       0.0625636       0.0540622 
        2.37462       0.0622961       0.0537191 
        2.38075       0.0619185       0.0533794 
        2.38689        0.061599       0.0530423 
        2.39303       0.0612909       0.0527082 
        2.39916       0.0607885       0.0523774 
        2.40529       0.0604451       0.0520494 
        2.41143       0.0600437       0.0517239 
        2.41757       0.0597916       0.0514011 
         2.4237        0.059439       0.0510817 
        2.42983       0.0591335        0.050765 
        2.43598        0.058764       0.0504502 
        2.44211       0.0583563       0.0501386 
        2.44823       0.0581343       0.0498303 
        2.45437       0.0577993       0.0495237 
        2.46052       0.0574845       0.0492195 
        2.46665       0.0571447       0.0489184 
        2.47279        0.056882       0.0486199 
        2.47892       0.0566639       0.0483237 
        2.48507       0.0562025       0.0480297 
         2.4912       0.0559709       0.0477387 
