# k  (h/Mpc)    P(k)  (Mpc/h)^3    P_linear(k)  (Mpc/h)^3
     0.00783031         3126.83          3155.6 
       0.013688         3720.27         3778.15 
       0.019231         3657.31          3683.7 
      0.0249154         3267.04         3259.82 
      0.0312784         2693.13         2694.61 
      0.0375637         2215.07         2222.96 
      0.0433917         1920.69         1915.55 
      0.0492413         1715.48          1718.5 
      0.0555754         1588.77         1583.66 
      0.0619321         1457.05         1475.39 
       0.067871         1357.89         1362.64 
      0.0738098         1226.61         1227.21 
      0.0800417         1075.85         1071.09 
      0.0862327         925.995         923.561 
      0.0921407         811.331         807.515 
      0.0982031         730.289         721.415 
       0.104506         665.346         664.545 
       0.110769         631.829         630.292 
       0.116806         611.805         605.336 
       0.122832         578.465         577.447 
       0.129052         543.295         539.587 
       0.135211         502.075          493.66 
       0.141259         452.086         445.792 
       0.147318         405.855         401.619 
       0.153489         372.547          365.35 
       0.159709         349.476         339.302 
       0.165845          326.52         322.396 
       0.171974         320.478         310.744 
       0.178125         308.974         300.294 
       0.184229         292.984         288.055 
        0.19034         280.845         272.642 
       0.196428         264.016         254.761 
       0.202534         242.081         236.173 
       0.208729         229.567         218.799 
       0.214876         217.049         204.531 
       0.220989         202.504         193.708 
       0.227147         197.583         185.663 
        0.23329         191.031         179.348 
       0.239377         186.016         173.508 
       0.245482         177.791         167.096 
       0.251667         169.247         159.643 
       0.257832         164.434         151.458 
       0.263955         153.951         143.172 
       0.270079         146.374         135.411 
        0.27624         139.106         128.615 
       0.282372         134.115         123.027 
        0.28843         131.944         118.508 
       0.294538         126.573         114.598 
       0.300721         121.521         110.891 
        0.30691         119.141          107.09 
       0.313033         114.115         103.103 
       0.319153         111.484         98.9219 
       0.325316         106.337         94.7001 
        0.33145         102.292         90.6915 
       0.337538         98.6876         87.0705 
       0.343633         95.6826         83.8677 
       0.349808         92.4619         81.0174 
       0.355968          89.814         78.4636 
       0.362074         88.0952         76.0762 
       0.368217         85.6017          73.716 
       0.374374         83.4889         71.3228 
       0.380519         79.9149         68.9102 
       0.386598         77.6167         66.5476 
       0.392688         75.0996          64.261 
        0.39888         73.6245         62.0787 
       0.405048         71.7475         60.0782 
       0.411186         69.9103         58.2459 
       0.417313         67.9704         56.5521 
       0.423458         66.0699         54.9444 
       0.429607         64.8512         53.3824 
       0.435692          63.774         51.8633 
       0.441815          61.385         50.3566 
       0.447964         59.4352         48.8688 
       0.454126         58.3497         47.4235 
       0.460267         57.7135         46.0492 
       0.466387         56.0884         44.7537 
        0.47254         55.2676         43.5221 
       0.478662         53.3783         42.3632 
       0.484765         52.3444         41.2624 
       0.490885         50.8549         40.1982 
       0.497035         50.1973         39.1555 
       0.503198         49.0514         38.1355 
       0.509342          47.686         37.1461 
       0.515458         47.0228         36.1912 
       0.521598         45.8753         35.2652 
       0.527764         45.2251         34.3709 
       0.533884          44.398         33.5209 
           0.54         43.3986         32.7088 
       0.546137         42.1301         31.9257 
       0.552299         41.3879         31.1663 
       0.558452         40.5167           30.43 
       0.564573          40.191         29.7177 
       0.570708           39.07         29.0242 
       0.576825         38.5965         28.3537 
       0.582926         37.9657         27.7062 
       0.589034          37.183         27.0786 
       0.595184         36.6985         26.4672 
       0.601379         35.7127         25.8719 
       0.607522         35.1055         25.3013 
       0.613639         34.6395         24.7516 
       0.619772         33.9728         24.2177 
       0.625918         33.3722         23.6986 
       0.632068         33.0537          23.194 
       0.638161         32.3656         22.7077 
         0.6443          31.923         22.2311 
       0.650464         31.1235         21.7662 
       0.656582         30.9407         21.3179 
       0.662703         30.5236         20.8827 
       0.668861          29.742         20.4578 
       0.675024         29.4172         20.0451 
       0.681124         29.2002         19.6485 
       0.687237         28.5995         19.2621 
       0.693381         28.0702         18.8843 
       0.699536         27.8892          18.516 
       0.705665          27.369         18.1589 
       0.711789         26.9141         17.8114 
       0.717957         26.3954         17.4705 
        0.72409         26.1343         17.1405 
       0.730186         26.0053          16.821 
       0.736317         25.4691         16.5081 
       0.742472         25.1664         16.2021 
       0.748622         24.7703         15.9044 
        0.75476         24.1864         15.6149 
       0.760888         24.1383         15.3332 
       0.767043         23.6974         15.0574 
       0.773185         23.4307          14.789 
       0.779291         23.1552         14.5288 
       0.785407         22.8132         14.2745 
       0.791564          22.691         14.0247 
       0.797719         22.1753          13.781 
       0.803834         22.0798         13.5448 
       0.809972         21.6665         13.3132 
       0.816124         21.4373         13.0867 
       0.822261         21.1989          12.866 
       0.828378         20.9961         12.6512 
       0.834502         20.7698         12.4411 
       0.840667         20.5423         12.2345 
       0.846816         20.1075         12.0332 
       0.852925         20.0498         11.8378 
       0.859047         19.8329         11.6463 
       0.865192         19.5405         11.4585 
       0.871341         19.3025         11.2748 
       0.877463         19.0773         11.0959 
       0.883569         18.9703         10.9214 
       0.889708         18.6754         10.7498 
       0.895864         18.4393         10.5815 
       0.902008         18.2435         10.4172 
       0.908149         18.0098         10.2565 
       0.914301         17.9042         10.0989 
       0.920448         17.6606         9.94486 
       0.926574         17.5161         9.79457 
       0.932687         17.2819         9.64773 
       0.938823         17.0533          9.5034 
       0.944975         16.9433         9.36171 
       0.951105         16.7712         9.22343 
       0.957225         16.6492          9.0882 
       0.963368         16.3925         8.95524 
       0.969511         16.2405         8.82496 
       0.975621         16.1046         8.69799 
       0.981748          15.898         8.57321 
       0.987916         15.7987         8.45011 
        0.99406         15.5914         8.32991 
        1.00019         15.4906         8.21229 
        1.00632         15.3712         8.09708 
        1.01246         15.1958         7.98391 
        1.01859         15.0343          7.8731 
        1.02471         14.8828         7.76455 
        1.03085         14.8108         7.65769 
        1.03698         14.6825         7.55308 
        1.04314         14.4933         7.44999 
        1.04929         14.3231         7.34908 
        1.05541         14.2534         7.25046 
        1.06154         14.1337         7.15343 
        1.06769         13.9924         7.05804 
        1.07382         13.8195         6.96471 
        1.07993         13.7101          6.8733 
        1.08607         13.6329         6.78316 
        1.09222         13.4742         6.69456 
        1.09836         13.3782         6.60766 
        1.10449         13.2609         6.52241 
        1.11063         13.1853         6.43859 
        1.11677         13.1025         6.35628 
         1.1229         12.9622         6.27556 
        1.12903         12.8477         6.19618 
        1.13518         12.7201         6.11812 
        1.14131         12.6442         6.04146 
        1.14745         12.4651         5.96616 
        1.15359         12.3609         5.89214 
        1.15973         12.2805         5.81935 
        1.16584         12.1727         5.74812 
        1.17197         12.0579         5.67798 
        1.17811          11.983         5.60881 
        1.18424         11.8966           5.541 
        1.19038         11.8378         5.47412 
        1.19652         11.7043         5.40837 
        1.20267         11.6468         5.34371 
        1.20881         11.4985         5.28013 
        1.21495         11.4343         5.21768 
        1.22108         11.3717         5.15626 
         1.2272         11.2718         5.09598 
        1.23334         11.2154         5.03653 
        1.23949         11.1101          4.9779 
        1.24562         11.0089         4.92036 
        1.25174         10.9618         4.86382 
        1.25789         10.8524         4.80801 
        1.26402         10.7943         4.75318 
        1.27014         10.7427         4.69934 
        1.27628         10.6097         4.64617 
        1.28244         10.5956         4.59373 
        1.28858          10.479         4.54218 
        1.29471         10.3649         4.49154 
        1.30084         10.2968         4.44172 
        1.30697         10.2742         4.39258 
        1.31312         10.1783         4.34413 
        1.31925         10.1232         4.29656 
        1.32537         10.0354         4.24975 
        1.33151         9.97062         4.20348 
        1.33765         9.90639         4.15793 
        1.34378          9.8768         4.11314 
        1.34992          9.7778         4.06899 
        1.35606         9.68471         4.02539 
         1.3622         9.61878         3.98252 
        1.36833         9.59492         3.94037 
        1.37445         9.52648         3.89886 
        1.38059         9.45299         3.85782 
        1.38675         9.40185         3.81728 
        1.39288         9.31524         3.77748 
        1.39901          9.2547         3.73828 
        1.40515         9.19871         3.69954 
         1.4113         9.13438         3.66137 
        1.41742         9.09938         3.62389 
        1.42355         9.01088         3.58686 
         1.4297         8.96342         3.55024 
        1.43585         8.91957         3.51415 
        1.44198         8.87994          3.4787 
        1.44809         8.80664         3.44381 
        1.45423          8.7444         3.40927 
        1.46036         8.69049         3.37526 
        1.46649          8.6388         3.34171 
        1.47263         8.59559         3.30859 
        1.47877         8.53196         3.27594 
        1.48491         8.50096         3.24368 
        1.49104         8.43237         3.21192 
        1.49718         8.39663         3.18056 
        1.50333         8.34193         3.14958 
        1.50947         8.29062         3.11907 
         1.5156         8.25471         3.08902 
        1.52172         8.18883         3.05936 
        1.52787         8.16619         3.03004 
          1.534         8.10409         3.00113 
        1.54013           8.069         2.97264 
        1.54627         8.00837         2.94446 
        1.55241         7.94452         2.91665 
        1.55855         7.92825         2.88924 
        1.56467         7.89314         2.86225 
         1.5708         7.83392         2.83554 
        1.57695         7.78328         2.80913 
        1.58308         7.73361         2.78311 
        1.58922           7.706         2.75741 
        1.59535         7.66817         2.73205 
         1.6015          7.5861         2.70697 
        1.60764         7.55957         2.68222 
        1.61376         7.53467         2.65784 
        1.61989         7.47407         2.63375 
        1.62604         7.45894         2.60991 
        1.63218         7.41778         2.58638 
        1.63831         7.36419          2.5632 
        1.64444         7.30959         2.54029 
        1.65059         7.27292          2.5176 
        1.65673         7.25841         2.49522 
        1.66285         7.20769         2.47318 
        1.66898         7.18622          2.4514 
        1.67512         7.14646         2.42983 
        1.68127         7.07808         2.40851 
         1.6874           7.067         2.38749 
        1.69353         7.00448         2.36673 
        1.69967         6.98857         2.34618 
        1.70581         6.94465         2.32587 
        1.71193         6.91592         2.30589 
        1.71806         6.87437         2.28609 
        1.72421         6.83762          2.2665 
        1.73035         6.81559         2.24715 
        1.73649         6.78574         2.22804 
        1.74262          6.7164         2.20916 
        1.74876         6.71864         2.19049 
        1.75489         6.68317         2.17208 
        1.76101         6.62269         2.15388 
        1.76715         6.62161         2.13587 
        1.77329         6.57808         2.11804 
        1.77943         6.52735         2.10041 
        1.78557         6.53215         2.08301 
        1.79171         6.48516          2.0658 
        1.79785         6.46393         2.04878 
        1.80399         6.41216         2.03196 
        1.81012         6.38824         2.01535 
        1.81625         6.34947         1.99893 
        1.82239         6.32712         1.98267 
        1.82853         6.28185          1.9666 
        1.83466         6.24314         1.95073 
        1.84078         6.22838         1.93505 
        1.84692          6.2044         1.91952 
        1.85306         6.17512         1.90413 
         1.8592         6.15434         1.88895 
        1.86533           6.122         1.87393 
        1.87147         6.09508         1.85907 
        1.87761         6.06948         1.84435 
        1.88375         6.03609         1.82982 
        1.88988         6.00762         1.81546 
        1.89601         5.98142         1.80124 
        1.90215         5.94851         1.78717 
        1.90829          5.9285         1.77325 
        1.91442         5.89714         1.75948 
        1.92056         5.89107         1.74587 
         1.9267         5.84707         1.73239 
        1.93284         5.83085         1.71905 
        1.93897         5.79167         1.70587 
        1.94509         5.75053         1.69286 
        1.95123         5.75025         1.67995 
        1.95737         5.72712         1.66717 
        1.96349         5.68436         1.65455 
        1.96964          5.6563         1.64203 
        1.97578         5.64343         1.62963 
        1.98192         5.61684         1.61739 
        1.98805         5.59483         1.60527 
        1.99419         5.57457         1.59327 
        2.00033         5.54112         1.58139 
        2.00647         5.52822         1.56964 
         2.0126         5.50418         1.55802 
        2.01874         5.46938         1.54651 
        2.02488          5.4585          1.5351 
        2.03101         5.42706         1.52383 
        2.03714         5.39549         1.51268 
        2.04328         5.37694         1.50164 
        2.04941          5.3536         1.49071 
        2.05554         5.33727          1.4799 
        2.06167         5.32427         1.46918 
        2.06781         5.28931         1.45857 
        2.07396         5.26814         1.44804 
        2.08009         5.23881         1.43764 
        2.08622         5.23758         1.42735 
        2.09237         5.21348         1.41715 
        2.09851         5.17852         1.40704 
        2.10464         5.16781         1.39705 
        2.11077         5.13762         1.38716 
        2.11691         5.12705         1.37735 
        2.12305         5.10264         1.36764 
        2.12918         5.08142         1.35804 
        2.13531         5.06286         1.34853 
        2.14145          5.0407          1.3391 
         2.1476         5.02313         1.32974 
        2.15372         4.99809         1.32052 
        2.15985         4.98491         1.31138 
        2.16599         4.96672          1.3023 
        2.17213         4.96144         1.29331 
        2.17827         4.92232         1.28441 
         2.1844         4.91288         1.27561 
        2.19054          4.8972         1.26688 
        2.19666         4.87016         1.25825 
         2.2028         4.84442         1.24969 
        2.20893         4.83944         1.24121 
        2.21508         4.81289         1.23279 
        2.22122         4.78458         1.22445 
        2.22736         4.76773         1.21621 
        2.23349         4.75174         1.20804 
        2.23962         4.74129         1.19995 
        2.24577         4.71913         1.19192 
         2.2519         4.71858         1.18397 
        2.25802         4.66368         1.17611 
        2.26417         4.66295         1.16831 
        2.27031          4.6457         1.16056 
        2.27644         4.63295         1.15291 
        2.28257         4.60745         1.14533 
        2.28872         4.59343          1.1378 
        2.29486         4.57521         1.13034 
        2.30099         4.56711         1.12296 
        2.30712         4.53973         1.11565 
        2.31326         4.52816         1.10839 
         2.3194         4.50472          1.1012 
        2.32553         4.49137         1.09408 
        2.33166         4.47591         1.08703 
         2.3378          4.4613         1.08003 
        2.34394         4.44051          1.0731 
        2.35007          4.4251         1.06623 
        2.35619         4.41721         1.05943 
        2.36233         4.39044         1.05268 
        2.36848         4.38004         1.04597 
        2.37462         4.36584         1.03933 
        2.38075         4.35232         1.03276 
        2.38689         4.34125         1.02623 
        2.39303         4.31398         1.01977 
        2.39916         4.30633         1.01337 
        2.40529         4.28506         1.00702 
        2.41143         4.28015         1.00073 
        2.41757         4.25995        0.994481 
         2.4237         4.24751        0.988301 
        2.42983         4.23039        0.982174 
        2.43598         4.22133        0.976083 
        2.44211         4.19841        0.970053 
        2.44823         4.18131        0.964089 
        2.45437         4.16987        0.958158 
        2.46052         4.16249        0.952272 
        2.46665         4.14294        0.946446 
        2.47279          4.1268        0.940671 
        2.47892         4.11142         0.93494 
        2.48507         4.10161        0.929252 
         2.4912         4.08439        0.923623 
