# k  (h/Mpc)    P(k)  (Mpc/h)^3    P_linear(k)  (Mpc/h)^3
     0.00783031          1370.8         1387.14 
       0.013688         1743.54         1746.63 
       0.019231            1793         1793.79 
      0.0249154          1669.3          1680.6 
      0.0312784          1472.5         1475.01 
      0.0375637         1272.76         1269.96 
      0.0433917         1111.08         1113.79 
      0.0492413         998.765         997.981 
      0.0555754         905.719         910.848 
      0.0619321         850.912          847.04 
       0.067871         790.227          793.82 
      0.0738098         733.158         737.055 
      0.0800417         664.706         670.411 
      0.0862327         597.843         600.222 
      0.0921407         535.469         535.692 
      0.0982031         476.493         477.924 
       0.104506         433.672         430.595 
       0.110769         399.158         396.605 
       0.116806         373.601         373.598 
       0.122832         357.881         356.279 
       0.129052         339.195         340.108 
       0.135211         321.605         322.626 
       0.141259         303.595         302.755 
       0.147318         282.963         280.706 
       0.153489         259.175         257.826 
       0.159709         238.744         236.472 
       0.165845         223.188         218.641 
       0.171974         207.392          204.64 
       0.178125          197.25         194.068 
       0.184229         189.614         186.022 
        0.19034         180.349         179.141 
       0.196428         175.078         172.316 
       0.202534         168.952         164.784 
       0.208729         159.603         156.273 
       0.214876         149.858         147.297 
       0.220989         142.854         138.445 
       0.227147         133.309         130.214 
        0.23329         126.495           123.1 
       0.239377         121.371         117.257 
       0.245482         115.267         112.458 
       0.251667         112.475         108.345 
       0.257832         108.568         104.605 
       0.263955         104.781         100.918 
       0.270079         100.962           97.06 
        0.27624         97.8787         92.9881 
       0.282372         93.7091         88.8486 
        0.28843         89.3401         84.8478 
       0.294538           85.57         81.0742 
       0.300721         83.0049         77.6355 
        0.30691         79.2761         74.6118 
       0.313033         76.7591         71.9803 
       0.319153         73.3703         69.6139 
       0.325316          72.242         67.3775 
        0.33145         69.6932         65.2039 
       0.337538         67.8031         63.0393 
       0.343633         65.3886         60.8581 
       0.349808         63.4002         58.6608 
       0.355968          61.398         56.5297 
       0.362074         59.3179         54.5279 
       0.368217         57.5196         52.6535 
       0.374374         55.6472         50.9288 
       0.380519         54.2398         49.3433 
       0.386598         52.7955         47.8819 
       0.392688         51.6385         46.4923 
        0.39888         50.1288         45.1228 
       0.405048          48.923         43.7869 
       0.411186         47.7237         42.4786 
       0.417313         46.1205         41.1984 
       0.423458         44.9468         39.9546 
       0.429607         43.6795         38.7617 
       0.435692         42.3583         37.6399 
       0.441815         41.5644         36.5748 
       0.447964         40.8366         35.5644 
       0.454126         39.2959         34.6022 
       0.460267         38.5637         33.6846 
       0.466387         37.4382         32.8022 
        0.47254         36.8474         31.9392 
       0.478662         36.1581         31.1026 
       0.484765         35.1089         30.2919 
       0.490885         34.2902         29.5038 
       0.497035         33.8341          28.739 
       0.503198         32.9418         28.0028 
       0.509342         32.1129         27.3003 
       0.515458         31.4249         26.6299 
       0.521598         30.8755         25.9831 
       0.527764         30.2007         25.3573 
       0.533884         29.6819          24.757 
           0.54         29.0531         24.1757 
       0.546137         28.5546         23.6086 
       0.552299         28.0714         23.0552 
       0.558452          27.209         22.5195 
       0.564573         26.8439         22.0034 
       0.570708         26.3788         21.5033 
       0.576825         25.7124         21.0214 
       0.582926         25.2656         20.5566 
       0.589034         24.5897         20.1066 
       0.595184         24.2647         19.6682 
       0.601379         23.7958         19.2404 
       0.607522         23.4118         18.8287 
       0.613639         23.1526         18.4302 
       0.619772         22.5461         18.0417 
       0.625918          22.406         17.6633 
       0.632068         22.0355         17.2956 
       0.638161         21.5454          16.942 
         0.6443         21.1153         16.5961 
       0.650464         20.7308         16.2591 
       0.656582         20.5915         15.9341 
       0.662703         20.2099         15.6182 
       0.668861         19.8399         15.3092 
       0.675024         19.4762         15.0084 
       0.681124         19.1477         14.7188 
       0.687237         18.8494         14.4364 
       0.693381         18.6524         14.1601 
       0.699536         18.1583         13.8906 
       0.705665         18.0357         13.6293 
       0.711789         17.6988          13.375 
       0.717957         17.4393         13.1256 
        0.72409         17.1666          12.884 
       0.730186         16.9426         12.6501 
       0.736317         16.7605         12.4208 
       0.742472         16.4898         12.1966 
       0.748622         16.2715         11.9781 
        0.75476         15.9547         11.7656 
       0.760888         15.7641         11.5586 
       0.767043         15.5767         11.3559 
       0.773185         15.2763         11.1585 
       0.779291         15.1808         10.9669 
       0.785407         14.9639         10.7796 
       0.791564         14.7138         10.5956 
       0.797719         14.4401          10.416 
       0.803834         14.3782         10.2418 
       0.809972         14.2467         10.0709 
       0.816124         13.9284         9.90372 
       0.822261         13.7684         9.74078 
       0.828378         13.6087         9.58206 
       0.834502         13.4901         9.42679 
       0.840667         13.2773           9.274 
       0.846816         13.0501         9.12508 
       0.852925         12.9348          8.9804 
       0.859047         12.7849          8.8386 
       0.865192         12.6752         8.69943 
       0.871341         12.5516         8.56319 
       0.877463         12.3424         8.43053 
       0.883569          12.165         8.30104 
       0.889708         11.9762         8.17365 
       0.895864          11.895         8.04863 
       0.902008         11.7829         7.92652 
       0.908149         11.6546         7.80704 
       0.914301         11.5194         7.68986 
       0.920448         11.3327         7.57522 
       0.926574         11.2163         7.46334 
       0.932687         11.1141         7.35398 
       0.938823         10.9639         7.24645 
       0.944975         10.8292         7.14085 
       0.951105         10.7374         7.03776 
       0.957225         10.6697          6.9369 
       0.963368         10.5375          6.8377 
       0.969511          10.432         6.74046 
       0.975621         10.3112         6.64566 
       0.981748         10.1996         6.55246 
       0.987916         10.1183         6.46048 
        0.99406         9.96434         6.37064 
        1.00019         9.81875          6.2827 
        1.00632         9.80578         6.19652 
        1.01246         9.69196         6.11185 
        1.01859         9.55336         6.02892 
        1.02471         9.48739         5.94764 
        1.03085         9.39389         5.86761 
        1.03698         9.26248         5.78923 
        1.04314         9.20553         5.71196 
        1.04929         9.08585          5.6363 
        1.05541         8.98776         5.56234 
        1.06154         8.92056         5.48953 
        1.06769         8.87961         5.41793 
        1.07382         8.74086         5.34785 
        1.07993         8.66632         5.27919 
        1.08607         8.60517         5.21146 
        1.09222         8.52306         5.14486 
        1.09836         8.43326         5.07952 
        1.10449         8.35619         5.01539 
        1.11063         8.28024         4.95232 
        1.11677         8.22855         4.89036 
         1.1229         8.16084         4.82957 
        1.12903         8.06797         4.76978 
        1.13518         7.97877         4.71095 
        1.14131         7.90359         4.65317 
        1.14745         7.82464         4.59639 
        1.15359         7.78147         4.54056 
        1.15973         7.71067         4.48564 
        1.16584          7.6092         4.43188 
        1.17197         7.55675         4.37894 
        1.17811         7.51981         4.32671 
        1.18424         7.45579         4.27549 
        1.19038         7.41488         4.22496 
        1.19652         7.33346         4.17527 
        1.20267         7.25293         4.12639 
        1.20881         7.22728         4.07831 
        1.21495         7.16289         4.03108 
        1.22108         7.08334         3.98461 
         1.2272         7.04658           3.939 
        1.23334         6.95966         3.89399 
        1.23949         6.90441          3.8496 
        1.24562         6.87397         3.80602 
        1.25174         6.80467         3.76319 
        1.25789         6.75951          3.7209 
        1.26402         6.71455         3.67934 
        1.27014         6.65629         3.63852 
        1.27628         6.59406          3.5982 
        1.28244         6.52395         3.55842 
        1.28858         6.51362          3.5193 
        1.29471         6.44067         3.48087 
        1.30084         6.38118         3.44304 
        1.30697          6.3836         3.40573 
        1.31312         6.26797         3.36892 
        1.31925          6.2408         3.33278 
        1.32537         6.19316         3.29721 
        1.33151         6.17054         3.26203 
        1.33765         6.09601         3.22739 
        1.34378         6.05441         3.19333 
        1.34992         6.02552         3.15974 
        1.35606         5.96184         3.12656 
         1.3622         5.93561         3.09392 
        1.36833         5.88915         3.06183 
        1.37445         5.85018         3.03022 
        1.38059         5.82914         2.99896 
        1.38675         5.78029         2.96806 
        1.39288         5.73845         2.93773 
        1.39901         5.67726         2.90784 
        1.40515         5.64816          2.8783 
         1.4113         5.61262         2.84919 
        1.41742         5.57555         2.82059 
        1.42355         5.52681         2.79233 
         1.4297         5.48812         2.76438 
        1.43585         5.46795         2.73683 
        1.44198         5.44381         2.70976 
        1.44809         5.38597         2.68311 
        1.45423         5.34649         2.65672 
        1.46036         5.30807         2.63074 
        1.46649          5.2716          2.6051 
        1.47263         5.23317         2.57979 
        1.47877         5.19684         2.55482 
        1.48491         5.16676         2.53015 
        1.49104         5.13875         2.50586 
        1.49718         5.10602         2.48187 
        1.50333         5.07751         2.45817 
        1.50947         5.03816         2.43482 
         1.5156         5.00781         2.41181 
        1.52172         4.98001          2.3891 
        1.52787         4.95153         2.36665 
          1.534         4.91019         2.34451 
        1.54013         4.89137         2.32267 
        1.54627         4.84425         2.30108 
        1.55241         4.81679         2.27977 
        1.55855         4.79905         2.25875 
        1.56467         4.76511         2.23806 
         1.5708         4.73641         2.21757 
        1.57695         4.69659         2.19731 
        1.58308         4.66553         2.17735 
        1.58922         4.65481         2.15763 
        1.59535         4.62594         2.13815 
         1.6015         4.59115          2.1189 
        1.60764         4.56235         2.09989 
        1.61376         4.53924         2.08117 
        1.61989         4.51408         2.06266 
        1.62604         4.48076         2.04434 
        1.63218         4.47085         2.02625 
        1.63831         4.43826         2.00843 
        1.64444          4.4124         1.99081 
        1.65059         4.37221         1.97337 
        1.65673         4.36419         1.95615 
        1.66285         4.32481         1.93919 
        1.66898         4.30689         1.92243 
        1.67512         4.27741         1.90584 
        1.68127         4.25513         1.88942 
         1.6874         4.24155         1.87324 
        1.69353         4.19956         1.85726 
        1.69967         4.18532         1.84143 
        1.70581         4.16575         1.82579 
        1.71193         4.14127         1.81039 
        1.71806         4.12269         1.79514 
        1.72421         4.09605         1.78004 
        1.73035          4.0801         1.76513 
        1.73649         4.05155         1.75039 
        1.74262         4.02548         1.73583 
        1.74876         4.01642         1.72144 
        1.75489         3.99225         1.70723 
        1.76101         3.95941         1.69319 
        1.76715          3.9476         1.67929 
        1.77329         3.93065         1.66554 
        1.77943         3.89185         1.65193 
        1.78557         3.88481         1.63849 
        1.79171         3.86233          1.6252 
        1.79785         3.83993         1.61206 
        1.80399         3.81939         1.59907 
        1.81012         3.80497         1.58624 
        1.81625         3.78096         1.57355 
        1.82239         3.76105         1.56099 
        1.82853         3.73937         1.54857 
        1.83466         3.73098          1.5363 
        1.84078         3.70952         1.52417 
        1.84692         3.69624         1.51216 
        1.85306         3.66422         1.50026 
         1.8592         3.64471         1.48851 
        1.86533         3.63007         1.47689 
        1.87147         3.61797         1.46539 
        1.87761         3.59502           1.454 
        1.88375         3.57612         1.44275 
        1.88988         3.55604         1.43163 
        1.89601          3.5424         1.42062 
        1.90215         3.52422         1.40972 
        1.90829         3.50148         1.39894 
        1.91442         3.49186         1.38827 
        1.92056         3.46791         1.37772 
         1.9267         3.45626         1.36728 
        1.93284         3.44166         1.35693 
        1.93897         3.42469         1.34672 
        1.94509         3.40063         1.33663 
        1.95123         3.38527         1.32662 
        1.95737         3.36625          1.3167 
        1.96349         3.35736         1.30691 
        1.96964         3.34777          1.2972 
        1.97578         3.32106         1.28758 
        1.98192          3.3114         1.27808 
        1.98805         3.29743         1.26867 
        1.99419         3.28106         1.25936 
        2.00033          3.2714         1.25013 
        2.00647         3.25018         1.24101 
         2.0126         3.23989         1.23199 
        2.01874         3.21407         1.22304 
        2.02488         3.20753         1.21418 
        2.03101         3.18292         1.20542 
        2.03714         3.17341         1.19676 
        2.04328         3.16018         1.18818 
        2.04941         3.13682         1.17968 
        2.05554         3.13132         1.17128 
        2.06167         3.11964         1.16294 
        2.06781         3.10547         1.15469 
        2.07396         3.09398         1.14651 
        2.08009         3.07769         1.13841 
        2.08622         3.05962         1.13041 
        2.09237         3.05224         1.12247 
        2.09851         3.03628          1.1146 
        2.10464         3.02677         1.10683 
        2.11077         3.01017         1.09913 
        2.11691         2.99753          1.0915 
        2.12305         2.98752         1.08393 
        2.12918         2.97859         1.07646 
        2.13531         2.96295         1.06906 
        2.14145         2.94925         1.06171 
         2.1476         2.93168         1.05442 
        2.15372         2.92088         1.04723 
        2.15985         2.91042         1.04011 
        2.16599         2.89872         1.03303 
        2.17213         2.88075         1.02602 
        2.17827         2.87346         1.01909 
         2.1844         2.86063         1.01222 
        2.19054         2.85276         1.00542 
        2.19666         2.83646        0.998683 
         2.2028         2.82362        0.992006 
        2.20893         2.81429        0.985387 
        2.21508         2.79978        0.978822 
        2.22122          2.7879        0.972315 
        2.22736         2.77652        0.965881 
        2.23349         2.76996        0.959507 
        2.23962         2.75394        0.953187 
        2.24577         2.74483         0.94692 
         2.2519         2.73364        0.940717 
        2.25802         2.72524         0.93458 
        2.26417         2.71483        0.928482 
        2.27031         2.70068        0.922432 
        2.27644         2.69221        0.916454 
        2.28257         2.67777         0.91053 
        2.28872         2.67123        0.904647 
        2.29486         2.65775        0.898818 
        2.30099         2.64678        0.893052 
        2.30712         2.63393        0.887334 
        2.31326         2.62716        0.881657 
         2.3194         2.61655        0.876034 
        2.32553          2.6057        0.870469 
        2.33166         2.59812        0.864955 
         2.3378           2.587        0.859482 
        2.34394         2.57653        0.854055 
        2.35007          2.5651        0.848682 
        2.35619         2.56046        0.843362 
        2.36233         2.54861        0.838076 
        2.36848         2.53628        0.832824 
        2.37462         2.52968        0.827629 
        2.38075         2.51763        0.822483 
        2.38689         2.51113        0.817377 
        2.39303         2.50009        0.812316 
        2.39916         2.49041        0.807303 
        2.40529         2.48116        0.802333 
        2.41143         2.47089        0.797401 
        2.41757          2.4615        0.792508 
         2.4237         2.45531        0.787666 
        2.42983         2.43656        0.782865 
        2.43598         2.43974        0.778092 
        2.44211         2.42355        0.773366 
        2.44823         2.41906        0.768691 
        2.45437         2.40696        0.764041 
        2.46052         2.40093        0.759427 
        2.46665         2.39271        0.754858 
        2.47279         2.38175        0.750329 
        2.47892         2.37487        0.745835 
        2.48507         2.36669        0.741373 
         2.4912         2.35194        0.736956 
