# k  (h/Mpc)    Pcb(k)  (Mpc/h)^3    Pcb_linear(k)  (Mpc/h)^3
     0.00783031          2022.7         2043.56 
       0.013688         2576.12         2575.56 
       0.019231          2647.3         2646.11 
      0.0249154         2461.14         2479.67 
      0.0312784         2172.16         2176.62 
      0.0375637         1878.62         1874.19 
      0.0433917         1638.06          1643.8 
      0.0492413         1473.49         1472.94 
      0.0555754         1334.28         1344.37 
      0.0619321         1256.33         1250.22 
       0.067871         1164.54         1171.69 
      0.0738098         1080.36         1087.92 
      0.0800417         978.738         989.561 
      0.0862327          881.05         885.965 
      0.0921407         790.014          790.72 
      0.0982031         702.673         705.455 
       0.104506         641.004         635.597 
       0.110769         589.981         585.427 
       0.116806          551.84         551.468 
       0.122832         528.897         525.906 
       0.129052         500.469         502.036 
       0.135211         474.641         476.232 
       0.141259         448.665         446.901 
       0.147318         418.532         414.354 
       0.153489         383.189         380.582 
       0.159709         353.672         349.061 
       0.165845         331.334         322.741 
       0.171974         307.883         302.075 
       0.178125         292.967          286.47 
       0.184229         281.727         274.593 
        0.19034         267.226         264.435 
       0.196428          260.06         254.361 
       0.202534         251.266         243.242 
       0.208729         237.383          230.68 
       0.214876         222.886          217.43 
       0.220989         213.004         204.363 
       0.227147         198.825         192.214 
        0.23329         188.926         181.714 
       0.239377         181.739         173.088 
       0.245482          172.04         166.003 
       0.251667         168.343         159.932 
       0.257832         162.645         154.412 
       0.263955         156.925         148.968 
       0.270079          151.26         143.274 
        0.27624         147.055         137.263 
       0.282372         140.856         131.153 
        0.28843         134.477         125.247 
       0.294538         128.816         119.677 
       0.300721         125.401         114.602 
        0.30691         119.709         110.138 
       0.313033         116.065         106.253 
       0.319153         110.898          102.76 
       0.325316         109.177         99.4588 
        0.33145         105.306         96.2503 
       0.337538          102.78          93.055 
       0.343633         99.1832         89.8351 
       0.349808         96.1825         86.5919 
       0.355968         93.3747          83.446 
       0.362074         90.2977         80.4911 
       0.368217         87.6414         77.7245 
       0.374374         84.9457         75.1781 
       0.380519         82.8296         72.8379 
       0.386598         80.6301         70.6807 
       0.392688         78.9934         68.6293 
        0.39888         76.7629         66.6079 
       0.405048         74.9792         64.6358 
       0.411186         73.2326         62.7047 
       0.417313         70.8656         60.8148 
       0.423458         69.1222         58.9788 
       0.429607         67.2636         57.2179 
       0.435692         65.1476         55.5621 
       0.441815         64.1865         53.9898 
       0.447964         63.1113         52.4983 
       0.454126         60.5858         51.0779 
       0.460267         59.6025         49.7234 
       0.466387         57.9976         48.4209 
        0.47254         57.1299         47.1469 
       0.478662         56.1493         45.9121 
       0.484765         54.5495         44.7153 
       0.490885         53.3499         43.5519 
       0.497035         52.6577         42.4229 
       0.503198         51.2815         41.3364 
       0.509342         49.9814         40.2992 
       0.515458         49.0354         39.3097 
       0.521598         48.2623         38.3549 
       0.527764         47.3019         37.4311 
       0.533884         46.4972          36.545 
           0.54         45.5526         35.6868 
       0.546137         44.8681         34.8498 
       0.552299         44.1752         34.0329 
       0.558452         42.8381         33.2421 
       0.564573           42.22         32.4804 
       0.570708         41.6022         31.7421 
       0.576825         40.6243         31.0306 
       0.582926         39.8863         30.3446 
       0.589034         38.8834         29.6804 
       0.595184         38.4139         29.0332 
       0.601379         37.7688         28.4017 
       0.607522         37.0482         27.7939 
       0.613639         36.7498         27.2057 
       0.619772         35.8075         26.6322 
       0.625918         35.6393         26.0736 
       0.632068         35.0611         25.5309 
       0.638161         34.3699         25.0089 
         0.6443         33.7173         24.4984 
       0.650464          33.156         24.0008 
       0.656582         32.9525         23.5212 
       0.662703         32.3251         23.0548 
       0.668861         31.7714         22.5986 
       0.675024         31.2451         22.1546 
       0.681124         30.7145         21.7272 
       0.687237         30.2196         21.3103 
       0.693381         29.9812         20.9024 
       0.699536         29.2389         20.5046 
       0.705665         29.1808         20.1189 
       0.711789         28.5472         19.7435 
       0.717957         28.1887         19.3753 
        0.72409         27.7838         19.0187 
       0.730186          27.405         18.6734 
       0.736317           27.14          18.335 
       0.742472         26.6767         18.0039 
       0.748622         26.4217         17.6815 
        0.75476         25.9646         17.3678 
       0.760888         25.6216         17.0623 
       0.767043         25.3369          16.763 
       0.773185          24.891         16.4715 
       0.779291         24.7727         16.1888 
       0.785407          24.471         15.9123 
       0.791564         24.0398         15.6407 
       0.797719         23.5618         15.3756 
       0.803834         23.5254         15.1184 
       0.809972         23.3162         14.8662 
       0.816124         22.7782         14.6194 
       0.822261           22.61         14.3789 
       0.828378         22.3728         14.1446 
       0.834502         22.1558         13.9154 
       0.840667         21.8729         13.6898 
       0.846816          21.503           13.47 
       0.852925         21.3136         13.2564 
       0.859047         21.0833         13.0471 
       0.865192          20.896         12.8417 
       0.871341         20.7406         12.6406 
       0.877463         20.3679         12.4447 
       0.883569         20.1287         12.2536 
       0.889708         19.8549         12.0655 
       0.895864         19.7237          11.881 
       0.902008         19.5711         11.7007 
       0.908149         19.3625         11.5244 
       0.914301         19.2309         11.3514 
       0.920448         18.8621         11.1822 
       0.926574         18.7215          11.017 
       0.932687         18.5357         10.8556 
       0.938823         18.2948         10.6968 
       0.944975         18.1027          10.541 
       0.951105         17.9618         10.3888 
       0.957225         17.7952         10.2399 
       0.963368         17.6355         10.0935 
       0.969511         17.4871         9.94993 
       0.975621         17.3275         9.80999 
       0.981748         17.1107         9.67241 
       0.987916         17.0075         9.53664 
        0.99406         16.7809         9.40401 
        1.00019          16.551          9.2742 
        1.00632         16.5277         9.14699 
        1.01246         16.3547         9.02201 
        1.01859         16.1161         8.89958 
        1.02471         16.0553         8.77961 
        1.03085         15.9035         8.66147 
        1.03698         15.6651         8.54577 
        1.04314         15.5865         8.43171 
        1.04929         15.3922         8.32003 
        1.05541         15.2398         8.21084 
        1.06154         15.1415         8.10336 
        1.06769         15.0687         7.99767 
        1.07382         14.8673         7.89423 
        1.07993         14.7801         7.79287 
        1.08607         14.6303         7.69289 
        1.09222         14.5243         7.59459 
        1.09836          14.357         7.49813 
        1.10449         14.2636         7.40347 
        1.11063         14.1251         7.31036 
        1.11677         14.0641          7.2189 
         1.1229          13.975         7.12917 
        1.12903         13.8048         7.04091 
        1.13518         13.6463         6.95407 
        1.14131         13.5786         6.86877 
        1.14745         13.4685         6.78496 
        1.15359         13.3819         6.70254 
        1.15973         13.2706         6.62147 
        1.16584         13.0828         6.54212 
        1.17197          13.029         6.46397 
        1.17811          12.953         6.38687 
        1.18424         12.8416         6.31126 
        1.19038         12.7893         6.23667 
        1.19652          12.654         6.16333 
        1.20267         12.5314         6.09117 
        1.20881         12.5061          6.0202 
        1.21495         12.4064         5.95048 
        1.22108         12.2637         5.88189 
         1.2272          12.184         5.81455 
        1.23334           12.07         5.74812 
        1.23949         11.9755         5.68258 
        1.24562         11.9349         5.61826 
        1.25174          11.848         5.55504 
        1.25789          11.764          5.4926 
        1.26402         11.7081         5.43125 
        1.27014         11.6086           5.371 
        1.27628         11.4663         5.31148 
        1.28244         11.3948         5.25276 
        1.28858         11.3848         5.19502 
        1.29471          11.261         5.13828 
        1.30084         11.1566         5.08245 
        1.30697         11.1414         5.02737 
        1.31312         10.9873         4.97303 
        1.31925         10.9233         4.91968 
        1.32537         10.8729         4.86717 
        1.33151         10.8108         4.81524 
        1.33765         10.7211         4.76411 
        1.34378          10.643         4.71383 
        1.34992         10.5657         4.66425 
        1.35606         10.5137         4.61527 
         1.3622          10.453          4.5671 
        1.36833          10.367         4.51973 
        1.37445         10.3152         4.47306 
        1.38059         10.2732         4.42691 
        1.38675         10.1743         4.38131 
        1.39288         10.1305         4.33653 
        1.39901         10.0264         4.29241 
        1.40515         9.98868          4.2488 
         1.4113          9.9306         4.20582 
        1.41742         9.86437         4.16361 
        1.42355         9.78592          4.1219 
         1.4297         9.73043         4.08064 
        1.43585         9.69662         4.03997 
        1.44198         9.64985         4.00001 
        1.44809         9.57043         3.96067 
        1.45423         9.50174         3.92172 
        1.46036         9.44786         3.88337 
        1.46649         9.39712         3.84552 
        1.47263         9.31633         3.80815 
        1.47877         9.27022          3.7713 
        1.48491         9.22092         3.73488 
        1.49104         9.16618         3.69903 
        1.49718         9.12159         3.66362 
        1.50333         9.07079         3.62862 
        1.50947         9.00731         3.59416 
         1.5156         8.95919         3.56019 
        1.52172         8.91442         3.52667 
        1.52787         8.85438         3.49352 
          1.534         8.79708         3.46084 
        1.54013         8.76058         3.42861 
        1.54627         8.68751         3.39674 
        1.55241         8.65477         3.36528 
        1.55855         8.61881         3.33425 
        1.56467         8.55158         3.30371 
         1.5708         8.53112         3.27347 
        1.57695         8.45207         3.24356 
        1.58308          8.4051         3.21409 
        1.58922          8.3817         3.18498 
        1.59535           8.344         3.15624 
         1.6015         8.27739         3.12781 
        1.60764         8.22154         3.09975 
        1.61376         8.20235         3.07211 
        1.61989         8.15269         3.04479 
        1.62604          8.1025         3.01775 
        1.63218         8.08065         2.99105 
        1.63831         8.03924         2.96474 
        1.64444         7.99543         2.93874 
        1.65059         7.91538         2.91299 
        1.65673         7.91179         2.88758 
        1.66285          7.8331         2.86254 
        1.66898         7.80881          2.8378 
        1.67512         7.77462          2.8133 
        1.68127         7.72889         2.78907 
         1.6874          7.7041         2.76518 
        1.69353         7.64679         2.74159 
        1.69967         7.61104         2.71822 
        1.70581         7.57563         2.69514 
        1.71193         7.53434         2.67241 
        1.71806         7.51612          2.6499 
        1.72421         7.45662          2.6276 
        1.73035         7.44093         2.60559 
        1.73649         7.40122         2.58384 
        1.74262         7.35074         2.56235 
        1.74876          7.3288          2.5411 
        1.75489         7.30008         2.52013 
        1.76101         7.24103         2.49941 
        1.76715         7.22261         2.47889 
        1.77329         7.18145         2.45858 
        1.77943         7.13323         2.43849 
        1.78557         7.12536         2.41866 
        1.79171         7.07983         2.39904 
        1.79785         7.04086         2.37964 
        1.80399         7.00008         2.36046 
        1.81012         6.98016         2.34152 
        1.81625         6.93996          2.3228 
        1.82239          6.9165         2.30425 
        1.82853         6.87827         2.28592 
        1.83466         6.85035          2.2678 
        1.84078         6.81436          2.2499 
        1.84692         6.80584         2.23217 
        1.85306         6.75083         2.21461 
         1.8592         6.71505         2.19726 
        1.86533         6.69308         2.18011 
        1.87147         6.66582         2.16313 
        1.87761         6.63327         2.14632 
        1.88375         6.60034         2.12971 
        1.88988         6.57481         2.11329 
        1.89601         6.54792         2.09704 
        1.90215         6.52159         2.08095 
        1.90829          6.4848         2.06504 
        1.91442         6.45978         2.04929 
        1.92056         6.43147         2.03372 
         1.9267         6.39589          2.0183 
        1.93284         6.37143         2.00303 
        1.93897         6.34014         1.98795 
        1.94509         6.31521         1.97306 
        1.95123         6.28417         1.95828 
        1.95737         6.25017         1.94365 
        1.96349         6.23453          1.9292 
        1.96964         6.20839         1.91486 
        1.97578         6.17111         1.90066 
        1.98192         6.15512         1.88663 
        1.98805         6.13132         1.87275 
        1.99419         6.10325           1.859 
        2.00033         6.08914         1.84539 
        2.00647         6.05262         1.83191 
         2.0126         6.03441          1.8186 
        2.01874         5.99705          1.8054 
        2.02488         5.98339         1.79231 
        2.03101         5.94232         1.77939 
        2.03714          5.9199          1.7666 
        2.04328         5.89625         1.75393 
        2.04941         5.86629         1.74139 
        2.05554         5.84666         1.72898 
        2.06167         5.82721         1.71668 
        2.06781         5.80309         1.70449 
        2.07396         5.78975         1.69241 
        2.08009         5.75889         1.68047 
        2.08622         5.72834         1.66866 
        2.09237         5.71793         1.65693 
        2.09851         5.69403         1.64532 
        2.10464         5.66697         1.63384 
        2.11077         5.63416         1.62249 
        2.11691         5.61717         1.61121 
        2.12305         5.60104         1.60005 
        2.12918         5.58652         1.58901 
        2.13531         5.55765         1.57809 
        2.14145         5.53802         1.56724 
         2.1476         5.50638         1.55647 
        2.15372         5.48935         1.54587 
        2.15985         5.48346         1.53535 
        2.16599         5.44337          1.5249 
        2.17213         5.43085         1.51456 
        2.17827         5.41543         1.50432 
         2.1844         5.38571         1.49419 
        2.19054         5.36545         1.48414 
        2.19666         5.34249          1.4742 
         2.2028          5.3235         1.46435 
        2.20893         5.30981         1.45458 
        2.21508         5.28058         1.44489 
        2.22122         5.26083         1.43528 
        2.22736         5.24407         1.42578 
        2.23349         5.23798         1.41638 
        2.23962         5.20945         1.40705 
        2.24577         5.18424         1.39779 
         2.2519         5.17788         1.38864 
        2.25802         5.14641         1.37958 
        2.26417         5.12988         1.37058 
        2.27031         5.10932         1.36165 
        2.27644         5.08916         1.35282 
        2.28257         5.07241         1.34408 
        2.28872         5.05962         1.33539 
        2.29486         5.03664         1.32679 
        2.30099         5.01737         1.31828 
        2.30712               5         1.30984 
        2.31326         4.97235         1.30146 
         2.3194         4.96479         1.29316 
        2.32553         4.94591         1.28494 
        2.33166         4.93387          1.2768 
         2.3378         4.91124         1.26872 
        2.34394         4.89475         1.26071 
        2.35007         4.87006         1.25278 
        2.35619         4.86326         1.24493 
        2.36233         4.84608         1.23713 
        2.36848         4.82095         1.22937 
        2.37462         4.81361          1.2217 
        2.38075         4.79519         1.21411 
        2.38689         4.77743         1.20657 
        2.39303         4.75848          1.1991 
        2.39916         4.74254          1.1917 
        2.40529         4.72555         1.18436 
        2.41143         4.71199         1.17708 
        2.41757         4.70153         1.16986 
         2.4237         4.68472         1.16271 
        2.42983         4.64979         1.15563 
        2.43598         4.64897         1.14858 
        2.44211         4.62612          1.1416 
        2.44823         4.61495          1.1347 
        2.45437         4.59316         1.12784 
        2.46052         4.58299         1.12103 
        2.46665         4.56991         1.11428 
        2.47279         4.55151          1.1076 
        2.47892         4.53616         1.10096 
        2.48507         4.52429         1.09438 
         2.4912         4.50146         1.08786 
