# k  (h/Mpc)    Pcb(k)  (Mpc/h)^3    Pcb_linear(k)  (Mpc/h)^3
     0.00783031         9434.56         9498.65 
       0.013688         10577.9         10794.9 
       0.019231         10017.3         10121.6 
      0.0249154         8668.14         8621.31 
      0.0312784         6805.77          6813.1 
      0.0375637         5337.06         5366.92 
      0.0433917         4466.71         4448.07 
      0.0492413         3875.24         3879.25 
      0.0555754         3549.31         3525.65 
      0.0619321         3231.29         3289.18 
       0.067871         3048.86         3063.51 
      0.0738098         2781.61         2779.99 
      0.0800417         2443.08         2425.43 
      0.0862327         2075.83         2062.72 
      0.0921407         1784.85         1757.45 
      0.0982031         1566.78         1517.97 
       0.104506         1380.35         1354.82 
       0.110769         1292.71         1263.24 
       0.116806         1254.81         1214.38 
       0.122832         1197.88         1175.41 
       0.129052         1142.94         1121.61 
       0.135211         1081.97         1043.99 
       0.141259         977.897         948.208 
       0.147318         874.023         846.207 
       0.153489         790.232         751.503 
       0.159709         731.126         676.292 
       0.165845         664.827         625.244 
       0.171974         649.492         593.905 
       0.178125         626.438         574.767 
       0.184229         593.346         559.309 
        0.19034         580.121         540.129 
       0.196428         556.296         513.633 
       0.202534         511.035         480.089 
       0.208729         490.864          442.62 
       0.214876          460.28         406.841 
       0.220989         424.033          376.49 
       0.227147          409.61          353.03 
        0.23329         392.162         336.425 
       0.239377         385.058         324.811 
       0.245482         366.765         315.381 
       0.251667         352.546         305.551 
       0.257832         347.348         293.859 
       0.263955         326.203         280.005 
       0.270079         310.681         264.647 
        0.27624         295.704         249.096 
       0.282372         285.588         234.851 
        0.28843         281.047         222.891 
       0.294538         266.242         213.172 
       0.300721          256.64         205.368 
        0.30691         252.195         198.843 
       0.313033          240.57         192.808 
       0.319153         236.318         186.534 
       0.325316         229.589         179.643 
        0.33145         222.238         172.276 
       0.337538         213.356         164.785 
       0.343633         206.262         157.525 
       0.349808         199.573         150.802 
       0.355968          194.81           144.9 
       0.362074         188.967         139.864 
       0.368217          185.74         135.417 
       0.374374         180.831         131.342 
       0.380519         173.246         127.405 
       0.386598         170.146         123.454 
       0.392688         164.735         119.406 
        0.39888         161.372         115.225 
       0.405048         157.246         111.113 
       0.411186         155.068         107.213 
       0.417313         151.424         103.591 
       0.423458          147.31         100.268 
       0.429607         143.302         97.2469 
       0.435692         141.042         94.4749 
       0.441815         137.383         91.8247 
       0.447964          133.26         89.2424 
       0.454126         130.914         86.6831 
       0.460267         129.403         84.1416 
       0.466387         125.893         81.6491 
        0.47254         124.431         79.2174 
       0.478662         120.302         76.8988 
       0.484765         118.404         74.7081 
       0.490885         115.937         72.6475 
       0.497035          114.64         70.6998 
       0.503198         112.687         68.8435 
       0.509342         109.715         67.0612 
       0.515458         107.856         65.3396 
       0.521598         105.063         63.6539 
       0.527764         104.102         61.9969 
       0.533884         103.216         60.3894 
           0.54         100.421         58.8325 
       0.546137         98.0607         57.3312 
       0.552299          96.415           55.89 
       0.558452         94.7698         54.5141 
       0.564573         94.2646         53.1996 
       0.570708         91.5427         51.9307 
       0.576825         90.4865         50.7085 
       0.582926         89.4195         49.5276 
       0.589034         87.7829         48.3785 
       0.595184         86.6473         47.2515 
       0.601379         84.8841         46.1466 
       0.607522         82.9646         45.0827 
       0.613639         82.3619         44.0577 
       0.619772         80.8554         43.0662 
       0.625918         80.3135         42.1082 
       0.632068         78.3854         41.1828 
       0.638161         77.4881         40.2949 
         0.6443         76.9058         39.4265 
       0.650464         75.1251         38.5788 
       0.656582         74.7711           37.76 
       0.662703          73.765         36.9635 
       0.668861         72.1494         36.1849 
       0.675024         72.0308         35.4284 
       0.681124         70.7559         34.7019 
       0.687237         69.6907         33.9952 
       0.693381         68.7533         33.3055 
       0.699536         68.0308         32.6342 
       0.705665         67.1967         31.9844 
       0.711789         66.1695         31.3529 
       0.717957         65.2832         30.7338 
        0.72409         64.5649         30.1347 
       0.730186         64.2135          29.555 
       0.736317         63.2194         28.9875 
       0.742472         62.1293         28.4329 
       0.748622         61.2625         27.8934 
        0.75476         61.0893         27.3693 
       0.760888         60.5495         26.8596 
       0.767043         59.2633         26.3611 
       0.773185         58.4417         25.8764 
       0.779291         57.8704         25.4066 
       0.785407         57.3628         24.9479 
       0.791564         57.0025         24.4976 
       0.797719         55.9937         24.0586 
       0.803834           55.73         23.6331 
       0.809972         55.1723         23.2164 
       0.816124         54.3368         22.8088 
       0.822261         53.6496         22.4121 
       0.828378         53.5023          22.026 
       0.834502         52.8511         21.6487 
       0.840667         52.3733         21.2779 
       0.846816          51.817         20.9168 
       0.852925         51.1519         20.5665 
       0.859047         50.9429         20.2234 
       0.865192         50.2392         19.8871 
       0.871341         49.7162         19.5583 
       0.877463         49.1858         19.2385 
       0.883569         49.1363         18.9266 
       0.889708         48.5304           18.62 
       0.895864         48.1599         18.3195 
       0.902008          47.595         18.0263 
       0.908149         46.9759         17.7396 
       0.914301         46.7261         17.4588 
       0.920448         46.6381         17.1843 
       0.926574          45.684         16.9167 
       0.932687         45.4379         16.6553 
       0.938823         45.0497         16.3986 
       0.944975         44.4987         16.1467 
       0.951105         44.1431          15.901 
       0.957225         43.8921         15.6608 
       0.963368         43.5027         15.4248 
       0.969511         43.1515         15.1937 
       0.975621         42.7111         14.9685 
       0.981748         42.3829         14.7474 
       0.987916         41.9551         14.5293 
        0.99406         41.7705         14.3165 
        1.00019         41.2439         14.1083 
        1.00632         40.9421         13.9045 
        1.01246         40.6727         13.7044 
        1.01859         40.4082         13.5086 
        1.02471         40.0362         13.3168 
        1.03085         39.6824         13.1282 
        1.03698         39.4811         12.9435 
        1.04314         39.1167         12.7617 
        1.04929         38.7386         12.5837 
        1.05541         38.5758         12.4099 
        1.06154         38.2261         12.2389 
        1.06769         37.8787         12.0709 
        1.07382         37.5159         11.9066 
        1.07993         37.3942         11.7458 
        1.08607         37.0352         11.5872 
        1.09222         36.8611         11.4314 
        1.09836         36.5854         11.2787 
        1.10449         36.3451         11.1289 
        1.11063         36.0207         10.9817 
        1.11677          35.924         10.8372 
         1.1229         35.5264         10.6956 
        1.12903         35.3201         10.5564 
        1.13518         35.1559         10.4195 
        1.14131         34.8433         10.2852 
        1.14745         34.6161         10.1533 
        1.15359         34.1915         10.0236 
        1.15973         34.2049         9.89624 
        1.16584         33.8979         9.77162 
        1.17197          33.568         9.64897 
        1.17811         33.3869         9.52805 
        1.18424         32.9485         9.40956 
        1.19038         32.8136         9.29274 
        1.19652         32.6984         9.17795 
        1.20267         32.4273          9.0651 
        1.20881         32.2289         8.95417 
        1.21495         32.1242         8.84527 
        1.22108         32.0212          8.7382 
         1.2272         31.6161         8.63316 
        1.23334         31.5029          8.5296 
        1.23949         31.2701         8.42749 
        1.24562         31.0783         8.32734 
        1.25174         30.8904         8.22896 
        1.25789          30.697         8.13188 
        1.26402         30.5133         8.03653 
        1.27014         30.4073         7.94294 
        1.27628         30.1038         7.85055 
        1.28244         30.1283         7.75946 
        1.28858         29.7766         7.66993 
        1.29471         29.5284         7.58201 
        1.30084         29.3395         7.49555 
        1.30697         29.3338         7.41031 
        1.31312         29.0979         7.32627 
        1.31925         28.8497          7.2438 
        1.32537         28.6596         7.16268 
        1.33151         28.4843         7.08251 
        1.33765          28.438         7.00361 
        1.34378          28.277         6.92607 
        1.34992         28.0328         6.84965 
        1.35606         27.7685         6.77422 
         1.3622         27.7383         6.70006 
        1.36833         27.6512         6.62719 
        1.37445          27.347         6.55543 
        1.38059         27.2128         6.48452 
        1.38675         27.1013         6.41449 
        1.39288          26.966         6.34576 
        1.39901         26.7455         6.27808 
        1.40515         26.6417         6.21123 
         1.4113         26.5715         6.14538 
        1.41742          26.382         6.08074 
        1.42355         26.1551          6.0169 
         1.4297         26.1263         5.95379 
        1.43585         25.9682         5.89161 
        1.44198         25.7625         5.83055 
        1.44809         25.6001         5.77047 
        1.45423         25.5408         5.71101 
        1.46036         25.4508          5.6525 
        1.46649         25.2314         5.59478 
        1.47263         25.1006         5.53782 
        1.47877         24.9625         5.48168 
        1.48491         24.8147         5.42623 
        1.49104         24.6862         5.37166 
        1.49718         24.6474          5.3178 
        1.50333         24.5127         5.26459 
        1.50947         24.2856         5.21222 
         1.5156         24.2602         5.16063 
        1.52172         24.0689         5.10975 
        1.52787         24.0462         5.05944 
          1.534         23.7999         5.00988 
        1.54013          23.847         4.96102 
        1.54627         23.6186         4.91273 
        1.55241         23.5269         4.86508 
        1.55855         23.3823         4.81812 
        1.56467         23.2086         4.77191 
         1.5708         23.2025         4.72617 
        1.57695         23.0798         4.68097 
        1.58308          22.883         4.63645 
        1.58922         22.8023         4.59249 
        1.59535         22.7291         4.54911 
         1.6015         22.6735         4.50623 
        1.60764          22.463         4.46392 
        1.61376         22.3563         4.42227 
        1.61989         22.2277         4.38111 
        1.62604         22.1241         4.34039 
        1.63218         21.9511         4.30021 
        1.63831         21.9305         4.26063 
        1.64444         21.8465         4.22154 
        1.65059         21.7012         4.18284 
        1.65673         21.6379         4.14466 
        1.66285         21.5528         4.10707 
        1.66898         21.4374         4.06993 
        1.67512         21.3367         4.03318 
        1.68127         21.2339         3.99684 
         1.6874         21.1587         3.96104 
        1.69353         21.0196         3.92569 
        1.69967         20.9345         3.89069 
        1.70581         20.8482         3.85613 
        1.71193         20.7481         3.82212 
        1.71806          20.674         3.78845 
        1.72421         20.5741         3.75511 
        1.73035         20.4739         3.72222 
        1.73649         20.3343         3.68972 
        1.74262         20.2444         3.65764 
        1.74876         20.2729         3.62591 
        1.75489         20.0764         3.59463 
        1.76101         20.0266         3.56373 
        1.76715         19.8652         3.53314 
        1.77329         19.7758         3.50288 
        1.77943         19.7495         3.47295 
        1.78557         19.6937         3.44342 
        1.79171         19.5799         3.41423 
        1.79785         19.4846         3.38537 
        1.80399          19.358         3.35685 
        1.81012         19.3304         3.32869 
        1.81625         19.1671         3.30087 
        1.82239         19.1128         3.27332 
        1.82853         19.0432          3.2461 
        1.83466         18.9437         3.21922 
        1.84078         18.8476         3.19267 
        1.84692         18.7636         3.16637 
        1.85306         18.6917         3.14034 
         1.8592         18.6724         3.11463 
        1.86533         18.5669         3.08924 
        1.87147         18.4591         3.06409 
        1.87761         18.3784         3.03921 
        1.88375         18.2949         3.01464 
        1.88988         18.2229         2.99036 
        1.89601          18.148         2.96634 
        1.90215          18.074         2.94256 
        1.90829         18.0119         2.91906 
        1.91442         17.8994         2.89581 
        1.92056         17.8661         2.87283 
         1.9267         17.8013         2.85007 
        1.93284          17.731         2.82755 
        1.93897         17.6402         2.80531 
        1.94509         17.5726         2.78336 
        1.95123         17.4786         2.76159 
        1.95737         17.4038         2.74004 
        1.96349         17.3627         2.71877 
        1.96964         17.2656         2.69766 
        1.97578         17.2084         2.67677 
        1.98192         17.1185         2.65614 
        1.98805         17.0503         2.63572 
        1.99419         16.9688         2.61552 
        2.00033         16.9007         2.59552 
        2.00647         16.8502         2.57573 
         2.0126         16.7383         2.55618 
        2.01874         16.7021         2.53681 
        2.02488         16.6129         2.51762 
        2.03101         16.5513         2.49866 
        2.03714         16.4937         2.47991 
        2.04328         16.4078         2.46134 
        2.04941         16.3371         2.44297 
        2.05554         16.3086          2.4248 
        2.06167         16.2526         2.40679 
        2.06781         16.1691         2.38896 
        2.07396          16.111         2.37128 
        2.08009          16.017         2.35381 
        2.08622           15.99         2.33654 
        2.09237         15.9083         2.31941 
        2.09851         15.8751         2.30245 
        2.10464         15.7577         2.28568 
        2.11077         15.7173          2.2691 
        2.11691         15.6478         2.25264 
        2.12305         15.6128         2.23635 
        2.12918         15.5325         2.22026 
        2.13531         15.4828         2.20433 
        2.14145         15.4212         2.18851 
         2.1476         15.3388         2.17283 
        2.15372          15.318         2.15738 
        2.15985         15.2379         2.14207 
        2.16599         15.1567         2.12686 
        2.17213          15.111         2.11181 
        2.17827         15.0441         2.09692 
         2.1844         14.9731         2.08218 
        2.19054         14.9766         2.06757 
        2.19666         14.8778         2.05313 
         2.2028         14.8613         2.03881 
        2.20893         14.7618         2.02462 
        2.21508         14.7105         2.01055 
        2.22122         14.6441         1.99661 
        2.22736         14.6194         1.98283 
        2.23349         14.5452         1.96918 
        2.23962         14.5061         1.95565 
        2.24577         14.4281         1.94224 
         2.2519         14.3688         1.92897 
        2.25802         14.2924         1.91585 
        2.26417         14.2792         1.90281 
        2.27031          14.207         1.88988 
        2.27644         14.1604          1.8771 
        2.28257         14.1113         1.86445 
        2.28872         14.0797         1.85189 
        2.29486         14.0325         1.83944 
        2.30099         13.9403         1.82714 
        2.30712          13.917         1.81494 
        2.31326         13.8379         1.80283 
         2.3194         13.8062         1.79084 
        2.32553         13.7402         1.77898 
        2.33166         13.6806         1.76723 
         2.3378         13.6439         1.75557 
        2.34394         13.5865         1.74401 
        2.35007         13.5416         1.73257 
        2.35619         13.5157         1.72125 
        2.36233         13.4098            1.71 
        2.36848         13.3931         1.69883 
        2.37462         13.3562         1.68778 
        2.38075         13.2919         1.67684 
        2.38689         13.2275         1.66599 
        2.39303         13.1831         1.65524 
        2.39916         13.1347         1.64459 
        2.40529          13.093         1.63403 
        2.41143         13.0285         1.62356 
        2.41757         12.9636         1.61318 
         2.4237         12.9341          1.6029 
        2.42983         12.9072         1.59272 
        2.43598         12.8557          1.5826 
        2.44211         12.8116         1.57258 
        2.44823         12.7345         1.56267 
        2.45437         12.7231         1.55282 
        2.46052         12.6668         1.54304 
        2.46665         12.6405         1.53337 
        2.47279         12.5683         1.52378 
        2.47892         12.5271         1.51427 
        2.48507         12.4974         1.50483 
         2.4912         12.4312         1.49549 
