# k  (h/Mpc)    Pcb(k)  (Mpc/h)^3    Pcb_linear(k)  (Mpc/h)^3
     0.00783031         127.398         128.415 
       0.013688         159.641         160.811 
       0.019231         164.054         164.493 
      0.0249154         153.073         153.253 
      0.0312784         133.101         133.132 
      0.0375637         112.905         112.894 
      0.0433917         97.5165         97.3144 
      0.0492413         85.8138          85.726 
      0.0555754         77.4238         77.2168 
      0.0619321         71.3718         71.5035 
       0.067871         67.2951         67.2997 
      0.0738098         63.0777         63.0938 
      0.0800417         58.0733         58.0453 
      0.0862327         52.3443         52.3594 
      0.0921407         46.7133         46.7201 
      0.0982031         41.3654         41.2907 
       0.104506         36.5284         36.5367 
       0.110769         32.9656         32.9576 
       0.116806         30.6153         30.5468 
       0.122832         28.9224         28.9221 
       0.129052         27.7435         27.7141 
       0.135211         26.6666         26.6289 
       0.141259         25.3988         25.4084 
       0.147318          23.867         23.9159 
       0.153489         22.1449         22.1551 
       0.159709         20.3023         20.2873 
       0.165845          18.501         18.5391 
       0.171974         17.0838         17.0367 
       0.178125         15.8855         15.8486 
       0.184229         14.9921         14.9815 
        0.19034         14.4067         14.3578 
       0.196428         13.9048         13.8787 
       0.202534         13.4079          13.435 
       0.208729         12.9468         12.9376 
       0.214876         12.3897          12.355 
       0.220989         11.6789         11.6931 
       0.227147         11.0258         10.9846 
        0.23329         10.3416         10.2926 
       0.239377         9.72605         9.67197 
       0.245482         9.19977         9.14586 
       0.251667          8.7482         8.71825 
       0.257832         8.43576         8.38205 
       0.263955         8.14129          8.1082 
       0.270079         7.88948         7.86007 
        0.27624         7.61732         7.60706 
       0.282372         7.34754         7.33441 
        0.28843         7.08007         7.04046 
       0.294538         6.76372         6.72837 
       0.300721         6.43168           6.412 
        0.30691         6.15558         6.11227 
       0.313033         5.88389         5.84508 
       0.319153         5.67852         5.61313 
       0.325316          5.4406         5.41323 
        0.33145         5.26739          5.2407 
       0.337538         5.11836         5.08529 
       0.343633         4.97602         4.93584 
       0.349808          4.8154         4.78284 
       0.355968          4.6544         4.62557 
       0.362074         4.50459         4.46522 
       0.368217         4.34113         4.30355 
       0.374374         4.19874         4.14591 
       0.380519         4.03558         3.99761 
       0.386598          3.8958         3.86297 
       0.392688         3.76888         3.74048 
        0.39888         3.66292         3.62768 
       0.405048         3.56123         3.52418 
       0.411186         3.46035         3.42662 
       0.417313         3.36757         3.33202 
       0.423458         3.26454         3.23783 
       0.429607          3.1816         3.14363 
       0.435692         3.09124         3.05121 
       0.441815         2.99474         2.95989 
       0.447964         2.89809         2.87141 
       0.454126         2.82381         2.78732 
       0.460267          2.7518         2.70857 
       0.466387          2.6744         2.63499 
        0.47254         2.60761         2.56558 
       0.478662         2.53883         2.50004 
       0.484765          2.4777         2.43714 
       0.490885         2.41127         2.37574 
       0.497035         2.34459         2.31538 
       0.503198         2.29176         2.25595 
       0.509342         2.22787          2.1979 
       0.515458         2.17702         2.14171 
       0.521598          2.1232         2.08734 
       0.527764         2.07661         2.03497 
       0.533884         2.01645         1.98524 
           0.54         1.97195         1.93778 
       0.546137          1.9221         1.89225 
       0.552299         1.88072         1.84827 
       0.558452         1.83839         1.80575 
       0.564573         1.79795         1.76457 
       0.570708         1.75745         1.72434 
       0.576825          1.7188         1.68528 
       0.582926         1.67719         1.64733 
       0.589034         1.64584         1.61038 
       0.595184         1.61138         1.57431 
       0.601379         1.57244         1.53921 
       0.607522         1.53733         1.50567 
       0.613639         1.50132         1.47345 
       0.619772         1.47514         1.44222 
       0.625918         1.44412         1.41187 
       0.632068         1.41462         1.38235 
       0.638161         1.38526         1.35391 
         0.6443         1.35649         1.32602 
       0.650464         1.33009         1.29877 
       0.656582         1.30598         1.27244 
       0.662703         1.27911         1.24681 
       0.668861          1.2493         1.22173 
       0.675024         1.22684         1.19733 
       0.681124         1.21056         1.17389 
       0.687237         1.18288         1.15108 
       0.693381         1.15649         1.12882 
       0.699536         1.14023         1.10715 
       0.705665         1.11845         1.08615 
       0.711789         1.09401          1.0657 
       0.717957         1.07525         1.04563 
        0.72409          1.0552         1.02616 
       0.730186         1.03938         1.00729 
       0.736317         1.01742        0.988787 
       0.742472         1.00162        0.970686 
       0.748622        0.984329         0.95307 
        0.75476        0.964677        0.935947 
       0.760888        0.950673        0.919288 
       0.767043        0.926943        0.902982 
       0.773185        0.914594        0.887114 
       0.779291        0.902524        0.871723 
       0.785407         0.88556        0.856677 
       0.791564        0.869939        0.841889 
       0.797719        0.855186        0.827456 
       0.803834        0.840635        0.813452 
       0.809972        0.827346        0.799724 
       0.816124        0.813347        0.786284 
       0.822261        0.801132        0.773194 
       0.828378        0.786905        0.760445 
       0.834502        0.774447        0.747979 
       0.840667        0.763345        0.735717 
       0.846816        0.750949        0.723769 
       0.852925        0.737468        0.712166 
       0.859047        0.726359        0.700796 
       0.865192        0.715625         0.68964 
       0.871341        0.705487        0.678721 
       0.877463        0.692558         0.66809 
       0.883569        0.682549        0.657715 
       0.889708          0.6733        0.647508 
       0.895864        0.663213        0.637493 
       0.902008        0.651978        0.627711 
       0.908149          0.6435        0.618143 
       0.914301        0.635211        0.608759 
       0.920448        0.625678        0.599581 
       0.926574        0.617554        0.590626 
       0.932687        0.608189        0.581874 
       0.938823        0.597508         0.57327 
       0.944975         0.59016        0.564821 
       0.951105        0.580088        0.556575 
       0.957225        0.571828        0.548509 
       0.963368        0.565255        0.540576 
       0.969511        0.558076        0.532803 
       0.975621        0.548941        0.525225 
       0.981748        0.539799        0.517776 
       0.987916        0.533193        0.510427 
        0.99406        0.527064        0.503249 
        1.00019        0.519297        0.496224 
        1.00632        0.513938        0.489341 
        1.01246        0.506564         0.48258 
        1.01859        0.499747        0.475959 
        1.02471        0.491899        0.469471 
        1.03085        0.484877        0.463083 
        1.03698        0.479708        0.456828 
        1.04314        0.473379        0.450664 
        1.04929        0.468311        0.444628 
        1.05541        0.460334        0.438729 
        1.06154        0.455411        0.432923 
        1.06769        0.449934        0.427214 
        1.07382        0.444097        0.421628 
        1.07993        0.438871        0.416155 
        1.08607        0.432771        0.410757 
        1.09222         0.42718         0.40545 
        1.09836         0.42224        0.400245 
        1.10449        0.416412        0.395137 
        1.11063        0.411185        0.390114 
        1.11677        0.407209         0.38518 
         1.1229        0.400858        0.380341 
        1.12903        0.396942        0.375581 
        1.13518        0.391799        0.370899 
        1.14131         0.38748          0.3663 
        1.14745        0.384159        0.361782 
        1.15359        0.378387         0.35734 
        1.15973        0.374579        0.352971 
        1.16584        0.369479        0.348695 
        1.17197         0.36472        0.344484 
        1.17811         0.36037        0.340331 
        1.18424        0.356402        0.336258 
        1.19038        0.351725        0.332241 
        1.19652        0.349123        0.328291 
        1.20267         0.34499        0.324406 
        1.20881        0.339576        0.320585 
        1.21495        0.336443        0.316832 
        1.22108        0.333051         0.31314 
         1.2272        0.328591        0.309516 
        1.23334         0.32512        0.305942 
        1.23949        0.322311        0.302416 
        1.24562        0.318456        0.298955 
        1.25174        0.315103        0.295554 
        1.25789        0.310486        0.292197 
        1.26402        0.308162        0.288898 
        1.27014        0.303873        0.285658 
        1.27628        0.301386        0.282458 
        1.28244        0.298185        0.279302 
        1.28858        0.294379        0.276198 
        1.29471        0.291515        0.273149 
        1.30084        0.288297         0.27015 
        1.30697         0.28596         0.26719 
        1.31312        0.282878        0.264272 
        1.31925        0.279755        0.261406 
        1.32537        0.276808        0.258586 
        1.33151        0.273875        0.255798 
        1.33765        0.270817        0.253053 
        1.34378        0.267711        0.250353 
        1.34992        0.266026        0.247692 
        1.35606        0.262705        0.245064 
         1.3622        0.260229        0.242478 
        1.36833        0.258078        0.239937 
        1.37445        0.255595        0.237433 
        1.38059         0.25273        0.234958 
        1.38675        0.249745        0.232512 
        1.39288        0.246888        0.230111 
        1.39901        0.245429        0.227745 
        1.40515        0.242644        0.225407 
         1.4113        0.240745        0.223103 
        1.41742        0.238395         0.22084 
        1.42355        0.235022        0.218604 
         1.4297        0.233884        0.216393 
        1.43585        0.231067        0.214213 
        1.44198        0.229156        0.212072 
        1.44809        0.226675        0.209964 
        1.45423        0.224606        0.207877 
        1.46036        0.222436        0.205823 
        1.46649        0.220352        0.203795 
        1.47263        0.217617        0.201794 
        1.47877        0.216898        0.199821 
        1.48491        0.213773        0.197871 
        1.49104        0.212947        0.195951 
        1.49718        0.210421        0.194055 
        1.50333        0.208662        0.192182 
        1.50947        0.206904        0.190337 
         1.5156        0.204701        0.188519 
        1.52172        0.203121        0.186726 
        1.52787        0.200608        0.184952 
          1.534        0.199342        0.183203 
        1.54013        0.197368        0.181479 
        1.54627        0.195868        0.179775 
        1.55241        0.194002        0.178092 
        1.55855        0.192337        0.176433 
        1.56467        0.190738        0.174799 
         1.5708        0.188947        0.173182 
        1.57695        0.187289        0.171584 
        1.58308        0.185062        0.170009 
        1.58922        0.184054        0.168453 
        1.59535        0.182178        0.166917 
         1.6015        0.180958        0.165398 
        1.60764         0.17905        0.163899 
        1.61376        0.177664        0.162422 
        1.61989        0.175988        0.160963 
        1.62604        0.174652        0.159518 
        1.63218         0.17331        0.158092 
        1.63831        0.171672        0.156687 
        1.64444        0.170315        0.155299 
        1.65059        0.168522        0.153924 
        1.65673         0.16736        0.152567 
        1.66285        0.166213         0.15123 
        1.66898        0.164468         0.14991 
        1.67512        0.163141        0.148602 
        1.68127        0.161776        0.147309 
         1.6874        0.160661        0.146034 
        1.69353        0.159258        0.144775 
        1.69967        0.157584        0.143528 
        1.70581        0.156878        0.142297 
        1.71193        0.155713        0.141084 
        1.71806        0.154149        0.139884 
        1.72421         0.15284        0.138694 
        1.73035        0.151704         0.13752 
        1.73649         0.15054         0.13636 
        1.74262        0.149258        0.135215 
        1.74876        0.148401        0.134081 
        1.75489        0.147009        0.132964 
        1.76101        0.145868        0.131859 
        1.76715        0.144849        0.130765 
        1.77329        0.143476        0.129683 
        1.77943          0.1423        0.128612 
        1.78557        0.141642        0.127555 
        1.79171        0.140449         0.12651 
        1.79785        0.139098        0.125476 
        1.80399         0.13788        0.124454 
        1.81012        0.137185        0.123445 
        1.81625        0.136162        0.122448 
        1.82239        0.135325         0.12146 
        1.82853        0.133974        0.120484 
        1.83466        0.133002        0.119519 
        1.84078        0.132024        0.118566 
        1.84692        0.131029        0.117622 
        1.85306        0.130119        0.116687 
         1.8592         0.12923        0.115764 
        1.86533         0.12833        0.114851 
        1.87147         0.12724        0.113947 
        1.87761        0.126219        0.113053 
        1.88375        0.125189        0.112169 
        1.88988        0.124438        0.111296 
        1.89601        0.123289        0.110431 
        1.90215        0.122469        0.109575 
        1.90829        0.121454        0.108728 
        1.91442         0.12089        0.107891 
        1.92056        0.120042        0.107063 
         1.9267        0.119065        0.106243 
        1.93284        0.118031        0.105431 
        1.93897        0.117277        0.104629 
        1.94509        0.116454        0.103837 
        1.95123        0.115673        0.103051 
        1.95737        0.114967        0.102273 
        1.96349        0.114178        0.101505 
        1.96964        0.113188        0.100743 
        1.97578         0.11254        0.099988 
        1.98192        0.111792       0.0992426 
        1.98805        0.111054       0.0985046 
        1.99419        0.110361       0.0977742 
        2.00033        0.109393       0.0970509 
        2.00647        0.108688       0.0963351 
         2.0126         0.10812       0.0956277 
        2.01874        0.107258       0.0949264 
        2.02488        0.106535       0.0942315 
        2.03101        0.105745       0.0935449 
        2.03714        0.105466       0.0928658 
        2.04328        0.104201       0.0921927 
        2.04941        0.103797       0.0915269 
        2.05554        0.103156       0.0908681 
        2.06167        0.102338        0.090215 
        2.06781        0.101502       0.0895682 
        2.07396        0.100862       0.0889268 
        2.08009        0.100322       0.0882929 
        2.08622       0.0997585       0.0876658 
        2.09237       0.0989648       0.0870437 
        2.09851       0.0983174       0.0864275 
        2.10464       0.0977161       0.0858184 
        2.11077       0.0970224       0.0852158 
        2.11691       0.0965681       0.0846177 
        2.12305       0.0955927       0.0840254 
        2.12918       0.0950688       0.0834402 
        2.13531       0.0945364       0.0828605 
        2.14145       0.0939134        0.082285 
         2.1476       0.0934457       0.0817143 
        2.15372       0.0927743       0.0811519 
        2.15985       0.0921722       0.0805942 
        2.16599       0.0914103       0.0800402 
        2.17213       0.0910989        0.079492 
        2.17827       0.0904768       0.0789491 
         2.1844       0.0898047       0.0784117 
        2.19054       0.0893631       0.0778792 
        2.19666       0.0888109       0.0773524 
         2.2028       0.0879843         0.07683 
        2.20893       0.0877246       0.0763122 
        2.21508       0.0870631       0.0757987 
        2.22122       0.0865095       0.0752896 
        2.22736       0.0860049       0.0747864 
        2.23349       0.0854865       0.0742878 
        2.23962       0.0850384       0.0737936 
        2.24577       0.0845306       0.0733034 
         2.2519       0.0839155       0.0728184 
        2.25802       0.0834879       0.0723386 
        2.26417       0.0830347       0.0718618 
        2.27031       0.0824119       0.0713888 
        2.27644       0.0821485       0.0709215 
        2.28257       0.0814823       0.0704584 
        2.28872       0.0809912       0.0699986 
        2.29486       0.0805955        0.069543 
        2.30099       0.0800212       0.0690924 
        2.30712       0.0796701       0.0686456 
        2.31326       0.0789977        0.068202 
         2.3194       0.0786661       0.0677626 
        2.32553       0.0782596       0.0673278 
        2.33166       0.0776524       0.0668971 
         2.3378       0.0772319       0.0664695 
        2.34394       0.0768419       0.0660455 
        2.35007       0.0764169       0.0656258 
        2.35619       0.0761822       0.0652103 
        2.36233       0.0754802       0.0647975 
        2.36848       0.0751026       0.0643873 
        2.37462       0.0747724       0.0639816 
        2.38075       0.0743125       0.0635798 
        2.38689       0.0739299       0.0631811 
        2.39303       0.0735861       0.0627859 
        2.39916       0.0729528       0.0623946 
        2.40529       0.0725675       0.0620066 
        2.41143       0.0720962       0.0616216 
        2.41757       0.0717836       0.0612397 
         2.4237       0.0713785       0.0608618 
        2.42983       0.0710217       0.0604871 
        2.43598       0.0705623       0.0601146 
        2.44211       0.0700888       0.0597458 
        2.44823       0.0698323        0.059381 
        2.45437       0.0694419       0.0590182 
        2.46052       0.0690606       0.0586582 
        2.46665       0.0686529       0.0583018 
        2.47279       0.0683442       0.0579485 
        2.47892       0.0680957       0.0575979 
        2.48507       0.0675423       0.0572499 
         2.4912       0.0672691       0.0569055 
