# k  (h/Mpc)    Pcb(k)  (Mpc/h)^3    Pcb_linear(k)  (Mpc/h)^3
     0.00783031         3861.62         3885.87 
       0.013688         4787.42         4861.61 
       0.019231          4933.4         4971.18 
      0.0249154         4637.28         4630.64 
      0.0312784         4009.63          4022.2 
      0.0375637         3388.21         3410.53 
      0.0433917          2942.2         2939.75 
      0.0492413         2579.85          2589.6 
      0.0555754          2339.2         2332.51 
      0.0619321         2126.44         2159.89 
       0.067871         2021.43         2032.89 
      0.0738098         1899.51         1905.82 
      0.0800417         1752.55         1753.31 
      0.0862327         1574.61         1581.55 
      0.0921407         1407.82          1411.2 
      0.0982031         1255.99          1247.2 
       0.104506         1102.18          1103.6 
       0.110769         999.015         995.487 
       0.116806          938.57         922.666 
       0.122832         880.483         873.592 
       0.129052         846.099         837.104 
       0.135211         818.836         804.325 
       0.141259         773.962         767.457 
       0.147318         721.814         722.378 
       0.153489         674.039         669.191 
       0.159709          626.81         612.772 
       0.165845          565.79         559.967 
       0.171974         536.277         514.586 
       0.178125         502.254           478.7 
       0.184229         468.995          452.51 
        0.19034         455.782         433.672 
       0.196428         440.865         419.201 
       0.202534          417.52         405.799 
       0.208729         409.148         390.776 
       0.214876         393.719         373.179 
       0.220989         366.805         353.184 
       0.227147         354.111         331.783 
        0.23329         336.015         310.882 
       0.239377         322.105         292.137 
       0.245482         303.763         276.246 
       0.251667          289.41          263.33 
       0.257832         284.704         253.175 
       0.263955          270.27         244.904 
       0.270079         261.439         237.409 
        0.27624         251.328         229.767 
       0.282372         244.179         221.532 
        0.28843          240.99         212.653 
       0.294538          229.19         203.227 
       0.300721         218.742         193.671 
        0.30691          213.77         184.617 
       0.313033          203.92         176.547 
       0.319153          199.69         169.541 
       0.325316         192.409         163.503 
        0.33145         186.658         158.292 
       0.337538         180.951         153.598 
       0.343633         175.804         149.084 
       0.349808         170.558         144.463 
       0.355968         166.066         139.713 
       0.362074         162.483         134.869 
       0.368217         158.502         129.986 
       0.374374         154.396         125.224 
       0.380519         147.645         120.745 
       0.386598         144.239         116.679 
       0.392688          140.06         112.979 
        0.39888         137.416         109.572 
       0.405048         134.391         106.446 
       0.411186         131.802         103.499 
       0.417313         128.442         100.642 
       0.423458         125.206         97.7965 
       0.429607         122.747         94.9514 
       0.435692         120.635         92.1599 
       0.441815           116.8         89.4016 
       0.447964         113.296          86.729 
       0.454126         111.185         84.1891 
       0.460267         110.229         81.8105 
       0.466387         107.483          79.588 
        0.47254         106.207         77.4915 
       0.478662         102.564         75.5121 
       0.484765         100.944         73.6121 
       0.490885         98.5116         71.7577 
       0.497035         97.6621         69.9344 
       0.503198         95.3762         68.1396 
       0.509342         92.9273          66.386 
       0.515458         91.7815          64.689 
       0.521598         89.5274         63.0466 
       0.527764         88.4796         61.4648 
       0.533884         87.5366         59.9627 
           0.54         85.2754         58.5294 
       0.546137         83.1253         57.1541 
       0.552299         81.8213         55.8258 
       0.558452         80.2681         54.5414 
       0.564573         79.8962         53.2976 
       0.570708          77.528         52.0827 
       0.576825          76.769         50.9027 
       0.582926         75.7898         49.7564 
       0.589034         74.4049         48.6404 
       0.595184          73.442         47.5509 
       0.601379         71.5841         46.4908 
       0.607522         70.4807         45.4777 
       0.613639          69.793         44.5046 
       0.619772         68.5182         43.5611 
       0.625918         67.6112         42.6445 
       0.632068         66.7662         41.7531 
       0.638161         65.5196         40.8939 
         0.6443         64.9413         40.0514 
       0.650464         63.5145         39.2284 
       0.656582         63.2168         38.4332 
       0.662703         62.3809          37.659 
       0.668861         60.9218         36.9014 
       0.675024          60.642         36.1646 
       0.681124          59.876         35.4565 
       0.687237         58.6698         34.7676 
       0.693381         58.0532         34.0953 
       0.699536         57.5258         33.4406 
       0.705665         56.5901         32.8063 
       0.711789         55.7629         32.1888 
       0.717957         54.9272         31.5825 
        0.72409         54.4294         30.9944 
       0.730186         54.0991         30.4244 
       0.736317         53.0905         29.8656 
       0.742472         52.4865         29.3189 
       0.748622         51.7197         28.7868 
        0.75476          50.927         28.2696 
       0.760888         50.8187         27.7665 
       0.767043         49.8399         27.2739 
       0.773185         49.3321         26.7947 
       0.779291         48.7236         26.3298 
       0.785407         48.0432         25.8753 
       0.791564         48.0283         25.4287 
       0.797719         47.1791         24.9927 
       0.803834         46.8054         24.5697 
       0.809972         46.1908         24.1551 
       0.816124         45.7351         23.7492 
       0.822261         45.1572         23.3538 
       0.828378         44.9061         22.9687 
       0.834502          44.356         22.5922 
       0.840667         43.9896         22.2218 
       0.846816         43.2792         21.8609 
       0.852925         43.0402         21.5105 
       0.859047         42.8174          21.167 
       0.865192         42.1145         20.8301 
       0.871341         41.6287         20.5003 
       0.877463         41.2986         20.1792 
       0.883569         41.1258         19.8658 
       0.889708         40.6321         19.5575 
       0.895864          40.182          19.255 
       0.902008          39.774         18.9596 
       0.908149         39.4089         18.6706 
       0.914301         39.1289         18.3871 
       0.920448          38.772         18.1099 
       0.926574         38.2224         17.8394 
       0.932687         37.9306         17.5751 
       0.938823         37.5003         17.3152 
       0.944975         37.1922           17.06 
       0.951105         36.9061         16.8109 
       0.957225         36.6695         16.5673 
       0.963368         36.2536         16.3277 
       0.969511          35.953         16.0929 
       0.975621         35.6735          15.864 
       0.981748         35.2784         15.6391 
       0.987916          35.054         15.4171 
        0.99406          34.656         15.2003 
        1.00019         34.4491         14.9881 
        1.00632         34.1749         14.7802 
        1.01246         33.8808          14.576 
        1.01859         33.5729          14.376 
        1.02471         33.2705           14.18 
        1.03085          33.139         13.9871 
        1.03698          32.893         13.7982 
        1.04314         32.5886          13.612 
        1.04929          32.213         13.4297 
        1.05541         32.1159         13.2515 
        1.06154         31.8989         13.0761 
        1.06769         31.4492         12.9037 
        1.07382         31.3067          12.735 
        1.07993         31.0352         12.5696 
        1.08607         30.8298         12.4066 
        1.09222          30.607         12.2463 
        1.09836         30.3163         12.0891 
        1.10449         30.1995         11.9348 
        1.11063         29.9217         11.7831 
        1.11677         29.8695         11.6341 
         1.1229          29.548         11.4879 
        1.12903         29.3221         11.3441 
        1.13518         29.2075         11.2027 
        1.14131         28.9484         11.0638 
        1.14745         28.6323         10.9274 
        1.15359         28.3886         10.7932 
        1.15973         28.2507         10.6612 
        1.16584         28.0501         10.5321 
        1.17197          27.731         10.4049 
        1.17811          27.638         10.2794 
        1.18424         27.3368         10.1564 
        1.19038         27.2661         10.0351 
        1.19652         27.0302         9.91579 
        1.20267         26.9172         9.79844 
        1.20881         26.6908         9.68303 
        1.21495         26.5445         9.56968 
        1.22108         26.4711         9.45817 
         1.2272         26.2592         9.34871 
        1.23334          26.086         9.24074 
        1.23949         25.8754         9.13423 
        1.24562          25.627         9.02972 
        1.25174         25.5429           8.927 
        1.25789         25.4316         8.82558 
        1.26402         25.2731         8.72593 
        1.27014         25.1137         8.62808 
        1.27628         24.8678         8.53144 
        1.28244         24.8596         8.43611 
        1.28858         24.5997         8.34237 
        1.29471         24.4202         8.25027 
        1.30084          24.272         8.15966 
        1.30697         24.1575         8.07029 
        1.31312         23.9663         7.98213 
        1.31925          23.824         7.89558 
        1.32537         23.6564          7.8104 
        1.33151         23.5076         7.72618 
        1.33765         23.4701         7.64326 
        1.34378         23.3191         7.56173 
        1.34992         23.1676         7.48135 
        1.35606          22.988         7.40196 
         1.3622         22.8345         7.32387 
        1.36833         22.7711         7.24711 
        1.37445         22.6129         7.17149 
        1.38059         22.4842         7.09672 
        1.38675         22.3282         7.02284 
        1.39288         22.1951         6.95032 
        1.39901         22.0683         6.87885 
        1.40515         21.9789         6.80824 
         1.4113         21.8727         6.73864 
        1.41742         21.7585         6.67029 
        1.42355         21.5772         6.60276 
         1.4297         21.4586         6.53597 
        1.43585         21.3445         6.47014 
        1.44198         21.2778         6.40546 
        1.44809         21.1492          6.3418 
        1.45423         21.0281         6.27877 
        1.46036         20.9127         6.21672 
        1.46649         20.7871         6.15549 
        1.47263         20.6783         6.09504 
        1.47877         20.5972         6.03543 
        1.48491           20.48         5.97653 
        1.49104         20.3467         5.91854 
        1.49718         20.2772         5.86129 
        1.50333         20.1879          5.8047 
        1.50947         20.0731         5.74899 
         1.5156         19.9539         5.69409 
        1.52172         19.8231         5.63991 
        1.52787         19.7608         5.58633 
          1.534         19.6714         5.53352 
        1.54013         19.5867         5.48145 
        1.54627          19.424         5.42995 
        1.55241         19.3164         5.37912 
        1.55855         19.2418         5.32901 
        1.56467         19.2009         5.27968 
         1.5708         19.0873         5.23084 
        1.57695         18.9912         5.18255 
        1.58308         18.8356         5.13498 
        1.58922          18.763         5.08798 
        1.59535         18.6792         5.04159 
         1.6015         18.5552         4.99571 
        1.60764         18.4971         4.95043 
        1.61376         18.4425         4.90584 
        1.61989         18.2865         4.86176 
        1.62604         18.2386         4.81812 
        1.63218         18.1543         4.77505 
        1.63831         18.0295         4.73261 
        1.64444         17.9514         4.69067 
        1.65059          17.873         4.64915 
        1.65673         17.8133         4.60817 
        1.66285         17.6808          4.5678 
        1.66898         17.6516          4.5279 
        1.67512         17.5956         4.48841 
        1.68127         17.4794         4.44935 
         1.6874         17.4218         4.41085 
        1.69353         17.2605         4.37283 
        1.69967         17.2119         4.33516 
        1.70581         17.1541         4.29796 
        1.71193         17.0307         4.26134 
        1.71806         16.9884         4.22507 
        1.72421         16.9193         4.18915 
        1.73035         16.8194          4.1537 
        1.73649         16.7656         4.11866 
        1.74262         16.6518         4.08405 
        1.74876         16.5977         4.04982 
        1.75489         16.5447         4.01606 
        1.76101         16.4297         3.98269 
        1.76715         16.3902         3.94966 
        1.77329         16.2936         3.91696 
        1.77943         16.2202         3.88463 
        1.78557          16.179          3.8527 
        1.79171         16.0681         3.82113 
        1.79785         16.0173         3.78991 
        1.80399         15.9261         3.75905 
        1.81012         15.8922         3.72857 
        1.81625         15.7945         3.69845 
        1.82239         15.7206         3.66861 
        1.82853         15.6581         3.63913 
        1.83466         15.5625         3.60999 
        1.84078         15.5338         3.58121 
        1.84692         15.5122         3.55269 
        1.85306         15.4154         3.52445 
         1.8592         15.3547         3.49656 
        1.86533         15.2324         3.46899 
        1.87147         15.1876         3.44169 
        1.87761         15.1308         3.41467 
        1.88375         15.0992         3.38797 
        1.88988         14.9754         3.36159 
        1.89601         14.9549         3.33548 
        1.90215         14.8526         3.30962 
        1.90829         14.7878         3.28405 
        1.91442         14.7039         3.25875 
        1.92056         14.7143         3.23374 
         1.9267          14.637         3.20897 
        1.93284         14.6184         3.18444 
        1.93897         14.5163         3.16022 
        1.94509         14.4544          3.1363 
        1.95123         14.3785         3.11257 
        1.95737         14.3423         3.08907 
        1.96349         14.2549         3.06588 
        1.96964          14.237         3.04285 
        1.97578          14.178         3.02006 
        1.98192         14.1157         2.99754 
        1.98805         14.0243         2.97525 
        1.99419         13.9906         2.95319 
        2.00033         13.9401         2.93134 
        2.00647         13.8673         2.90972 
         2.0126         13.8296         2.88836 
        2.01874         13.7514         2.86717 
        2.02488         13.6736         2.84619 
        2.03101         13.6581         2.82545 
        2.03714         13.5892         2.80494 
        2.04328         13.5282         2.78461 
        2.04941         13.4599         2.76449 
        2.05554         13.4504          2.7446 
        2.06167         13.3986         2.72487 
        2.06781         13.3337         2.70533 
        2.07396         13.3184         2.68596 
        2.08009         13.2046         2.66681 
        2.08622         13.1882         2.64788 
        2.09237         13.1455         2.62908 
        2.09851         13.0584         2.61047 
        2.10464         13.0368         2.59207 
        2.11077         12.9595         2.57387 
        2.11691         12.9365         2.55581 
        2.12305         12.8675         2.53792 
        2.12918         12.7908         2.52024 
        2.13531         12.7716         2.50273 
        2.14145         12.7053         2.48535 
         2.1476         12.6534         2.46811 
        2.15372         12.6361         2.45112 
        2.15985         12.5798         2.43428 
        2.16599         12.5295         2.41755 
        2.17213         12.5122         2.40099 
        2.17827         12.4318         2.38459 
         2.1844         12.3869         2.36836 
        2.19054         12.3631         2.35228 
        2.19666         12.3089         2.33637 
         2.2028         12.2713         2.32059 
        2.20893         12.1937         2.30495 
        2.21508         12.1721         2.28944 
        2.22122         12.0938         2.27406 
        2.22736         12.0795         2.25886 
        2.23349         12.0289          2.2438 
        2.23962         12.0025         2.22887 
        2.24577         11.9584         2.21407 
         2.2519         11.9082         2.19942 
        2.25802         11.8193         2.18493 
        2.26417          11.834         2.17052 
        2.27031          11.788         2.15624 
        2.27644         11.7604         2.14212 
        2.28257         11.6645         2.12814 
        2.28872         11.6561         2.11425 
        2.29486         11.6122         2.10049 
        2.30099         11.5685         2.08688 
        2.30712         11.4906         2.07338 
        2.31326         11.4524         2.05998 
         2.3194         11.4241         2.04671 
        2.32553         11.3843         2.03358 
        2.33166         11.3346         2.02057 
         2.3378          11.306         2.00765 
        2.34394         11.2605         1.99485 
        2.35007         11.2291         1.98217 
        2.35619         11.1819         1.96962 
        2.36233         11.1229         1.95715 
        2.36848         11.0867         1.94476 
        2.37462         11.0517         1.93251 
        2.38075           11.02         1.92037 
        2.38689         10.9951         1.90833 
        2.39303         10.9275          1.8964 
        2.39916         10.9216         1.88457 
        2.40529         10.8829         1.87285 
        2.41143         10.8238         1.86123 
        2.41757         10.7747         1.84969 
         2.4237         10.7579         1.83828 
        2.42983         10.7211         1.82696 
        2.43598         10.6819         1.81571 
        2.44211         10.6314         1.80457 
        2.44823         10.6053         1.79355 
        2.45437         10.5698          1.7826 
        2.46052         10.5548         1.77172 
        2.46665         10.5083         1.76096 
        2.47279         10.4585         1.75029 
        2.47892         10.4129          1.7397 
        2.48507         10.3902         1.72918 
         2.4912         10.3679         1.71878 
