# k  (h/Mpc)    Pcb(k)  (Mpc/h)^3    Pcb_linear(k)  (Mpc/h)^3
     0.00783031         10738.3         10798.6 
       0.013688         12683.6         12969.7 
       0.019231         12632.4         12787.7 
      0.0249154         11515.4         11476.5 
      0.0312784         9552.57         9604.17 
      0.0375637         7854.18         7941.84 
      0.0433917         6783.89         6787.34 
      0.0492413          5963.7         6003.58 
      0.0555754         5466.74         5462.23 
      0.0619321         4949.29         5078.69 
       0.067871         4679.21         4737.65 
      0.0738098          4320.5         4344.46 
      0.0800417         3868.88         3869.29 
      0.0862327         3373.11         3378.53 
      0.0921407         2970.82         2949.79 
      0.0982031          2655.7         2593.11 
       0.104506         2356.04         2327.91 
       0.110769         2196.52         2158.45 
       0.116806         2118.02         2054.17 
       0.122832         2007.02         1973.03 
       0.129052         1911.34         1881.87 
       0.135211         1828.96         1766.49 
       0.141259         1673.89         1628.83 
       0.147318         1519.79         1479.93 
       0.153489         1398.89         1335.51 
       0.159709         1312.73            1213 
       0.165845         1194.84         1122.01 
       0.171974         1164.94         1059.18 
       0.178125         1122.73         1016.37 
       0.184229         1051.48         983.115 
        0.19034          1031.5         948.852 
       0.196428         995.345         907.218 
       0.202534          922.99         856.481 
       0.208729         896.654         799.053 
       0.214876         848.271         741.921 
       0.220989         789.104         690.563 
       0.227147         765.397         647.945 
        0.23329         733.826         615.326 
       0.239377         722.997         591.078 
       0.245482         687.179         571.671 
       0.251667         661.563         553.448 
       0.257832         652.854         533.842 
       0.263955         616.752         511.651 
       0.270079         592.905         487.056 
        0.27624         566.247          461.37 
       0.282372         552.008         436.818 
        0.28843         544.984          415.07 
       0.294538         516.268         396.499 
       0.300721         500.742         381.032 
        0.30691         491.731         368.115 
       0.313033         469.474         356.707 
       0.319153         461.975         345.572 
       0.325316         452.658         333.861 
        0.33145         441.048         321.494 
       0.337538         424.361         308.739 
       0.343633         411.495         296.046 
       0.349808         400.393         283.829 
       0.355968         392.193         272.772 
       0.362074         378.894         263.057 
       0.368217         375.603         254.461 
       0.374374         367.607         246.711 
       0.380519          352.51         239.443 
       0.386598         348.048         232.407 
       0.392688         338.893         225.284 
        0.39888         330.416         217.937 
       0.405048         323.432          210.63 
       0.411186         321.627         203.519 
       0.417313         316.093          196.78 
       0.423458         307.224         190.504 
       0.429607         298.642         184.714 
       0.435692         293.847          179.44 
       0.441815         288.319          174.48 
       0.447964          281.13         169.709 
       0.454126         277.405         165.039 
       0.460267         273.141         160.456 
       0.466387         267.238         155.932 
        0.47254         263.784         151.457 
       0.478662         256.911         147.146 
       0.484765         253.503          143.04 
       0.490885         250.179         139.133 
       0.497035          245.81          135.42 
       0.503198         244.188         131.905 
       0.509342         237.925          128.57 
       0.515458         234.227         125.368 
       0.521598         229.388         122.235 
       0.527764         226.767         119.159 
       0.533884         225.398         116.182 
           0.54         221.032         113.283 
       0.546137         215.979         110.461 
       0.552299         214.421         107.725 
       0.558452         210.722         105.105 
       0.564573          209.37         102.614 
       0.570708          204.73         100.219 
       0.576825          201.68         97.9161 
       0.582926         199.736         95.6899 
       0.589034         196.562         93.5215 
       0.595184         195.017          91.398 
       0.601379         191.613         89.3194 
       0.607522         187.458         87.3169 
       0.613639         186.432         85.3811 
       0.619772         184.811         83.4988 
       0.625918         182.651         81.6717 
       0.632068         178.957         79.9033 
       0.638161         177.796         78.2095 
         0.6443         175.997         76.5581 
       0.650464         172.822         74.9514 
       0.656582          171.48         73.4024 
       0.662703         170.124         71.8943 
       0.668861         166.623         70.4162 
       0.675024         166.378         68.9749 
       0.681124         163.952         67.5869 
       0.687237         162.282         66.2341 
       0.693381         160.009         64.9131 
       0.699536         158.712         63.6283 
       0.705665         156.996         62.3862 
       0.711789         154.962         61.1801 
       0.717957         153.375         59.9986 
        0.72409         151.541         58.8553 
       0.730186         151.903         57.7483 
       0.736317         149.472         56.6628 
       0.742472         147.303         55.6005 
       0.748622         145.158         54.5657 
        0.75476         145.686         53.5593 
       0.760888         143.755         52.5796 
       0.767043         141.284         51.6208 
       0.773185         139.975         50.6883 
       0.779291          138.42         49.7846 
       0.785407         137.581         48.9022 
       0.791564         136.375          48.036 
       0.797719         134.231         47.1915 
       0.803834          134.57         46.3728 
       0.809972          133.13         45.5708 
       0.816124           130.9         44.7861 
       0.822261         130.051         44.0219 
       0.828378         129.647         43.2779 
       0.834502         128.009         42.5504 
       0.840667         127.508          41.835 
       0.846816         125.715          41.138 
       0.852925          124.72         40.4614 
       0.859047         123.624         39.7986 
       0.865192         122.952         39.1486 
       0.871341         121.649         38.5128 
       0.877463         120.531          37.894 
       0.883569         120.468         37.2904 
       0.889708         119.235          36.697 
       0.895864         118.092         36.1151 
       0.902008         116.818          35.547 
       0.908149         115.527         34.9916 
       0.914301         115.198         34.4472 
       0.920448          115.01         33.9149 
       0.926574         112.866         33.3958 
       0.932687          112.83         32.8887 
       0.938823          111.96         32.3904 
       0.944975         110.975         31.9012 
       0.951105         109.898          31.424 
       0.957225         109.453         30.9573 
       0.963368         108.393         30.4986 
       0.969511         107.605         30.0492 
       0.975621         106.336         29.6113 
       0.981748          105.81          29.181 
       0.987916         105.135         28.7566 
        0.99406         104.666         28.3423 
        1.00019         103.685         27.9369 
        1.00632         102.829         27.5399 
        1.01246         102.238           27.15 
        1.01859          101.65         26.7683 
        1.02471         100.949         26.3944 
        1.03085         100.002         26.0265 
        1.03698         99.2361         25.6663 
        1.04314         98.7665         25.3114 
        1.04929         98.3321         24.9641 
        1.05541         97.5378         24.6247 
        1.06154         96.7349         24.2908 
        1.06769         96.1764         23.9626 
        1.07382         95.5406         23.6416 
        1.07993         94.9739         23.3272 
        1.08607         94.3397         23.0172 
        1.09222          93.739         22.7126 
        1.09836         92.9919         22.4139 
        1.10449         92.4537         22.1208 
        1.11063         91.8594         21.8328 
        1.11677         91.2787         21.5499 
         1.1229         90.4496         21.2726 
        1.12903         90.0019              21 
        1.13518         89.3908         20.7319 
        1.14131         88.9046         20.4686 
        1.14745          88.522         20.2101 
        1.15359         87.4844          19.956 
        1.15973         87.2619         19.7062 
        1.16584         86.6878         19.4617 
        1.17197         86.2494         19.2211 
        1.17811         85.4988         18.9838 
        1.18424         84.9742         18.7513 
        1.19038         84.6775         18.5219 
        1.19652         84.1476         18.2965 
        1.20267         83.5655         18.0749 
        1.20881         82.9604         17.8569 
        1.21495         82.5362         17.6429 
        1.22108          82.196         17.4325 
         1.2272         81.5081         17.2259 
        1.23334         81.3017         17.0223 
        1.23949         80.7145         16.8214 
        1.24562         80.0325         16.6244 
        1.25174         79.7964         16.4308 
        1.25789         79.2707         16.2397 
        1.26402          78.889          16.052 
        1.27014         78.3258         15.8677 
        1.27628         77.8093         15.6858 
        1.28244         77.7067         15.5063 
        1.28858          76.975         15.3299 
        1.29471         76.5525         15.1567 
        1.30084         75.9361         14.9863 
        1.30697         75.8174         14.8183 
        1.31312         75.3268         14.6526 
        1.31925         74.7382         14.4899 
        1.32537         74.4336         14.3299 
        1.33151          74.249         14.1718 
        1.33765         73.6456         14.0161 
        1.34378         73.2195         13.8631 
        1.34992         73.0236         13.7122 
        1.35606         72.4886         13.5633 
         1.3622          72.295         13.4168 
        1.36833         71.6504         13.2729 
        1.37445         71.2711         13.1312 
        1.38059         70.9903         12.9911 
        1.38675         70.3524         12.8527 
        1.39288         70.1061         12.7168 
        1.39901         69.6512          12.583 
        1.40515         69.3361         12.4509 
         1.4113         68.9948         12.3206 
        1.41742         68.5662         12.1928 
        1.42355         68.3846         12.0665 
         1.4297         67.9044         11.9416 
        1.43585         67.5743         11.8185 
        1.44198         67.1111         11.6977 
        1.44809         66.6062         11.5787 
        1.45423         66.6108          11.461 
        1.46036         66.1114         11.3451 
        1.46649         65.6468         11.2308 
        1.47263         65.3461         11.1179 
        1.47877         65.0753         11.0067 
        1.48491         64.6444         10.8968 
        1.49104         64.2085         10.7887 
        1.49718         64.0035         10.6819 
        1.50333         63.7353         10.5764 
        1.50947         63.4386         10.4725 
         1.5156         63.2332         10.3702 
        1.52172         62.6505         10.2693 
        1.52787         62.3411         10.1695 
          1.534         62.0059         10.0711 
        1.54013         61.9034         9.97418 
        1.54627         61.3121         9.87833 
        1.55241         61.2255         9.78372 
        1.55855         60.6774         9.69048 
        1.56467         60.2269         9.59872 
         1.5708         60.1464         9.50788 
        1.57695         59.8053         9.41809 
        1.58308         59.5153         9.32966 
        1.58922         59.2888          9.2423 
        1.59535          59.155         9.15609 
         1.6015         58.8058         9.07087 
        1.60764          58.442         8.98677 
        1.61376         58.1811         8.90396 
        1.61989         57.6672         8.82214 
        1.62604         57.5638         8.74115 
        1.63218         57.2742         8.66124 
        1.63831          57.028          8.5825 
        1.64444          56.808         8.50471 
        1.65059         56.3792         8.42771 
        1.65673         56.1466         8.35174 
        1.66285         55.7857         8.27691 
        1.66898         55.4379         8.20298 
        1.67512         55.1911         8.12981 
        1.68127         55.1126         8.05747 
         1.6874         54.7376         7.98616 
        1.69353           54.41         7.91576 
        1.69967         54.2478         7.84605 
        1.70581         53.9107          7.7772 
        1.71193         53.6323         7.70944 
        1.71806         53.4406         7.64234 
        1.72421         53.2135          7.5759 
        1.73035         52.9241         7.51033 
        1.73649         52.6015         7.44555 
        1.74262         52.2478         7.38158 
        1.74876          52.213         7.31832 
        1.75489         51.8864         7.25594 
        1.76101         51.6553         7.19429 
        1.76715         51.3736         7.13328 
        1.77329         51.0583          7.0729 
        1.77943         51.0238         7.01319 
        1.78557         50.6808         6.95426 
        1.79171         50.3871         6.89599 
        1.79785         50.1752         6.83838 
        1.80399         49.9541         6.78144 
        1.81012          49.675         6.72522 
        1.81625         49.4552         6.66967 
        1.82239         49.1916         6.61465 
        1.82853         48.9501         6.56029 
        1.83466         48.7411         6.50659 
        1.84078         48.4811         6.45354 
        1.84692         48.4081           6.401 
        1.85306         48.0832         6.34898 
         1.8592         47.8105         6.29762 
        1.86533         47.6276         6.24686 
        1.87147         47.3524         6.19659 
        1.87761         47.1659         6.14686 
        1.88375         46.9561         6.09773 
        1.88988         46.6545         6.04918 
        1.89601         46.5402         6.00114 
        1.90215         46.2114         5.95358 
        1.90829         46.0735         5.90656 
        1.91442          45.767         5.86004 
        1.92056         45.6782         5.81407 
         1.9267          45.446         5.76854 
        1.93284         45.2551         5.72347 
        1.93897         44.9076         5.67896 
        1.94509         44.7326         5.63503 
        1.95123         44.5609         5.59145 
        1.95737         44.4518         5.54829 
        1.96349         44.2115          5.5057 
        1.96964         43.9353         5.46344 
        1.97578         43.7169          5.4216 
        1.98192         43.4714         5.38028 
        1.98805         43.2219         5.33939 
        1.99419         43.1531         5.29892 
        2.00033         42.9465         5.25885 
        2.00647         42.7125         5.21921 
         2.0126         42.5256         5.18003 
        2.01874         42.4476          5.1412 
        2.02488         42.1381         5.10274 
        2.03101         42.0371         5.06474 
        2.03714         41.7688         5.02715 
        2.04328         41.6135         4.98991 
        2.04941         41.2766         4.95308 
        2.05554         41.2159         4.91664 
        2.06167         41.0658         4.88052 
        2.06781          40.849         4.84475 
        2.07396         40.5704          4.8093 
        2.08009         40.4228         4.77425 
        2.08622         40.3068          4.7396 
        2.09237         40.0611         4.70522 
        2.09851         39.8484         4.67118 
        2.10464         39.6879         4.63753 
        2.11077         39.5598         4.60425 
        2.11691         39.3297         4.57123 
        2.12305         39.1284         4.53852 
        2.12918         38.9779         4.50622 
        2.13531         38.7199         4.47422 
        2.14145         38.6132         4.44246 
         2.1476         38.5622         4.41098 
        2.15372         38.3529         4.37995 
        2.15985         38.0718         4.34919 
        2.16599         37.9064         4.31864 
        2.17213         37.7822         4.28841 
        2.17827          37.639         4.25848 
         2.1844         37.3439         4.22886 
        2.19054         37.3512         4.19952 
        2.19666         37.0884         4.17049 
         2.2028         36.8408         4.14171 
        2.20893         36.7562         4.11318 
        2.21508         36.5636          4.0849 
        2.22122         36.4062         4.05686 
        2.22736         36.1843         4.02915 
        2.23349         36.1032         4.00171 
        2.23962          35.935          3.9745 
        2.24577         35.7427         3.94753 
         2.2519         35.5691         3.92084 
        2.25802         35.4169         3.89444 
        2.26417         35.2288         3.86821 
        2.27031         35.0904         3.84219 
        2.27644         35.0376         3.81649 
        2.28257         34.7517         3.79103 
        2.28872         34.7043         3.76575 
        2.29486         34.5378         3.74071 
        2.30099         34.3324         3.71594 
        2.30712         34.2057         3.69139 
        2.31326         34.0504         3.66702 
         2.3194         33.8884         3.64288 
        2.32553         33.7586           3.619 
        2.33166         33.5753         3.59534 
         2.3378         33.3939         3.57186 
        2.34394         33.2821         3.54858 
        2.35007         33.1807         3.52554 
        2.35619         33.0136         3.50273 
        2.36233         32.8032         3.48008 
        2.36848         32.7616         3.45757 
        2.37462         32.5012         3.43531 
        2.38075         32.4486         3.41327 
        2.38689         32.2963          3.3914 
        2.39303          32.167         3.36973 
        2.39916         31.9526         3.34827 
        2.40529         31.8721         3.32699 
        2.41143         31.7416         3.30589 
        2.41757         31.6406         3.28496 
         2.4237         31.4652         3.26425 
        2.42983         31.2813         3.24372 
        2.43598         31.1917         3.22331 
        2.44211         31.0016         3.20311 
        2.44823         30.8808         3.18312 
        2.45437         30.7784         3.16326 
        2.46052         30.5918         3.14354 
        2.46665         30.5205         3.12403 
        2.47279          30.262         3.10469 
        2.47892         30.2374          3.0855 
        2.48507         30.1346         3.06646 
         2.4912         29.9279         3.04761 
