# k  (h/Mpc)    Pcb(k)  (Mpc/h)^3    Pcb_linear(k)  (Mpc/h)^3
     0.00783031         607.502         611.944 
       0.013688         759.799         767.029 
       0.019231         779.829         782.851 
      0.0249154         725.695         725.816 
      0.0312784          627.39         627.615 
      0.0375637         532.094         532.688 
      0.0433917         463.836         462.767 
      0.0492413         412.956         412.936 
      0.0555754         378.245         377.153 
      0.0619321         349.841         351.709 
       0.067871         329.585         329.953 
      0.0738098         305.418         305.574 
      0.0800417         276.429          276.02 
      0.0862327         244.722         244.711 
      0.0921407         216.382         216.334 
      0.0982031         192.421         191.667 
       0.104506         172.189         172.352 
       0.110769         159.281         159.313 
       0.116806         151.676         151.039 
       0.122832         144.826         144.915 
       0.129052         138.981          138.74 
       0.135211         131.881         131.345 
       0.141259         122.613         122.468 
       0.147318         112.325         112.523 
       0.153489         102.634         102.405 
       0.159709         93.9064         93.3361 
       0.165845         86.1393         86.1917 
       0.171974         81.7399         80.9795 
       0.178125         77.9816         77.3372 
       0.184229         74.9408         74.6648 
        0.19034          72.873          72.231 
       0.196428         70.0127         69.4941 
       0.202534         66.1683         66.1722 
       0.208729         62.7593          62.275 
       0.214876         58.9949         58.1921 
       0.220989         54.6336         54.3091 
       0.227147         51.8065         50.9002 
        0.23329          49.131         48.1611 
       0.239377         47.1091         46.0799 
       0.245482         45.3698         44.4672 
       0.251667         43.7298         43.0804 
       0.257832         42.6691         41.7128 
       0.263955          40.885         40.2135 
       0.270079         39.1957         38.5205 
        0.27624         37.2166         36.6781 
       0.282372         35.4482         34.8233 
        0.28843         34.0639         33.0959 
       0.294538         32.4657         31.5574 
       0.300721         30.9786         30.2451 
        0.30691         30.1207         29.1613 
       0.313033         29.1027         28.2476 
       0.319153         28.5068         27.4129 
       0.325316         27.3088         26.5737 
        0.33145          26.405         25.6972 
       0.337538          25.547         24.7734 
       0.343633         24.6919         23.8206 
       0.349808         23.6885         22.8657 
       0.355968         22.7713         21.9671 
       0.362074         22.1169         21.1603 
       0.368217         21.3558         20.4411 
       0.374374          20.854         19.8062 
       0.380519         20.0931         19.2321 
       0.386598         19.4938         18.6964 
       0.392688         18.9229          18.168 
        0.39888          18.465         17.6224 
       0.405048         17.9429         17.0711 
       0.411186          17.372         16.5209 
       0.417313         16.8389         15.9834 
       0.423458         16.2547         15.4717 
       0.429607         15.8986         14.9951 
       0.435692          15.516         14.5604 
       0.441815         14.9941         14.1584 
       0.447964          14.542          13.781 
       0.454126          14.266         13.4186 
       0.460267         14.0103         13.0662 
       0.466387         13.5992         12.7192 
        0.47254         13.3031         12.3718 
       0.478662         12.9137         12.0309 
       0.484765         12.5911         11.7007 
       0.490885         12.2207         11.3832 
       0.497035         11.8921         11.0797 
       0.503198         11.6572         10.7926 
       0.509342         11.3208         10.5228 
       0.515458         11.1234         10.2674 
       0.521598         10.8712         10.0202 
       0.527764         10.6786         9.77817 
       0.533884         10.3476          9.5433 
           0.54         10.1513         9.31367 
       0.546137         9.86075         9.08822 
       0.552299         9.66694          8.8676 
       0.558452         9.44726         8.65462 
       0.564573         9.27249         8.45122 
       0.570708         9.06533         8.25631 
       0.576825         8.88001         8.07008 
       0.582926         8.68039         7.89103 
       0.589034         8.52391          7.7173 
       0.595184         8.38657         7.54725 
       0.601379         8.16583         7.38059 
       0.607522         8.00063          7.2197 
       0.613639         7.81616         7.06364 
       0.619772         7.69584         6.91129 
       0.625918         7.53373         6.76288 
       0.632068         7.41129         6.61888 
       0.638161         7.25765         6.48082 
         0.6443         7.11095          6.3464 
       0.650464         6.95656         6.21597 
       0.656582         6.87738         6.09049 
       0.662703         6.75451          5.9685 
       0.668861         6.57719         5.84897 
       0.675024         6.46669         5.73221 
       0.681124         6.43504         5.61947 
       0.687237         6.27824         5.50935 
       0.693381         6.11844         5.40161 
       0.699536         6.06388         5.29666 
       0.705665         5.95073         5.19518 
       0.711789         5.81833         5.09668 
       0.717957         5.71052         5.00025 
        0.72409         5.63333         4.90697 
       0.730186         5.57594         4.81667 
       0.736317         5.44748         4.72813 
       0.742472         5.37725         4.64142 
       0.748622         5.29308         4.55687 
        0.75476          5.1653         4.47455 
       0.760888         5.11442         4.39435 
       0.767043         4.98729          4.3158 
       0.773185         4.92725         4.23935 
       0.779291         4.89139         4.16522 
       0.785407         4.79046         4.09282 
       0.791564         4.71927         4.02174 
       0.797719         4.63677         3.95244 
       0.803834         4.57544         3.88524 
       0.809972         4.49671         3.81938 
       0.816124         4.43315         3.75493 
       0.822261         4.37169         3.69215 
       0.828378         4.30024           3.631 
       0.834502         4.24021         3.57117 
       0.840667         4.19219         3.51231 
       0.846816         4.11364         3.45494 
       0.852925         4.05455         3.39921 
       0.859047         3.99728         3.34461 
       0.865192         3.94142         3.29103 
       0.871341         3.88743          3.2386 
       0.877463         3.82485         3.18756 
       0.883569         3.77833         3.13776 
       0.889708         3.72988         3.08877 
       0.895864         3.67896         3.04072 
       0.902008         3.61678          2.9938 
       0.908149         3.57282         2.94791 
       0.914301         3.53216         2.90291 
       0.920448          3.4873          2.8589 
       0.926574         3.45698         2.81597 
       0.932687         3.39955         2.77401 
       0.938823         3.33885         2.73276 
       0.944975         3.31223         2.69226 
       0.951105         3.24782         2.65273 
       0.957225         3.22091         2.61407 
       0.963368         3.18635         2.57605 
       0.969511          3.1483         2.53879 
       0.975621         3.09968         2.50247 
       0.981748         3.04356         2.46677 
       0.987916         3.01498         2.43155 
        0.99406         2.99165         2.39715 
        1.00019         2.95257         2.36349 
        1.00632         2.92363         2.33051 
        1.01246          2.8801         2.29812 
        1.01859         2.84676         2.26639 
        1.02471         2.80012         2.23531 
        1.03085         2.77467          2.2047 
        1.03698          2.7456         2.17474 
        1.04314         2.71522         2.14521 
        1.04929         2.68364          2.1163 
        1.05541         2.64319         2.08805 
        1.06154         2.62347         2.06024 
        1.06769         2.60105          2.0329 
        1.07382         2.56012         2.00615 
        1.07993         2.52752         1.97994 
        1.08607         2.50786          1.9541 
        1.09222         2.47132          1.9287 
        1.09836         2.45945         1.90378 
        1.10449         2.41151         1.87933 
        1.11063         2.39056         1.85528 
        1.11677         2.36962         1.83167 
         1.1229         2.33598         1.80851 
        1.12903         2.32145         1.78574 
        1.13518         2.28699         1.76334 
        1.14131          2.2659         1.74134 
        1.14745         2.24102         1.71972 
        1.15359          2.2179         1.69848 
        1.15973         2.19312         1.67758 
        1.16584         2.17001         1.65713 
        1.17197         2.14434           1.637 
        1.17811         2.12232         1.61713 
        1.18424         2.10033         1.59766 
        1.19038         2.07806         1.57845 
        1.19652         2.06254         1.55957 
        1.20267         2.04525           1.541 
        1.20881         2.01785         1.52273 
        1.21495         2.00001          1.5048 
        1.22108          1.9822         1.48715 
         1.2272         1.95301         1.46983 
        1.23334         1.94226         1.45275 
        1.23949         1.92203         1.43589 
        1.24562         1.90372         1.41936 
        1.25174          1.8876         1.40311 
        1.25789         1.86259         1.38706 
        1.26402         1.84393          1.3713 
        1.27014         1.82424         1.35582 
        1.27628         1.81096         1.34053 
        1.28244         1.79486         1.32545 
        1.28858         1.77579         1.31062 
        1.29471         1.75493         1.29606 
        1.30084         1.74238         1.28173 
        1.30697          1.7304          1.2676 
        1.31312         1.71232         1.25366 
        1.31925          1.6965         1.23997 
        1.32537         1.68289         1.22651 
        1.33151         1.66396         1.21319 
        1.33765         1.65059         1.20008 
        1.34378         1.63475          1.1872 
        1.34992         1.62332         1.17449 
        1.35606         1.60671         1.16194 
         1.3622         1.59397          1.1496 
        1.36833         1.57712         1.13747 
        1.37445          1.5629         1.12552 
        1.38059         1.54966         1.11371 
        1.38675         1.53637         1.10204 
        1.39288         1.52537         1.09058 
        1.39901         1.50962         1.07929 
        1.40515         1.49563         1.06814 
         1.4113         1.48855         1.05715 
        1.41742         1.46975         1.04635 
        1.42355         1.45565         1.03569 
         1.4297         1.44855         1.02514 
        1.43585          1.4339         1.01475 
        1.44198         1.42265         1.00454 
        1.44809         1.41097        0.994485 
        1.45423         1.39998        0.984535 
        1.46036          1.3886        0.974738 
        1.46649         1.37186        0.965072 
        1.47263         1.36551         0.95553 
        1.47877         1.35895        0.946121 
        1.48491         1.33915        0.936825 
        1.49104         1.33317        0.927674 
        1.49718         1.31941        0.918638 
        1.50333         1.31015        0.909708 
        1.50947         1.30161        0.900916 
         1.5156         1.28983        0.892254 
        1.52172         1.28107        0.883705 
        1.52787         1.26929        0.875252 
          1.534         1.26233         0.86692 
        1.54013          1.2501        0.858706 
        1.54627          1.2404        0.850583 
        1.55241         1.22882        0.842564 
        1.55855         1.22075        0.834661 
        1.56467         1.21161         0.82688 
         1.5708         1.20226        0.819178 
        1.57695          1.1912        0.811562 
        1.58308         1.18063         0.80406 
        1.58922         1.17602        0.796649 
        1.59535         1.16311        0.789334 
         1.6015         1.15438        0.782101 
        1.60764         1.14751        0.774962 
        1.61376         1.13749        0.767933 
        1.61989         1.13049        0.760985 
        1.62604         1.11867        0.754107 
        1.63218         1.11527        0.747319 
        1.63831         1.10497         0.74063 
        1.64444         1.09687        0.734021 
        1.65059         1.09022        0.727477 
        1.65673         1.07966        0.721019 
        1.66285         1.07274        0.714659 
        1.66898         1.06683        0.708373 
        1.67512         1.05515         0.70215 
        1.68127         1.04771        0.695997 
         1.6874         1.04412        0.689931 
        1.69353         1.03394        0.683942 
        1.69967         1.02793        0.678009 
        1.70581         1.02278         0.67215 
        1.71193         1.01206        0.666382 
        1.71806          1.0066         0.66067 
        1.72421         1.00004        0.655013 
        1.73035        0.988844        0.649429 
        1.73649        0.988173        0.643912 
        1.74262        0.977674        0.638464 
        1.74876         0.97169        0.633074 
        1.75489        0.965873        0.627759 
        1.76101        0.956603        0.622506 
        1.76715        0.951662        0.617306 
        1.77329        0.946007        0.612159 
        1.77943        0.939255        0.607068 
        1.78557        0.935098        0.602044 
        1.79171        0.928465        0.597075 
        1.79785        0.921297        0.592161 
        1.80399         0.91339        0.587304 
        1.81012        0.908279        0.582508 
        1.81625        0.901959        0.577768 
        1.82239        0.896982        0.573074 
        1.82853        0.890575        0.568434 
        1.83466         0.88402         0.56385 
        1.84078        0.877847        0.559321 
        1.84692        0.873298        0.554836 
        1.85306        0.869326        0.550393 
         1.8592        0.861141        0.546007 
        1.86533        0.857275        0.541671 
        1.87147        0.848762        0.537377 
        1.87761        0.845354        0.533128 
        1.88375        0.839931        0.528929 
        1.88988        0.833446        0.524781 
        1.89601        0.828208        0.520675 
        1.90215        0.824286        0.516609 
        1.90829        0.818509        0.512589 
        1.91442        0.813271        0.508611 
        1.92056        0.810005        0.504679 
         1.9267        0.803684        0.500785 
        1.93284        0.797727        0.496929 
        1.93897        0.793435        0.493122 
        1.94509        0.789808        0.489362 
        1.95123        0.782509        0.485633 
        1.95737        0.778921        0.481939 
        1.96349         0.77379        0.478294 
        1.96964        0.770692        0.474675 
        1.97578        0.763284        0.471093 
        1.98192        0.759682        0.467555 
        1.98805        0.755574        0.464053 
        1.99419        0.751688        0.460586 
        2.00033        0.747321        0.457154 
        2.00647        0.742835        0.453757 
         2.0126        0.739199        0.450401 
        2.01874        0.734294        0.447073 
        2.02488         0.72828        0.443777 
        2.03101        0.724548        0.440519 
        2.03714        0.721893        0.437297 
        2.04328        0.716072        0.434104 
        2.04941        0.712023        0.430946 
        2.05554        0.708177        0.427821 
        2.06167        0.704279        0.424723 
        2.06781        0.698444        0.421655 
        2.07396        0.697006        0.418614 
        2.08009        0.691796        0.415607 
        2.08622        0.688045        0.412634 
        2.09237        0.684537        0.409683 
        2.09851        0.679581        0.406761 
        2.10464        0.676832        0.403873 
        2.11077        0.670999        0.401016 
        2.11691        0.668353        0.398181 
        2.12305         0.66626        0.395372 
        2.12918          0.6607        0.392598 
        2.13531        0.657328         0.38985 
        2.14145        0.653329        0.387122 
         2.1476         0.65083        0.384417 
        2.15372        0.646775        0.381752 
        2.15985        0.642731        0.379109 
        2.16599        0.640073        0.376483 
        2.17213        0.636229        0.373885 
        2.17827        0.631532        0.371313 
         2.1844        0.629658        0.368767 
        2.19054        0.626127        0.366244 
        2.19666         0.62294        0.363748 
         2.2028        0.618866        0.361273 
        2.20893        0.616228         0.35882 
        2.21508        0.612492        0.356387 
        2.22122        0.610043        0.353976 
        2.22736        0.604397        0.351592 
        2.23349        0.601464         0.34923 
        2.23962        0.599574        0.346889 
        2.24577        0.596396        0.344568 
         2.2519        0.593001        0.342271 
        2.25802        0.590892        0.339999 
        2.26417        0.586193        0.337741 
        2.27031        0.583959        0.335501 
        2.27644        0.582205        0.333288 
        2.28257        0.577086        0.331096 
        2.28872        0.575803        0.328919 
        2.29486        0.571654        0.326762 
        2.30099        0.569193        0.324628 
        2.30712        0.566262        0.322513 
        2.31326        0.563373        0.320413 
         2.3194        0.560934        0.318333 
        2.32553        0.557224        0.316276 
        2.33166         0.55567        0.314237 
         2.3378        0.552186        0.312213 
        2.34394         0.54948        0.310206 
        2.35007        0.545567         0.30822 
        2.35619        0.542468        0.306254 
        2.36233        0.540426          0.3043 
        2.36848        0.538939         0.30236 
        2.37462        0.536099         0.30044 
        2.38075        0.532673        0.298539 
        2.38689        0.530871        0.296652 
        2.39303        0.527772        0.294783 
        2.39916        0.525174        0.292931 
        2.40529        0.523768        0.291096 
        2.41143        0.519394        0.289274 
        2.41757        0.517634        0.287468 
         2.4237        0.515021         0.28568 
        2.42983        0.512421        0.283908 
        2.43598        0.510272        0.282146 
        2.44211        0.506991        0.280402 
        2.44823        0.505387        0.278677 
        2.45437         0.50359        0.276961 
        2.46052        0.501156        0.275259 
        2.46665        0.498091        0.273574 
        2.47279        0.495807        0.271903 
        2.47892         0.49369        0.270245 
        2.48507        0.492117          0.2686 
         2.4912        0.488962        0.266971 
