# k  (h/Mpc)    Pcb(k)  (Mpc/h)^3    Pcb_linear(k)  (Mpc/h)^3
     0.00783031         6795.42         6824.09 
       0.013688          8803.6         8977.11 
       0.019231         9539.95         9647.43 
      0.0249154         9456.96         9464.43 
      0.0312784         8623.52         8707.06 
      0.0375637         7656.82         7779.89 
      0.0433917         6930.57         6979.52 
      0.0492413         6231.19         6324.73 
      0.0555754         5742.97         5793.34 
      0.0619321         5217.62         5398.76 
       0.067871         4981.21         5093.33 
      0.0738098         4708.31         4795.48 
      0.0800417         4382.66         4456.87 
      0.0862327         4000.03         4088.68 
      0.0921407         3651.08         3725.59 
      0.0982031          3337.9         3369.78 
       0.104506         2987.74         3046.18 
       0.110769         2748.59         2787.84 
       0.116806          2610.6         2599.39 
       0.122832         2443.35         2459.58 
       0.129052         2335.88         2347.18 
       0.135211         2265.83         2247.39 
       0.141259         2133.44         2144.72 
       0.147318         1991.76         2029.16 
       0.153489         1885.92         1898.81 
       0.159709         1792.82         1762.09 
       0.165845         1633.05         1632.42 
       0.171974         1577.97         1517.35 
       0.178125         1504.72         1421.79 
       0.184229         1394.84         1347.32 
        0.19034         1365.64         1289.65 
       0.196428         1325.07         1242.98 
       0.202534         1249.66          1200.3 
       0.208729         1229.44         1155.49 
       0.214876         1185.38         1106.31 
       0.220989         1113.29         1052.49 
       0.227147            1087          995.58 
        0.23329         1043.34         939.652 
       0.239377         1020.72         888.515 
       0.245482         967.804         843.832 
       0.251667         929.716         806.117 
       0.257832         919.309         775.337 
       0.263955         873.438         749.587 
       0.270079         848.569         726.269 
        0.27624          814.58         703.106 
       0.282372         799.841         678.852 
        0.28843         793.922         653.301 
       0.294538         754.457         626.362 
       0.300721         731.389          599.01 
        0.30691         719.136          572.82 
       0.313033         689.032         549.136 
       0.319153         677.672         528.223 
       0.325316         665.158         509.929 
        0.33145         651.631         493.989 
       0.337538         629.442          479.63 
       0.343633         611.821         465.895 
       0.349808         597.463         451.999 
       0.355968         586.497         437.761 
       0.362074          569.86         423.314 
       0.368217         565.322         408.665 
       0.374374          554.55         394.317 
       0.380519         533.271         380.732 
       0.386598         527.043         368.292 
       0.392688         516.607         356.967 
        0.39888          502.96         346.492 
       0.405048         495.268         336.907 
       0.411186         492.306         327.912 
       0.417313         485.608          319.18 
       0.423458         471.713         310.503 
       0.429607         460.765         301.809 
       0.435692         452.976          293.21 
       0.441815         446.094         284.692 
       0.447964         436.319         276.408 
       0.454126           430.6          268.49 
       0.460267         424.457         261.079 
       0.466387         417.912         254.184 
        0.47254         412.182         247.675 
       0.478662         402.169         241.544 
       0.484765         398.213         235.684 
       0.490885          394.01         229.961 
       0.497035          387.56         224.294 
       0.503198         385.663         218.696 
       0.509342         375.649         213.217 
       0.515458         371.129         207.885 
       0.521598         364.269         202.699 
       0.527764         359.462         197.701 
       0.533884         358.826         192.979 
           0.54         352.442         188.482 
       0.546137          344.99         184.164 
       0.552299         344.157         179.997 
       0.558452         338.708         175.977 
       0.564573         335.455         172.088 
       0.570708         330.517         168.272 
       0.576825         325.178         164.541 
       0.582926         322.107         160.902 
       0.589034         318.179         157.357 
       0.595184         316.196         153.901 
       0.601379         310.334         150.538 
       0.607522         305.446         147.319 
       0.613639         303.481         144.225 
       0.619772         301.615          141.23 
       0.625918         298.033         138.329 
       0.632068         292.789         135.512 
       0.638161          290.07         132.795 
         0.6443         288.603          130.12 
       0.650464         283.943         127.494 
       0.656582         281.664          124.95 
       0.662703         279.687         122.471 
       0.668861         274.975         120.049 
       0.675024         274.125         117.697 
       0.681124         270.816          115.44 
       0.687237         267.934         113.242 
       0.693381         265.763         111.095 
       0.699536         262.549             109 
       0.705665         259.821         106.968 
       0.711789         257.762         104.989 
       0.717957         254.803         103.045 
        0.72409         252.905         101.161 
       0.730186         253.222         99.3343 
       0.736317         248.829          97.543 
       0.742472         245.714         95.7892 
       0.748622         242.591         94.0804 
        0.75476         243.278         92.4172 
       0.760888         240.414         90.7972 
       0.767043         237.464         89.2103 
       0.773185         235.706         87.6653 
       0.779291         232.498         86.1664 
       0.785407         231.406         84.7011 
       0.791564         229.297         83.2612 
       0.797719         226.288          81.856 
       0.803834         226.978         80.4924 
       0.809972         225.209         79.1553 
       0.816124         222.234         77.8457 
       0.822261         219.862         76.5694 
       0.828378         220.115         75.3257 
       0.834502         216.294         74.1086 
       0.840667         215.942         72.9107 
       0.846816         213.534         71.7428 
       0.852925         211.942          70.608 
       0.859047         209.791         69.4955 
       0.865192         209.353         68.4034 
       0.871341         206.595         67.3343 
       0.877463         205.071         66.2931 
       0.883569         204.823         65.2766 
       0.889708         203.202         64.2765 
       0.895864         201.276         63.2949 
       0.902008         199.559          62.336 
       0.908149         197.424         61.3977 
       0.914301         197.321         60.4774 
       0.920448         195.982          59.577 
       0.926574         193.696         58.6983 
       0.932687         192.947         57.8392 
       0.938823         191.513         56.9944 
       0.944975         189.656         56.1647 
       0.951105         188.338         55.3546 
       0.957225          187.84         54.5619 
       0.963368         186.045         53.7822 
       0.969511         184.035         53.0178 
       0.975621          183.01         52.2724 
       0.981748          181.58         51.5395 
       0.987916         180.762         50.8161 
        0.99406         179.606         50.1094 
        1.00019         178.338         49.4176 
        1.00632         177.611         48.7396 
        1.01246         176.195         48.0734 
        1.01859          174.77         47.4207 
        1.02471         173.494         46.7811 
        1.03085         172.473         46.1511 
        1.03698         171.198         45.5341 
        1.04314         170.537         44.9258 
        1.04929         169.755         44.3301 
        1.05541         168.535         43.7476 
        1.06154         167.523         43.1743 
        1.06769         165.877         42.6104 
        1.07382         165.151         42.0585 
        1.07993         164.205         41.5177 
        1.08607         162.757         40.9842 
        1.09222         162.202         40.4596 
        1.09836         160.759         39.9449 
        1.10449         159.579         39.4397 
        1.11063         158.715         38.9428 
        1.11677         157.968         38.4547 
         1.1229         156.694         37.9758 
        1.12903         156.231         37.5047 
        1.13518         155.151         37.0413 
        1.14131         154.248         36.5859 
        1.14745         153.032         36.1386 
        1.15359         151.594         35.6986 
        1.15973         151.141         35.2659 
        1.16584         150.328         34.8423 
        1.17197         149.516          34.425 
        1.17811          148.28         34.0134 
        1.18424         147.467         33.6097 
        1.19038         146.953         33.2114 
        1.19652         145.675         32.8198 
        1.20267         144.883         32.4345 
        1.20881         143.986         32.0555 
        1.21495          143.61         31.6831 
        1.22108         142.392         31.3168 
         1.2272         141.406         30.9571 
        1.23334         140.999         30.6023 
        1.23949         140.384         30.2522 
        1.24562         139.106         29.9086 
        1.25174         137.963         29.5709 
        1.25789         137.851         29.2374 
        1.26402         136.981         28.9096 
        1.27014         136.187         28.5877 
        1.27628         134.682         28.2697 
        1.28244         134.523          27.956 
        1.28858         133.456         27.6474 
        1.29471         132.651         27.3442 
        1.30084         131.981         27.0459 
        1.30697         131.678         26.7516 
        1.31312         130.672         26.4612 
        1.31925         129.699         26.1761 
        1.32537         129.184         25.8955 
        1.33151         128.756          25.618 
        1.33765         127.422         25.3448 
        1.34378          127.46         25.0761 
        1.34992          126.76         24.8111 
        1.35606         125.753         24.5494 
         1.3622           125.4         24.2919 
        1.36833          124.08         24.0388 
        1.37445         123.647         23.7894 
        1.38059         123.091         23.5428 
        1.38675         122.182         23.2992 
        1.39288         121.726         23.0599 
        1.39901         120.548         22.8242 
        1.40515         120.421         22.5912 
         1.4113         119.748         22.3615 
        1.41742         118.849          22.136 
        1.42355         118.356         21.9131 
         1.4297         117.611         21.6927 
        1.43585         116.807         21.4753 
        1.44198         116.186         21.2618 
        1.44809         115.454         21.0516 
        1.45423         114.978         20.8435 
        1.46036         114.111         20.6386 
        1.46649         113.571         20.4363 
        1.47263         113.223         20.2367 
        1.47877         112.491         20.0397 
        1.48491         111.716         19.8451 
        1.49104         110.768         19.6535 
        1.49718         110.766         19.4643 
        1.50333          110.04         19.2773 
        1.50947         109.633         19.0931 
         1.5156         108.992         18.9116 
        1.52172         108.247         18.7324 
        1.52787         107.569         18.5553 
          1.534         107.315         18.3806 
        1.54013         106.727         18.2084 
        1.54627          105.82         18.0381 
        1.55241         105.307         17.8699 
        1.55855          104.89         17.7042 
        1.56467         103.927         17.5409 
         1.5708         103.713         17.3793 
        1.57695          103.24         17.2195 
        1.58308         102.666         17.0621 
        1.58922         102.269         16.9065 
        1.59535         101.759          16.753 
         1.6015         101.258         16.6011 
        1.60764         100.595         16.4512 
        1.61376         99.9375         16.3036 
        1.61989         99.2786         16.1576 
        1.62604         98.9052         16.0131 
        1.63218         98.5717         15.8705 
        1.63831         97.8595           15.73 
        1.64444          97.427         15.5911 
        1.65059         96.8839         15.4535 
        1.65673         96.1854         15.3178 
        1.66285         95.6654         15.1841 
        1.66898         95.1038         15.0519 
        1.67512         94.9248         14.9211 
        1.68127         94.3444         14.7917 
         1.6874         93.7796         14.6641 
        1.69353         93.2945         14.5381 
        1.69967         93.0186         14.4133 
        1.70581         92.4593           14.29 
        1.71193         91.9428         14.1686 
        1.71806         91.2024         14.0484 
        1.72421         90.9349         13.9293 
        1.73035         90.7247         13.8117 
        1.73649         90.0243         13.6956 
        1.74262         89.3178         13.5808 
        1.74876         89.0736         13.4673 
        1.75489         88.3654         13.3554 
        1.76101         87.9623         13.2447 
        1.76715         87.7223         13.1351 
        1.77329         87.0536         13.0267 
        1.77943         86.7759         12.9194 
        1.78557         86.4428         12.8135 
        1.79171         85.8566         12.7088 
        1.79785         85.3739         12.6052 
        1.80399         84.9533         12.5028 
        1.81012         84.4585         12.4017 
        1.81625         84.2774         12.3017 
        1.82239         83.9202         12.2027 
        1.82853         83.2123         12.1048 
        1.83466         82.8169         12.0082 
        1.84078         82.4385         11.9126 
        1.84692         82.1279          11.818 
        1.85306         81.6913         11.7242 
         1.8592         81.2793         11.6316 
        1.86533         80.7332         11.5401 
        1.87147         80.3333         11.4495 
        1.87761         79.8443         11.3598 
        1.88375         79.3866         11.2711 
        1.88988         79.0765         11.1835 
        1.89601         78.5902         11.0968 
        1.90215         78.1959          11.011 
        1.90829         77.9469         10.9261 
        1.91442         77.5204          10.842 
        1.92056         77.0428          10.759 
         1.9267         76.7308         10.6767 
        1.93284         76.4999         10.5953 
        1.93897         76.0722         10.5148 
        1.94509         75.5847         10.4354 
        1.95123         75.2672         10.3565 
        1.95737         74.6713         10.2785 
        1.96349         74.4146         10.2014 
        1.96964         74.0368         10.1249 
        1.97578          73.596         10.0492 
        1.98192         73.2938         9.97433 
        1.98805         72.8576         9.90027 
        1.99419         72.4429         9.82696 
        2.00033         72.0423         9.75435 
        2.00647         71.8605         9.68249 
         2.0126         71.3994         9.61149 
        2.01874         71.1141         9.54108 
        2.02488         70.7951         9.47132 
        2.03101         70.3977         9.40239 
        2.03714         70.2144         9.33421 
        2.04328         69.7252         9.26662 
        2.04941         69.2401         9.19977 
        2.05554         69.1076         9.13362 
        2.06167         68.8759         9.06803 
        2.06781         68.1904         9.00308 
        2.07396          67.927         8.93867 
        2.08009         67.7451           8.875 
        2.08622         67.2883         8.81203 
        2.09237         66.9013         8.74954 
        2.09851         66.5487         8.68765 
        2.10464         66.2851         8.62646 
        2.11077         65.9821         8.56594 
        2.11691         65.6158         8.50586 
        2.12305          65.229         8.44635 
        2.12918         64.9335         8.38756 
        2.13531         64.6688         8.32932 
        2.14145         64.2194          8.2715 
         2.1476         63.9856         8.21416 
        2.15372         63.7421         8.15766 
        2.15985         63.3272         8.10163 
        2.16599         62.9982         8.04596 
        2.17213          62.767         7.99088 
        2.17827         62.4117         7.93633 
         2.1844         62.1283         7.88234 
        2.19054         61.7818         7.82883 
        2.19666         61.3769         7.77589 
         2.2028         61.2291          7.7234 
        2.20893         60.7921         7.67136 
        2.21508          60.505         7.61975 
        2.22122         60.2131         7.56859 
        2.22736         59.8869         7.51801 
        2.23349         59.7582         7.46791 
        2.23962         59.3357         7.41823 
        2.24577         59.1601         7.36897 
         2.2519         58.7577         7.32022 
        2.25802         58.5287         7.27199 
        2.26417         58.2045         7.22405 
        2.27031         57.9103         7.17651 
        2.27644         57.6576         7.12953 
        2.28257         57.3467         7.08298 
        2.28872         57.1945         7.03675 
        2.29486         56.9059         6.99095 
        2.30099         56.4526         6.94564 
        2.30712         56.3286         6.90072 
        2.31326         55.9503         6.85612 
         2.3194         55.6752         6.81194 
        2.32553         55.5516         6.76822 
        2.33166         55.0352         6.72491 
         2.3378         54.7949         6.68192 
        2.34394         54.5803         6.63928 
        2.35007         54.2582         6.59708 
        2.35619          54.158          6.5553 
        2.36233         53.7192         6.51378 
        2.36848         53.5007         6.47254 
        2.37462         53.2682         6.43174 
        2.38075         53.0617         6.39133 
        2.38689         52.7989         6.35123 
        2.39303         52.6196         6.31149 
        2.39916         52.3262         6.27213 
        2.40529         52.0216          6.2331 
        2.41143         51.7524         6.19438 
        2.41757         51.4809         6.15597 
         2.4237         51.3584         6.11796 
        2.42983         50.9716         6.08027 
        2.43598         50.6862          6.0428 
        2.44211         50.5628          6.0057 
        2.44823         50.2992         5.96901 
        2.45437         50.0643         5.93251 
        2.46052         49.7029         5.89629 
        2.46665         49.5196         5.86044 
        2.47279         49.2994          5.8249 
        2.47892         49.0419         5.78963 
        2.48507         48.8391         5.75461 
         2.4912         48.5593         5.71996 
