# k  (h/Mpc)    P(k)  (Mpc/h)^3    P_linear(k)  (Mpc/h)^3
     0.00783031         16831.7         17056.4 
       0.013688         21295.4         21071.5 
       0.019231         21460.7         21416.7 
      0.0249154         19428.9         19877.5 
      0.0312784         17004.5         17231.3 
      0.0375637         14583.2         14607.2 
      0.0433917         12346.4         12600.9 
      0.0492413         11019.2         11111.4 
      0.0555754         9673.89         10011.4 
      0.0619321         9261.42         9258.63 
       0.067871         8412.95         8690.07 
      0.0738098         7852.46         8115.68 
      0.0800417         7099.37         7433.95 
      0.0862327         6475.34         6681.49 
      0.0921407         5896.05         5950.03 
      0.0982031         5206.37          5258.4 
       0.104506         4804.47          4662.5 
       0.110769         4373.12         4219.45 
       0.116806         4076.82         3922.27 
       0.122832         3869.25         3718.93 
       0.129052         3608.11         3560.53 
       0.135211         3455.29         3410.46 
       0.141259         3336.65          3239.5 
       0.147318         3162.24         3034.49 
       0.153489         2901.32         2799.69 
       0.159709         2732.13         2558.09 
       0.165845         2606.12         2338.26 
       0.171974          2441.6         2153.99 
       0.178125         2309.53         2011.16 
       0.184229         2197.54          1907.8 
        0.19034         2085.29         1832.16 
       0.196428         2048.16         1770.82 
       0.202534         1976.02         1710.25 
       0.208729         1894.22         1640.44 
       0.214876         1822.12         1559.54 
       0.220989         1759.03         1470.17 
       0.227147         1683.32         1377.63 
        0.23329         1612.37         1290.21 
       0.239377         1583.57         1214.11 
       0.245482         1484.22         1151.09 
       0.251667         1475.34         1100.52 
       0.257832         1416.85          1060.4 
       0.263955         1371.56         1026.43 
       0.270079         1325.61         994.002 
        0.27624         1311.54         959.635 
       0.282372         1257.78         922.264 
        0.28843         1250.76         882.566 
       0.294538         1188.96         841.413 
       0.300721         1180.74          800.94 
        0.30691         1135.64         763.647 
       0.313033         1112.67         731.225 
       0.319153         1093.87         703.428 
       0.325316         1058.34         679.493 
        0.33145         1035.42          658.39 
       0.337538         1016.42         638.782 
       0.343633         994.771         619.285 
       0.349808         961.739         598.989 
       0.355968         954.867         578.054 
       0.362074         945.769          556.99 
       0.368217         915.768         536.151 
       0.374374         882.378         516.253 
       0.380519         883.558         497.937 
       0.386598         858.331         481.501 
       0.392688         855.502         466.638 
        0.39888         830.405         452.861 
       0.405048         820.736         439.995 
       0.411186         809.081         427.642 
       0.417313         791.944         415.459 
       0.423458         778.301         403.212 
       0.429607         768.625          391.01 
       0.435692         752.761          379.12 
       0.441815         745.991          367.52 
       0.447964         730.912         356.445 
       0.454126         724.463         346.039 
       0.460267         706.493         336.337 
       0.466387         697.999         327.295 
        0.47254         694.212         318.712 
       0.478662          686.68          310.52 
       0.484765         666.551         302.573 
       0.490885          662.56         294.772 
       0.497035         648.714         287.071 
       0.503198         644.818         279.492 
       0.509342         638.207         272.135 
       0.515458         634.378         265.074 
       0.521598         618.395         258.287 
       0.527764         607.936         251.778 
       0.533884         605.725         245.616 
           0.54          599.63         239.741 
       0.546137         594.617          234.08 
       0.552299         586.428         228.583 
       0.558452          581.83         223.238 
       0.564573          574.63          218.05 
       0.570708         568.131         212.982 
       0.576825         553.154         208.064 
       0.582926         555.247         203.297 
       0.589034         549.679         198.672 
       0.595184         545.052         194.174 
       0.601379         536.964         189.812 
       0.607522         529.398         185.649 
       0.613639         529.278         181.645 
       0.619772         518.602         177.756 
       0.625918         515.453         173.969 
       0.632068         508.497         170.279 
       0.638161         506.496         166.722 
         0.6443         497.991         163.234 
       0.650464         495.905         159.829 
       0.656582         491.409         156.542 
       0.662703         489.902         153.347 
       0.668861         481.801         150.224 
       0.675024         477.974         147.191 
       0.681124         474.425         144.279 
       0.687237         470.638         141.446 
       0.693381         464.208          138.68 
       0.699536         457.209         135.985 
       0.705665         456.704         133.373 
       0.711789         454.347         130.828 
       0.717957         450.228         128.329 
        0.72409         447.679         125.907 
       0.730186         441.287          123.56 
       0.736317         438.462          121.26 
       0.742472         435.878         119.013 
       0.748622         431.362         116.826 
        0.75476         425.317         114.702 
       0.760888         421.386         112.636 
       0.767043         421.723         110.614 
       0.773185         417.478         108.646 
       0.779291         412.741         106.737 
       0.785407         410.348         104.871 
       0.791564         405.737         103.038 
       0.797719         403.736         101.248 
       0.803834         399.091         99.5123 
       0.809972         398.335         97.8108 
       0.816124         397.164         96.1457 
       0.822261         391.698         94.5242 
       0.828378         389.701         92.9455 
       0.834502         385.157         91.4022 
       0.840667         382.521         89.8845 
       0.846816         380.948         88.4059 
       0.852925         378.286         86.9704 
       0.859047         376.191          85.564 
       0.865192         371.564         84.1843 
       0.871341         368.587         82.8342 
       0.877463         368.372         81.5199 
       0.883569          364.94         80.2375 
       0.889708          362.29         78.9762 
       0.895864         360.913         77.7388 
       0.902008         357.489         76.5306 
       0.908149          353.61         75.3489 
       0.914301         351.439         74.1904 
       0.920448         349.619         73.0573 
       0.926574         344.747         71.9521 
       0.932687         344.589         70.8721 
       0.938823         341.151         69.8106 
       0.944975          341.03         68.7684 
       0.951105          337.33         67.7515 
       0.957225         335.204         66.7569 
       0.963368         331.283         65.7791 
       0.969511         330.321         64.8209 
       0.975621          328.27         63.8871 
       0.981748         326.555         62.9693 
       0.987916         324.786          62.064 
        0.99406         319.747         61.1799 
        1.00019         318.613         60.3149 
        1.00632         317.341         59.4674 
        1.01246         314.533         58.6351 
        1.01859         314.976         57.8202 
        1.02471         310.034         57.0218 
        1.03085          308.88         56.2359 
        1.03698          307.49         55.4665 
        1.04314         304.808         54.7082 
        1.04929         302.106          53.966 
        1.05541         302.962         53.2406 
        1.06154         297.734         52.5268 
        1.06769         297.204         51.8251 
        1.07382         294.885         51.1386 
        1.07993         293.302          50.466 
        1.08607         292.455         49.8029 
        1.09222         289.341          49.151 
        1.09836         287.451         48.5117 
        1.10449         285.274         47.8844 
        1.11063         282.352         47.2677 
        1.11677          282.51          46.662 
         1.1229         280.232          46.068 
        1.12903         278.548         45.4839 
        1.13518         276.083         44.9095 
        1.14131         274.624         44.3453 
        1.14745         273.532         43.7911 
        1.15359         271.519         43.2463 
        1.15973         269.666         42.7106 
        1.16584         267.751         42.1865 
        1.17197         267.867         41.6703 
        1.17811         264.419         41.1613 
        1.18424         262.801         40.6623 
        1.19038           262.1         40.1701 
        1.19652         259.756         39.6863 
        1.20267         259.094         39.2105 
        1.20881         257.138         38.7426 
        1.21495         255.282         38.2832 
        1.22108         253.811         37.8312 
         1.2272         252.378         37.3877 
        1.23334         251.143         36.9502 
        1.23949         248.865         36.5188 
        1.24562         248.123         36.0955 
        1.25174         246.649         35.6795 
        1.25789          244.76         35.2688 
        1.26402          242.64         34.8654 
        1.27014         241.377         34.4693 
        1.27628         240.001         34.0782 
        1.28244         239.819         33.6924 
        1.28858         237.384         33.3131 
        1.29471         236.082         32.9405 
        1.30084          234.35         32.5739 
        1.30697         233.183         32.2124 
        1.31312         230.901         31.8559 
        1.31925         229.855         31.5059 
        1.32537          229.35         31.1615 
        1.33151         227.226         30.8211 
        1.33765         225.531         30.4859 
        1.34378          224.92         30.1564 
        1.34992         223.634         29.8315 
        1.35606         223.186         29.5108 
         1.3622          220.83         29.1953 
        1.36833         219.203         28.8852 
        1.37445         218.344         28.5798 
        1.38059         216.536         28.2779 
        1.38675         215.744         27.9796 
        1.39288         214.607         27.6868 
        1.39901          213.58         27.3984 
        1.40515         211.956         27.1134 
         1.4113         210.858         26.8325 
        1.41742         209.276         26.5568 
        1.42355         208.436         26.2843 
         1.4297         206.574         26.0149 
        1.43585         205.644         25.7494 
        1.44198         204.913         25.4886 
        1.44809         203.462          25.232 
        1.45423         202.524         24.9779 
        1.46036         201.192         24.7278 
        1.46649         199.818          24.481 
        1.47263         198.803         24.2374 
        1.47877         197.346         23.9972 
        1.48491         195.705         23.7599 
        1.49104         195.228         23.5264 
        1.49718          193.59         23.2958 
        1.50333         192.894         23.0679 
        1.50947         191.635         22.8435 
         1.5156         190.162         22.6225 
        1.52172         189.588         22.4044 
        1.52787         187.802         22.1888 
          1.534         187.571         21.9762 
        1.54013         185.988         21.7666 
        1.54627         184.973         21.5595 
        1.55241         183.765         21.3549 
        1.55855         182.532         21.1534 
        1.56467         181.566          20.955 
         1.5708         180.746         20.7585 
        1.57695         179.879         20.5643 
        1.58308         178.716         20.3731 
        1.58922         177.421         20.1841 
        1.59535         176.142         19.9976 
         1.6015         175.455         19.8132 
        1.60764         174.446         19.6312 
        1.61376         173.579          19.452 
        1.61989         172.635         19.2749 
        1.62604           171.4         19.0996 
        1.63218         170.621         18.9266 
        1.63831         169.304         18.7562 
        1.64444         168.615         18.5877 
        1.65059         167.645          18.421 
        1.65673         166.496         18.2564 
        1.66285         165.435         18.0944 
        1.66898         164.625         17.9342 
        1.67512         164.105         17.7757 
        1.68127         162.449          17.619 
         1.6874         161.796         17.4644 
        1.69353          160.77         17.3119 
        1.69967          159.65         17.1608 
        1.70581         159.039         17.0116 
        1.71193         157.971         16.8647 
        1.71806         157.285         16.7192 
        1.72421         156.259         16.5752 
        1.73035         155.654          16.433 
        1.73649         154.732         16.2926 
        1.74262         153.736         16.1538 
        1.74876         152.665         16.0166 
        1.75489         152.037         15.8813 
        1.76101         150.702         15.7476 
        1.76715         150.455         15.6153 
        1.77329         149.377         15.4843 
        1.77943         148.776         15.3547 
        1.78557         147.936         15.2269 
        1.79171         147.114         15.1004 
        1.79785         146.147         14.9754 
        1.80399         145.324         14.8518 
        1.81012         144.488         14.7298 
        1.81625         144.032         14.6092 
        1.82239         142.922         14.4898 
        1.82853         142.302         14.3718 
        1.83466         141.364         14.2552 
        1.84078         140.697           14.14 
        1.84692         139.474         14.0259 
        1.85306         139.291         13.9129 
         1.8592         138.304         13.8013 
        1.86533         137.644         13.6911 
        1.87147         136.516         13.5819 
        1.87761          135.71         13.4738 
        1.88375         134.989         13.3671 
        1.88988          134.06         13.2616 
        1.89601         133.775         13.1572 
        1.90215         132.798         13.0538 
        1.90829         132.058         12.9516 
        1.91442         131.509         12.8505 
        1.92056         130.628         12.7506 
         1.9267         130.007         12.6516 
        1.93284         129.062         12.5536 
        1.93897         128.589         12.4568 
        1.94509         127.993         12.3613 
        1.95123         127.297         12.2665 
        1.95737         126.534         12.1726 
        1.96349         125.898           12.08 
        1.96964         124.913         11.9881 
        1.97578          124.17          11.897 
        1.98192         123.719         11.8072 
        1.98805         123.054         11.7182 
        1.99419         122.325         11.6301 
        2.00033          121.66         11.5429 
        2.00647          121.06         11.4566 
         2.0126         120.075         11.3714 
        2.01874         119.565         11.2869 
        2.02488         119.252         11.2031 
        2.03101         118.076         11.1204 
        2.03714         117.748         11.0386 
        2.04328         116.853         10.9575 
        2.04941         116.426         10.8773 
        2.05554         115.601          10.798 
        2.06167         115.256         10.7193 
        2.06781         114.401         10.6414 
        2.07396         113.949         10.5642 
        2.08009         113.246         10.4879 
        2.08622         112.475         10.4124 
        2.09237          112.06         10.3375 
        2.09851         111.431         10.2634 
        2.10464         111.005           10.19 
        2.11077         110.274         10.1175 
        2.11691         109.805         10.0456 
        2.12305         109.124          9.9743 
        2.12918         108.339          9.9039 
        2.13531         107.806         9.83417 
        2.14145         107.194         9.76495 
         2.1476         106.417         9.69631 
        2.15372         106.265         9.62868 
        2.15985         105.624         9.56162 
        2.16599         104.855         9.49501 
        2.17213         104.432         9.42911 
        2.17827         103.834         9.36384 
         2.1844         103.075         9.29925 
        2.19054           102.8         9.23525 
        2.19666          102.21         9.17194 
         2.2028         101.581         9.10917 
        2.20893         101.207         9.04695 
        2.21508         100.514         8.98525 
        2.22122         100.017          8.9241 
        2.22736         99.4796         8.86364 
        2.23349         99.0239         8.80376 
        2.23962         98.5171          8.7444 
        2.24577         97.9102         8.68554 
         2.2519         97.6098          8.6273 
        2.25802         96.6945         8.56968 
        2.26417         96.4471         8.51244 
        2.27031         95.8208         8.45566 
        2.27644         95.3594         8.39956 
        2.28257         94.7518         8.34398 
        2.28872         94.4355         8.28879 
        2.29486         93.7666         8.23412 
        2.30099         93.2538         8.18005 
        2.30712         92.8015         8.12644 
        2.31326         92.2567         8.07321 
         2.3194         91.8032          8.0205 
        2.32553         91.3804         7.96835 
        2.33166         90.9086         7.91667 
         2.3378         90.4557         7.86539 
        2.34394         89.9701         7.81455 
        2.35007         89.4392         7.76422 
        2.35619          89.083          7.7144 
        2.36233         88.5632          7.6649 
        2.36848         87.9968         7.61573 
        2.37462         87.6932         7.56709 
        2.38075          87.067         7.51893 
        2.38689         86.6468         7.47114 
        2.39303         86.1072         7.42378 
        2.39916          85.829         7.37688 
        2.40529         85.5501         7.33039 
        2.41143         84.8707         7.28426 
        2.41757         84.4839         7.23851 
         2.4237         84.0943         7.19323 
        2.42983         83.5532         7.14835 
        2.43598         83.0615         7.10373 
        2.44211         82.9481         7.05957 
        2.44823         82.3694         7.01588 
        2.45437         81.7351         6.97244 
        2.46052          81.338         6.92933 
        2.46665         81.1202         6.88666 
        2.47279         80.5618         6.84437 
        2.47892         80.1956          6.8024 
        2.48507         79.7893         6.76074 
         2.4912         79.4147         6.71951 
