# k  (h/Mpc)    P(k)  (Mpc/h)^3    P_linear(k)  (Mpc/h)^3
     0.00783031         17631.2         17877.6 
       0.013688         21940.7         21711.9 
       0.019231         21673.8         21626.1 
      0.0249154           19249         19688.3 
      0.0312784         16650.7         16856.5 
      0.0375637           14330         14340.2 
      0.0433917           12334         12586.9 
      0.0492413         11252.9         11364.6 
      0.0555754         10066.5         10441.2 
      0.0619321         9648.87         9672.91 
       0.067871         8634.24         8924.28 
      0.0738098         7844.19         8087.62 
      0.0800417          6883.4          7159.7 
      0.0862327         6159.87         6287.55 
      0.0921407         5604.52         5586.06 
      0.0982031         5032.77         5038.76 
       0.104506         4783.81         4642.82 
       0.110769         4474.67         4371.25 
       0.116806         4236.36         4159.73 
       0.122832         4021.76         3943.56 
       0.129052         3691.68         3684.94 
       0.135211         3448.16         3394.76 
       0.141259         3260.77         3101.07 
       0.147318         3047.82         2828.77 
       0.153489         2790.13         2597.34 
       0.159709         2651.87         2419.25 
       0.165845         2573.52         2290.64 
       0.171974            2449         2191.89 
       0.178125         2336.29         2102.94 
       0.184229         2230.53         2009.43 
        0.19034         2105.09         1903.86 
       0.196428         2048.34         1788.96 
       0.202534         1958.17         1672.18 
       0.208729         1864.55         1561.96 
       0.214876         1790.58         1467.88 
       0.220989         1730.24          1391.7 
       0.227147         1663.93         1330.12 
        0.23329         1601.97         1278.52 
       0.239377         1578.55         1231.19 
       0.245482          1481.2          1182.9 
       0.251667         1471.75         1130.97 
       0.257832         1411.13         1076.87 
       0.263955         1362.65         1023.24 
       0.270079         1315.62         972.552 
        0.27624         1299.59         926.793 
       0.282372          1246.6         887.183 
        0.28843         1240.75          853.32 
       0.294538         1179.32         822.932 
       0.300721         1172.54         794.176 
        0.30691         1127.83         765.869 
       0.313033         1105.05         737.579 
       0.319153         1087.33         709.084 
       0.325316         1051.74         680.784 
        0.33145          1028.4         653.849 
       0.337538         1009.23         629.015 
       0.343633         988.112         606.303 
       0.349808         954.664         585.418 
       0.355968         948.064         566.215 
       0.362074         939.559         548.281 
       0.368217         909.476          530.83 
       0.374374         875.746         513.641 
       0.380519         878.031         496.759 
       0.386598         852.261         480.419 
       0.392688         849.126         464.662 
        0.39888         824.921         449.461 
       0.405048         814.919         435.225 
       0.411186         803.754         421.976 
       0.417313         786.925         409.523 
       0.423458          772.56         397.636 
       0.429607         763.962         386.201 
       0.435692         747.397         375.229 
       0.441815         740.834         364.461 
       0.447964         726.279         353.962 
       0.454126         719.967         343.804 
       0.460267         702.026         334.084 
       0.466387         693.846         324.824 
        0.47254         689.615         315.961 
       0.478662         682.505         307.547 
       0.484765         662.318         299.503 
       0.490885         658.245         291.731 
       0.497035         644.894         284.181 
       0.503198         640.732         276.856 
       0.509342         634.598          269.77 
       0.515458          630.85         262.938 
       0.521598         614.868         256.316 
       0.527764         604.633         249.915 
       0.533884         602.141         243.802 
           0.54          595.95         237.917 
       0.546137         590.954          232.22 
       0.552299         583.025         226.696 
       0.558452         578.732         221.362 
       0.564573          571.91         216.223 
       0.570708         565.012         211.226 
       0.576825         550.399         206.393 
       0.582926         552.521          201.72 
       0.589034         546.973         197.189 
       0.595184         542.164         192.775 
       0.601379         534.239         188.476 
       0.607522         526.923         184.348 
       0.613639         526.452         180.364 
       0.619772          515.97         176.489 
       0.625918         513.102         172.718 
       0.632068         506.092         169.056 
       0.638161         504.081         165.532 
         0.6443         495.954         162.083 
       0.650464         493.854         158.722 
       0.656582         489.325         155.482 
       0.662703         487.979         152.333 
       0.668861         480.161         149.255 
       0.675024         476.242         146.261 
       0.681124         472.763          143.38 
       0.687237         468.992         140.571 
       0.693381         462.717         137.825 
       0.699536         455.888         135.149 
       0.705665         454.896         132.556 
       0.711789         452.815         130.034 
       0.717957         448.796         127.561 
        0.72409         446.636         125.167 
       0.730186         440.126         122.849 
       0.736317         437.169         120.578 
       0.742472         434.821         118.357 
       0.748622         430.164         116.194 
        0.75476         424.256          114.09 
       0.760888         420.582         112.042 
       0.767043          420.89         110.036 
       0.773185         416.765         108.084 
       0.779291         411.888         106.191 
       0.785407         409.626         104.341 
       0.791564         405.026         102.524 
       0.797719         403.203         100.751 
       0.803834         398.515          99.032 
       0.809972         398.012         97.3473 
       0.816124         396.692         95.6984 
       0.822261         391.579         94.0925 
       0.828378         388.984         92.5287 
       0.834502         385.014         90.9994 
       0.840667          382.36         89.4952 
       0.846816         380.729         88.0295 
       0.852925         378.112         86.6062 
       0.859047         376.033         85.2116 
       0.865192         371.525         83.8435 
       0.871341         368.495         82.5047 
       0.877463         368.502         81.2015 
       0.883569         365.052           79.93 
       0.889708         362.371         78.6795 
       0.895864         361.336         77.4527 
       0.902008         358.051         76.2549 
       0.908149          353.81         75.0833 
       0.914301         351.768         73.9347 
       0.920448         350.047         72.8113 
       0.926574         345.067         71.7154 
       0.932687         345.001         70.6445 
       0.938823         341.712         69.5919 
       0.944975         341.736         68.5584 
       0.951105         338.021         67.5497 
       0.957225         335.869         66.5632 
       0.963368         331.884         65.5932 
       0.969511         331.132         64.6427 
       0.975621         329.121         63.7161 
       0.981748         327.419         62.8055 
       0.987916         325.697          61.907 
        0.99406         320.867         61.0296 
        1.00019         319.534         60.1711 
        1.00632         318.353         59.3299 
        1.01246         315.745         58.5037 
        1.01859         316.131         57.6946 
        1.02471         311.324          56.902 
        1.03085         310.095         56.1216 
        1.03698         308.724         55.3576 
        1.04314         306.208         54.6046 
        1.04929         303.459         53.8675 
        1.05541         304.301         53.1471 
        1.06154         299.157         52.4382 
        1.06769         298.621         51.7412 
        1.07382           296.3         51.0592 
        1.07993         294.831         50.3912 
        1.08607         294.119         49.7325 
        1.09222         290.935         49.0849 
        1.09836         289.234         48.4497 
        1.10449         286.873         47.8266 
        1.11063         284.108         47.2139 
        1.11677         284.225         46.6121 
         1.1229         281.909          46.022 
        1.12903         280.452         45.4416 
        1.13518         277.999         44.8708 
        1.14131         276.484         44.3102 
        1.14745         275.816         43.7596 
        1.15359         273.623         43.2183 
        1.15973         271.719         42.6859 
        1.16584         269.849          42.165 
        1.17197         269.938          41.652 
        1.17811         266.462         41.1461 
        1.18424         264.788         40.6501 
        1.19038          264.18         40.1609 
        1.19652         261.933         39.6799 
        1.20267         261.552         39.2068 
        1.20881         259.285         38.7416 
        1.21495         257.549         38.2847 
        1.22108          256.04         37.8353 
         1.2272         254.561         37.3941 
        1.23334         253.697         36.9591 
        1.23949         251.189         36.5299 
        1.24562         250.493         36.1088 
        1.25174         248.997         35.6949 
        1.25789         247.088         35.2864 
        1.26402         245.077          34.885 
        1.27014         243.825         34.4908 
        1.27628         242.333         34.1016 
        1.28244         242.282         33.7177 
        1.28858         239.955         33.3402 
        1.29471         238.701         32.9694 
        1.30084         236.821         32.6046 
        1.30697         235.823         32.2448 
        1.31312         233.608         31.8899 
        1.31925         232.457         31.5415 
        1.32537         232.077         31.1987 
        1.33151         229.829         30.8598 
        1.33765         228.154         30.5262 
        1.34378         227.611         30.1981 
        1.34992         226.387         29.8747 
        1.35606         225.966         29.5554 
         1.3622         223.616         29.2413 
        1.36833         222.068         28.9325 
        1.37445           221.1         28.6284 
        1.38059         219.361         28.3277 
        1.38675         218.611         28.0307 
        1.39288         217.504         27.7391 
        1.39901         216.396         27.4518 
        1.40515         214.882         27.1679 
         1.4113          213.77         26.8882 
        1.41742         212.159         26.6135 
        1.42355          211.22         26.3421 
         1.4297         209.476         26.0737 
        1.43585         208.586         25.8092 
        1.44198         207.944         25.5494 
        1.44809         206.555         25.2937 
        1.45423         205.591         25.0405 
        1.46036         204.275         24.7912 
        1.46649         202.966         24.5453 
        1.47263         201.872         24.3025 
        1.47877         200.472         24.0632 
        1.48491         198.718         23.8267 
        1.49104         198.449         23.5938 
        1.49718         196.671          23.364 
        1.50333          196.12         23.1368 
        1.50947         194.752         22.9131 
         1.5156         193.391         22.6927 
        1.52172         192.674         22.4753 
        1.52787         190.967         22.2602 
          1.534         190.735         22.0482 
        1.54013         189.209         21.8393 
        1.54627         188.104         21.6326 
        1.55241         187.092         21.4287 
        1.55855         185.792         21.2276 
        1.56467         184.746         21.0297 
         1.5708         183.994         20.8337 
        1.57695         183.173           20.64 
        1.58308          181.93         20.4492 
        1.58922         180.832         20.2607 
        1.59535         179.361         20.0746 
         1.6015         178.793         19.8906 
        1.60764         177.748         19.7091 
        1.61376         176.893         19.5302 
        1.61989         175.973         19.3535 
        1.62604         174.673         19.1786 
        1.63218         174.067         19.0059 
        1.63831         172.672         18.8358 
        1.64444         171.932         18.6677 
        1.65059         171.065         18.5013 
        1.65673         169.925         18.3371 
        1.66285         168.754         18.1753 
        1.66898         168.017         18.0155 
        1.67512         167.387         17.8572 
        1.68127         165.939         17.7008 
         1.6874         165.257         17.5465 
        1.69353         164.222         17.3942 
        1.69967         163.053         17.2434 
        1.70581         162.432         17.0944 
        1.71193         161.236         16.9477 
        1.71806         160.711         16.8024 
        1.72421         159.742         16.6586 
        1.73035           159.1         16.5166 
        1.73649         158.144         16.3763 
        1.74262         157.167         16.2378 
        1.74876         156.186         16.1007 
        1.75489         155.471         15.9656 
        1.76101         154.062          15.832 
        1.76715         153.996         15.6998 
        1.77329         152.921         15.5689 
        1.77943          152.25         15.4395 
        1.78557          151.39         15.3117 
        1.79171         150.598         15.1854 
        1.79785         149.538         15.0604 
        1.80399         148.807         14.9369 
        1.81012         147.992          14.815 
        1.81625          147.46         14.6945 
        1.82239         146.416         14.5751 
        1.82853          145.77         14.4571 
        1.83466          144.88         14.3406 
        1.84078          144.16         14.2254 
        1.84692         142.921         14.1114 
        1.85306         142.789         13.9984 
         1.8592         141.757         13.8869 
        1.86533         141.227         13.7766 
        1.87147         140.056         13.6675 
        1.87761         139.128         13.5594 
        1.88375         138.539         13.4527 
        1.88988          137.47         13.3472 
        1.89601         137.274         13.2428 
        1.90215         136.378         13.1394 
        1.90829         135.502         13.0372 
        1.91442          135.01         12.9361 
        1.92056         134.119         12.8362 
         1.9267         133.476         12.7372 
        1.93284         132.506         12.6391 
        1.93897         132.035         12.5423 
        1.94509         131.431         12.4468 
        1.95123         130.839          12.352 
        1.95737         130.035         12.2581 
        1.96349         129.333         12.1654 
        1.96964         128.373         12.0734 
        1.97578         127.648         11.9823 
        1.98192         127.166         11.8924 
        1.98805         126.539         11.8034 
        1.99419         125.763         11.7153 
        2.00033         125.121          11.628 
        2.00647         124.551         11.5416 
         2.0126         123.622         11.4563 
        2.01874         122.994         11.3717 
        2.02488         122.775         11.2879 
        2.03101         121.533         11.2051 
        2.03714         121.233         11.1232 
        2.04328         120.354         11.0421 
        2.04941         119.843         10.9618 
        2.05554         119.066         10.8823 
        2.06167         118.697         10.8036 
        2.06781          117.82         10.7256 
        2.07396         117.378         10.6483 
        2.08009         116.663         10.5719 
        2.08622         115.808         10.4963 
        2.09237         115.508         10.4213 
        2.09851         114.754          10.347 
        2.10464         114.372         10.2736 
        2.11077         113.701          10.201 
        2.11691         113.194         10.1289 
        2.12305          112.57         10.0575 
        2.12918         111.765         9.98699 
        2.13531         111.182         9.91714 
        2.14145         110.573         9.84779 
         2.1476          109.84         9.77903 
        2.15372         109.564         9.71127 
        2.15985         108.932         9.64409 
        2.16599         108.206         9.57735 
        2.17213         107.749         9.51132 
        2.17827         107.131         9.44592 
         2.1844         106.441          9.3812 
        2.19054         106.099         9.31706 
        2.19666         105.534         9.25362 
         2.2028         104.877         9.19071 
        2.20893         104.539         9.12836 
        2.21508         103.851         9.06651 
        2.22122         103.298         9.00522 
        2.22736          102.76         8.94463 
        2.23349         102.349          8.8846 
        2.23962         101.864          8.8251 
        2.24577         101.148         8.76609 
         2.2519         100.861         8.70771 
        2.25802         99.9759         8.64995 
        2.26417         99.7296         8.59255 
        2.27031         99.0537         8.53563 
        2.27644         98.5718         8.47938 
        2.28257         98.0181         8.42365 
        2.28872          97.709         8.36831 
        2.29486         96.9801         8.31348 
        2.30099         96.4828         8.25926 
        2.30712         96.0286         8.20549 
        2.31326         95.4824         8.15211 
         2.3194         95.0075         8.09924 
        2.32553         94.5999         8.04693 
        2.33166         94.0849         7.99511 
         2.3378         93.6452         7.94366 
        2.34394          93.173         7.89266 
        2.35007         92.6935         7.84218 
        2.35619         92.2364          7.7922 
        2.36233         91.7106         7.74254 
        2.36848         91.1732         7.69321 
        2.37462         90.8258         7.64441 
        2.38075         90.2196         7.59609 
        2.38689         89.7843         7.54814 
        2.39303         89.2533         7.50062 
        2.39916          88.923         7.45356 
        2.40529           88.67          7.4069 
        2.41143         87.9302         7.36061 
        2.41757         87.6017          7.3147 
         2.4237         87.1236         7.26926 
        2.42983         86.6563         7.22421 
        2.43598         86.1266         7.17943 
        2.44211          85.987          7.1351 
        2.44823         85.4006         7.09125 
        2.45437         84.7514         7.04764 
        2.46052         84.3617         7.00436 
        2.46665         84.1487         6.96153 
        2.47279         83.5503         6.91906 
        2.47892          83.215         6.87693 
        2.48507         82.8243          6.8351 
         2.4912         82.4628         6.79371 
