# k  (h/Mpc)    P(k)  (Mpc/h)^3    P_linear(k)  (Mpc/h)^3
     0.00783031         15296.8         15517.2 
       0.013688         19018.5         18846.6 
       0.019231         18809.9         18772.8 
      0.0249154         16739.5         17091.1 
      0.0312784         14476.5         14633.1 
      0.0375637         12449.3         12448.9 
      0.0433917         10731.9         10926.9 
      0.0492413         9784.19         9865.92 
      0.0555754         8771.92         9064.34 
      0.0619321         8390.99          8397.4 
       0.067871         7524.56         7747.51 
      0.0738098         6832.77          7021.2 
      0.0800417         5998.76         6215.65 
      0.0862327         5360.23         5458.51 
      0.0921407         4865.75         4849.52 
      0.0982031         4367.21         4374.39 
       0.104506         4144.56         4030.66 
       0.110769         3877.76          3794.9 
       0.116806          3667.5         3611.28 
       0.122832         3485.07         3423.61 
       0.129052         3200.92         3199.09 
       0.135211         2986.82         2947.17 
       0.141259          2816.5         2692.21 
       0.147318         2626.54         2455.81 
       0.153489         2403.12         2254.89 
       0.159709         2282.02         2100.29 
       0.165845         2209.99         1988.64 
       0.171974         2101.66          1902.9 
       0.178125         2006.08         1825.68 
       0.184229         1918.42          1744.5 
        0.19034         1802.04         1652.85 
       0.196428         1753.62          1553.1 
       0.202534         1677.41         1451.72 
       0.208729         1592.75         1356.03 
       0.214876          1523.3         1274.35 
       0.220989         1472.49         1208.21 
       0.227147         1412.64         1154.75 
        0.23329         1359.86         1109.96 
       0.239377         1337.96         1068.87 
       0.245482         1253.05         1026.94 
       0.251667         1244.04         981.866 
       0.257832          1192.7         934.892 
       0.263955          1151.4         888.336 
       0.270079         1110.03         844.331 
        0.27624         1096.75         804.604 
       0.282372         1051.44         770.217 
        0.28843         1041.69         740.818 
       0.294538         989.281         714.436 
       0.300721         984.749         689.472 
        0.30691         944.296         664.897 
       0.313033         925.627         640.337 
       0.319153          907.19         615.599 
       0.325316         877.912          591.03 
        0.33145         856.805         567.646 
       0.337538         842.289         546.086 
       0.343633         821.573         526.368 
       0.349808         793.013         508.237 
       0.355968         788.031         491.565 
       0.362074         779.187         475.996 
       0.368217           755.3         460.846 
       0.374374         724.851         445.923 
       0.380519         725.434         431.266 
       0.386598         705.116         417.081 
       0.392688         702.607         403.402 
        0.39888         681.994         390.205 
       0.405048         671.649         377.845 
       0.411186         662.185         366.343 
       0.417313         648.505         355.532 
       0.423458         636.683         345.212 
       0.429607         628.263         335.285 
       0.435692         613.765         325.759 
       0.441815         608.654         316.411 
       0.447964         596.271         307.296 
       0.454126         588.132         298.478 
       0.460267         575.095         290.039 
       0.466387         568.799             282 
        0.47254         561.643         274.305 
       0.478662         558.252         267.001 
       0.484765         540.379         260.017 
       0.490885         536.606         253.269 
       0.497035         526.127         246.715 
       0.503198         521.431         240.355 
       0.509342         517.052         234.204 
       0.515458          512.98         228.273 
       0.521598         499.991         222.524 
       0.527764         491.437         216.967 
       0.533884         489.373         211.659 
           0.54           483.3          206.55 
       0.546137         480.509         201.604 
       0.552299         472.305         196.808 
       0.558452         469.796         192.178 
       0.564573         463.564         187.716 
       0.570708         457.108         183.378 
       0.576825         445.643         179.182 
       0.582926         446.026         175.125 
       0.589034         442.011         171.192 
       0.595184          438.16          167.36 
       0.601379         431.578         163.627 
       0.607522         425.753         160.044 
       0.613639         424.738         156.585 
       0.619772         415.291         153.221 
       0.625918          413.86         149.948 
       0.632068         407.568         146.768 
       0.638161         406.053         143.708 
         0.6443          399.21         140.715 
       0.650464         396.571         137.797 
       0.656582         393.761         134.984 
       0.662703         392.475          132.25 
       0.668861         385.775         129.578 
       0.675024         382.489         126.978 
       0.681124         379.595         124.477 
       0.687237         376.086         122.038 
       0.693381         370.963         119.655 
       0.699536         366.544         117.331 
       0.705665         364.481          115.08 
       0.711789         362.693          112.89 
       0.717957         359.631         110.744 
        0.72409         357.138         108.665 
       0.730186         352.564         106.653 
       0.736317         349.463         104.681 
       0.742472         347.828         102.753 
       0.748622           344.1         100.875 
        0.75476         340.069         99.0487 
       0.760888         336.724         97.2706 
       0.767043         337.244         95.5294 
       0.773185         333.249         93.8348 
       0.779291         328.544         92.1912 
       0.785407         327.554          90.585 
       0.791564         323.502         89.0073 
       0.797719         321.279         87.4683 
       0.803834         318.338         85.9759 
       0.809972         317.619         84.5132 
       0.816124         316.803         83.0817 
       0.822261         312.636         81.6875 
       0.828378         310.242         80.3299 
       0.834502         307.866         79.0023 
       0.840667         305.178         77.6963 
       0.846816         303.611         76.4239 
       0.852925         301.667         75.1882 
       0.859047         299.607         73.9775 
       0.865192         296.121         72.7897 
       0.871341          293.89         71.6275 
       0.877463         293.029         70.4961 
       0.883569         291.287         69.3922 
       0.889708         288.363         68.3065 
       0.895864         286.356         67.2415 
       0.902008         284.435         66.2016 
       0.908149         282.351         65.1845 
       0.914301         279.354         64.1873 
       0.920448         277.858          63.212 
       0.926574         274.795         62.2606 
       0.932687         275.115         61.3309 
       0.938823         272.029          60.417 
       0.944975         271.334         59.5198 
       0.951105         269.144         58.6441 
       0.957225         267.244         57.7877 
       0.963368         263.902         56.9456 
       0.969511         263.032         56.1203 
       0.975621         260.811         55.3159 
       0.981748         260.508         54.5253 
       0.987916         258.581         53.7453 
        0.99406         255.016         52.9836 
        1.00019         254.637         52.2382 
        1.00632         253.174          51.508 
        1.01246         251.066         50.7907 
        1.01859         251.443         50.0883 
        1.02471         247.476         49.4002 
        1.03085         245.913         48.7226 
        1.03698         244.975         48.0594 
        1.04314         242.616         47.4057 
        1.04929         241.109         46.7658 
        1.05541         241.575         46.1403 
        1.06154         237.812         45.5248 
        1.06769         237.455         44.9197 
        1.07382          235.69         44.3277 
        1.07993         234.046         43.7477 
        1.08607         233.503         43.1758 
        1.09222         231.596         42.6137 
        1.09836         229.969         42.0622 
        1.10449         227.651         41.5213 
        1.11063         225.866         40.9893 
        1.11677         225.501         40.4669 
         1.1229         223.748         39.9545 
        1.12903         222.705         39.4507 
        1.13518           221.2         38.9552 
        1.14131         219.439         38.4685 
        1.14745         219.439         37.9904 
        1.15359         217.402         37.5205 
        1.15973         215.769         37.0583 
        1.16584         214.362          36.606 
        1.17197         214.259         36.1607 
        1.17811          211.76         35.7215 
        1.18424         210.674         35.2909 
        1.19038         210.073         34.8661 
        1.19652         208.315         34.4486 
        1.20267         208.034         34.0379 
        1.20881         206.052          33.634 
        1.21495         204.929         33.2373 
        1.22108         203.646         32.8472 
         1.2272         202.224         32.4642 
        1.23334         201.632         32.0865 
        1.23949         199.993         31.7139 
        1.24562         199.213         31.3483 
        1.25174          197.74          30.989 
        1.25789         196.404         30.6343 
        1.26402          194.84         30.2858 
        1.27014         193.669         29.9436 
        1.27628         192.886         29.6057 
        1.28244         192.791         29.2724 
        1.28858         190.638         28.9447 
        1.29471         189.312         28.6228 
        1.30084         188.653         28.3061 
        1.30697         187.127         27.9937 
        1.31312         185.821         27.6856 
        1.31925         185.134         27.3832 
        1.32537         184.474         27.0856 
        1.33151         182.615         26.7913 
        1.33765         181.566         26.5017 
        1.34378         180.959         26.2169 
        1.34992         180.103         25.9361 
        1.35606         180.021         25.6588 
         1.3622         178.152         25.3862 
        1.36833         176.481         25.1181 
        1.37445         175.896         24.8541 
        1.38059         174.554          24.593 
        1.38675         174.004         24.3352 
        1.39288         173.027          24.082 
        1.39901         172.677         23.8326 
        1.40515         170.809         23.5861 
         1.4113         169.996         23.3433 
        1.41742         168.802         23.1048 
        1.42355         168.038         22.8692 
         1.4297         166.909         22.6362 
        1.43585         166.124         22.4066 
        1.44198         165.274          22.181 
        1.44809          164.57          21.959 
        1.45423         163.696         21.7392 
        1.46036         162.545         21.5228 
        1.46649         161.403         21.3093 
        1.47263         160.462         21.0986 
        1.47877         159.665         20.8907 
        1.48491         158.152         20.6854 
        1.49104         158.171         20.4833 
        1.49718         156.564         20.2837 
        1.50333         155.954         20.0865 
        1.50947          155.24         19.8923 
         1.5156           154.2          19.701 
        1.52172         153.424         19.5122 
        1.52787         152.151         19.3255 
          1.534         151.788         19.1415 
        1.54013         150.803           18.96 
        1.54627         149.966         18.7806 
        1.55241         149.003         18.6035 
        1.55855         148.209          18.429 
        1.56467         147.192         18.2572 
         1.5708          146.44         18.0871 
        1.57695         145.917         17.9189 
        1.58308         145.139         17.7532 
        1.58922         144.424         17.5896 
        1.59535         143.236          17.428 
         1.6015         142.861         17.2683 
        1.60764         141.982         17.1107 
        1.61376         141.077         16.9554 
        1.61989         140.289          16.802 
        1.62604         139.289         16.6501 
        1.63218         138.984         16.5002 
        1.63831         137.931         16.3526 
        1.64444         137.364         16.2066 
        1.65059         136.675         16.0621 
        1.65673         135.496         15.9196 
        1.66285         135.159         15.7791 
        1.66898         134.196         15.6404 
        1.67512         133.898          15.503 
        1.68127          132.74         15.3671 
         1.6874         131.797         15.2332 
        1.69353          131.53          15.101 
        1.69967          130.68           14.97 
        1.70581         129.935         14.8407 
        1.71193         129.166         14.7134 
        1.71806         128.666         14.5872 
        1.72421         127.867         14.4624 
        1.73035         127.704         14.3391 
        1.73649         126.769         14.2173 
        1.74262         125.838          14.097 
        1.74876         125.428          13.978 
        1.75489         124.468         13.8607 
        1.76101         123.688         13.7447 
        1.76715         123.296         13.6299 
        1.77329         122.941         13.5163 
        1.77943          121.85          13.404 
        1.78557         121.461          13.293 
        1.79171         120.591         13.1834 
        1.79785         119.925         13.0749 
        1.80399          119.23         12.9677 
        1.81012         118.715         12.8618 
        1.81625         118.146         12.7572 
        1.82239         117.682         12.6535 
        1.82853         116.827         12.5511 
        1.83466         116.136         12.4499 
        1.84078         115.715           12.35 
        1.84692         114.749          12.251 
        1.85306         114.544         12.1529 
         1.8592         113.752         12.0561 
        1.86533          112.94         11.9604 
        1.87147         112.458         11.8656 
        1.87761         111.773         11.7718 
        1.88375         111.023         11.6791 
        1.88988         110.645         11.5875 
        1.89601         109.983         11.4969 
        1.90215         109.441         11.4072 
        1.90829         108.886         11.3184 
        1.91442         108.352         11.2306 
        1.92056         107.605         11.1439 
         1.9267          107.36         11.0579 
        1.93284         106.704         10.9728 
        1.93897         106.044         10.8888 
        1.94509         105.592         10.8058 
        1.95123          105.02         10.7235 
        1.95737         104.515          10.642 
        1.96349         103.914         10.5615 
        1.96964         103.037         10.4817 
        1.97578          102.57         10.4026 
        1.98192         102.396         10.3245 
        1.98805         101.532         10.2472 
        1.99419         101.256         10.1707 
        2.00033         100.546          10.095 
        2.00647         100.222           10.02 
         2.0126         99.5219         9.94595 
        2.01874         98.9229         9.87251 
        2.02488         98.5752         9.79975 
        2.03101         97.8244         9.72787 
        2.03714         97.2801         9.65677 
        2.04328         96.9617          9.5863 
        2.04941         96.3826          9.5166 
        2.05554         95.8305         9.44764 
        2.06167         95.4733         9.37927 
        2.06781         94.7803         9.31157 
        2.07396         94.4004         9.24444 
        2.08009         94.0511         9.17809 
        2.08622         93.4087         9.11248 
        2.09237         92.9327         9.04737 
        2.09851         92.4818         8.98289 
        2.10464         92.0494         8.91915 
        2.11077         91.6466          8.8561 
        2.11691         91.2446         8.79353 
        2.12305         90.4845         8.73156 
        2.12918         89.9811         8.67033 
        2.13531         89.7166         8.60969 
        2.14145         88.9297         8.54949 
         2.1476         88.5067         8.48979 
        2.15372          88.257         8.43096 
        2.15985         87.8176         8.37264 
        2.16599         87.2319          8.3147 
        2.17213          86.804         8.25737 
        2.17827         86.4117         8.20059 
         2.1844         85.8679          8.1444 
        2.19054         85.6427         8.08872 
        2.19666         85.1328         8.03364 
         2.2028         84.7257         7.97903 
        2.20893         84.2474          7.9249 
        2.21508         83.8043         7.87121 
        2.22122         83.3585         7.81799 
        2.22736         82.9804         7.76539 
        2.23349         82.5765         7.71328 
        2.23962         82.1795         7.66162 
        2.24577          81.794         7.61039 
         2.2519         81.4088         7.55971 
        2.25802         80.8459         7.50956 
        2.26417          80.461         7.45973 
        2.27031         80.1271         7.41031 
        2.27644          79.607         7.36148 
        2.28257          79.165         7.31309 
        2.28872         78.9257         7.26505 
        2.29486         78.3106         7.21745 
        2.30099         77.9151         7.17038 
        2.30712         77.6996          7.1237 
        2.31326          77.272         7.07736 
         2.3194          76.838         7.03146 
        2.32553         76.4849         6.98604 
        2.33166         76.1275         6.94105 
         2.3378         75.5694         6.89639 
        2.34394         75.2219         6.85211 
        2.35007         74.9018         6.80828 
        2.35619          74.554          6.7649 
        2.36233         74.1333         6.72178 
        2.36848         73.7501         6.67896 
        2.37462         73.2623         6.63659 
        2.38075         73.1094         6.59464 
        2.38689          72.629         6.55301 
        2.39303         72.2004         6.51176 
        2.39916         71.8909          6.4709 
        2.40529         71.6967         6.43039 
        2.41143         71.1453         6.39021 
        2.41757         70.9162         6.35035 
         2.4237         70.5838          6.3109 
        2.42983         70.1381         6.27179 
        2.43598         69.8039         6.23291 
        2.44211         69.5549         6.19443 
        2.44823         69.1502         6.15635 
        2.45437          68.635          6.1185 
        2.46052         68.4013         6.08093 
        2.46665         68.1523         6.04374 
        2.47279         67.7215         6.00687 
        2.47892         67.4355         5.97029 
        2.48507         67.0093         5.93398 
         2.4912         66.7371         5.89804 
