#  k  (h/Mpc)          P(k)  (Mpc/h)^3     P_linear(k) (Mpc/h)^3
     0.00783031         1176.61          1186.9 
       0.013688         1591.86         1592.52 
       0.019231          1736.7         1737.22 
      0.0249154         1719.92         1731.86 
      0.0312784         1621.38         1625.93 
      0.0375637         1485.78          1484.9 
      0.0433917         1352.58         1358.98 
      0.0492413         1251.36          1252.9 
      0.0555754         1153.94         1162.84 
      0.0619321         1093.62         1090.82 
       0.067871         1023.66         1030.39 
      0.0738098         961.458         968.944 
      0.0800417         888.898         899.576 
      0.0862327         819.975         826.739 
      0.0921407          753.58         757.703 
      0.0982031         686.659         692.346 
       0.104506         635.035         634.346 
       0.110769         588.645         588.318 
       0.116806         550.483         553.862 
       0.122832         525.993         526.433 
       0.129052         497.903         501.861 
       0.135211         473.777         478.056 
       0.141259         451.745         453.284 
       0.147318         427.308         426.714 
       0.153489         397.603         398.797 
       0.159709         371.829         371.506 
       0.165845         351.509         347.074 
       0.171974          327.89         326.196 
       0.178125         311.367         308.999 
       0.184229         298.799         295.109 
        0.19034          283.34          283.35 
       0.196428         275.372         272.614 
       0.202534         266.895         261.864 
       0.208729         254.172         250.427 
       0.214876         240.624          238.51 
       0.220989         232.282         226.462 
       0.227147         217.668         214.695 
        0.23329         207.627         203.867 
       0.239377         199.698         194.375 
       0.245482         189.436         186.163 
       0.251667         184.878         179.001 
       0.257832         178.433          172.68 
       0.263955         172.439         166.823 
       0.270079         166.946         161.057 
        0.27624          162.83         155.171 
       0.282372         156.531         149.194 
        0.28843         150.081         143.278 
       0.294538         144.415         137.475 
       0.300721         140.607         131.941 
        0.30691         134.429         126.868 
       0.313033         130.301         122.341 
       0.319153         124.541         118.264 
       0.325316         122.655           114.5 
        0.33145         118.603         110.974 
       0.337538          115.84          107.58 
       0.343633         112.178         104.218 
       0.349808         109.067         100.829 
       0.355968         105.943         97.4857 
       0.362074           102.7         94.2602 
       0.368217         99.9065         91.1547 
       0.374374         96.7974          88.227 
       0.380519         94.3943         85.5031 
       0.386598         91.9683         82.9954 
       0.392688         90.1186         80.6416 
        0.39888         87.6755         78.3676 
       0.405048         85.7973          76.187 
       0.411186         84.0025         74.0719 
       0.417313         81.2383              72 
       0.423458         79.4353         69.9669 
       0.429607          77.313         67.9867 
       0.435692         75.0179          66.095 
       0.441815         73.9051         64.2746 
       0.447964         72.7617         62.5357 
       0.454126         70.0577         60.8804 
       0.460267         68.8003         59.3117 
       0.466387         66.9774         57.8165 
        0.47254         66.0955         56.3666 
       0.478662         64.9301         54.9677 
       0.484765         63.2706         53.6113 
       0.490885         61.8535         52.2859 
       0.497035         61.0867         50.9894 
       0.503198         59.6059         49.7312 
       0.509342          58.148          48.521 
       0.515458         57.0672         47.3614 
       0.521598         56.2054         46.2416 
       0.527764         55.0891         45.1607 
       0.533884         54.1539         44.1278 
           0.54         53.1955         43.1304 
       0.546137         52.3529         42.1596 
       0.552299         51.5854         41.2122 
       0.558452         50.0261         40.2931 
       0.564573         49.4128         39.4043 
       0.570708         48.7138         38.5387 
       0.576825         47.5163         37.7011 
       0.582926         46.7794         36.8916 
       0.589034         45.5586          36.107 
       0.595184         45.0204         35.3428 
       0.601379         44.3353         34.5975 
       0.607522          43.559         33.8807 
       0.613639         43.2229         33.1874 
       0.619772         42.1315         32.5114 
       0.625918         41.9603         31.8525 
       0.632068         41.2648         31.2113 
       0.638161         40.4761         30.5932 
         0.6443         39.7157         29.9872 
       0.650464         39.0736         29.3954 
       0.656582         38.8431         28.8242 
       0.662703          38.151         28.2686 
       0.668861         37.5297         27.7251 
       0.675024         36.9186         27.1963 
       0.681124         36.3198         26.6871 
       0.687237         35.7785         26.1902 
       0.693381         35.4756         25.7037 
       0.699536         34.6134         25.2285 
       0.705665         34.4831         24.7673 
       0.711789         33.8443         24.3179 
       0.717957         33.4304         23.8767 
        0.72409         32.9382          23.449 
       0.730186         32.5389         23.0347 
       0.736317         32.2373         22.6284 
       0.742472         31.7087         22.2307 
       0.748622         31.3785         21.8431 
        0.75476         30.8216         21.4658 
       0.760888         30.5133         21.0981 
       0.767043         30.1715         20.7376 
       0.773185          29.633         20.3863 
       0.779291         29.4759         20.0452 
       0.785407         29.0889         19.7115 
       0.791564         28.5974         19.3833 
       0.797719         28.1471         19.0629 
       0.803834         28.0453         18.7518 
       0.809972         27.8199         18.4467 
       0.816124         27.1821         18.1478 
       0.822261         27.0381         17.8564 
       0.828378         26.7108         17.5724 
       0.834502         26.4416         17.2945 
       0.840667          26.133         17.0208 
       0.846816         25.7276          16.754 
       0.852925         25.5138         16.4945 
       0.859047         25.2333         16.2401 
       0.865192         25.0419         15.9903 
       0.871341          24.844         15.7456 
       0.877463         24.4434         15.5072 
       0.883569         24.1255         15.2744 
       0.889708         23.8101         15.0453 
       0.895864         23.7056         14.8203 
       0.902008         23.4963         14.6004 
       0.908149         23.2569         14.3852 
       0.914301         23.0602          14.174 
       0.920448         22.6433         13.9674 
       0.926574         22.4834         13.7656 
       0.932687         22.2974         13.5682 
       0.938823         22.0135         13.3741 
       0.944975         21.7668         13.1834 
       0.951105         21.6319         12.9971 
       0.957225         21.4398         12.8148 
       0.963368         21.2228         12.6354 
       0.969511         21.0644         12.4594 
       0.975621         20.8714         12.2878 
       0.981748         20.6442          12.119 
       0.987916         20.4976         11.9524 
        0.99406         20.2345         11.7896 
        1.00019         19.9509         11.6301 
        1.00632         19.9723         11.4738 
        1.01246         19.7442         11.3201 
        1.01859         19.4784         11.1695 
        1.02471         19.3851         11.0219 
        1.03085         19.2246         10.8765 
        1.03698         18.9521          10.734 
        1.04314         18.8551         10.5935 
        1.04929          18.614         10.4559 
        1.05541         18.4562         10.3212 
        1.06154         18.3101         10.1887 
        1.06769         18.2463         10.0583 
        1.07382         17.9942         9.93063 
        1.07993         17.8968         9.80549 
        1.08607         17.7352         9.68202 
        1.09222         17.5935         9.56056 
        1.09836         17.4114         9.44135 
        1.10449         17.3036         9.32433 
        1.11063         17.1751         9.20919 
        1.11677          17.066         9.09605 
         1.1229          16.951         8.98502 
        1.12903         16.7882         8.87577 
        1.13518         16.5989         8.76826 
        1.14131         16.4845         8.66261 
        1.14745         16.3533         8.55878 
        1.15359         16.2548         8.45665 
        1.15973         16.1459         8.35615 
        1.16584         15.9279         8.25776 
        1.17197         15.8511         8.16082 
        1.17811         15.7669         8.06516 
        1.18424         15.6529         7.97133 
        1.19038         15.5695         7.87873 
        1.19652         15.4216         7.78764 
        1.20267         15.2526         7.69801 
        1.20881         15.2487         7.60983 
        1.21495         15.1185         7.52317 
        1.22108         14.9539          7.4379 
         1.2272         14.8789         7.35415 
        1.23334         14.7131         7.27152 
        1.23949         14.6281         7.18996 
        1.24562         14.5825          7.1099 
        1.25174         14.4479         7.03119 
        1.25789         14.3669         6.95343 
        1.26402         14.2865           6.877 
        1.27014         14.1751         6.80192 
        1.27628         14.0376         6.72773 
        1.28244         13.9288         6.65452 
        1.28858         13.9058         6.58251 
        1.29471          13.772         6.51173 
        1.30084         13.6487         6.44206 
        1.30697         13.6539         6.37332 
        1.31312         13.4384         6.30549 
        1.31925          13.392         6.23887 
        1.32537         13.3147         6.17328 
        1.33151         13.2504         6.10841 
        1.33765          13.124         6.04452 
        1.34378         13.0298         5.98167 
        1.34992         12.9528         5.91969 
        1.35606         12.8854         5.85845 
         1.3622         12.8205          5.7982 
        1.36833         12.7374         5.73894 
        1.37445         12.6659         5.68055 
        1.38059          12.614          5.6228 
        1.38675         12.5012         5.56572 
        1.39288         12.4244         5.50967 
        1.39901         12.3055         5.45442 
        1.40515          12.277         5.39981 
         1.4113         12.2186         5.34597 
        1.41742         12.1342         5.29308 
        1.42355         12.0386         5.24082 
         1.4297         11.9452          5.1891 
        1.43585         11.9197         5.13811 
        1.44198         11.8845           5.088 
        1.44809         11.7631         5.03866 
        1.45423         11.6901          4.9898 
        1.46036         11.6366         4.94168 
        1.46649         11.5499         4.89418 
        1.47263         11.4726         4.84727 
        1.47877         11.4168           4.801 
        1.48491         11.3488         4.75526 
        1.49104          11.302         4.71022 
        1.49718          11.241         4.66574 
        1.50333         11.1688         4.62176 
        1.50947         11.1049         4.57844 
         1.5156         11.0471         4.53575 
        1.52172         10.9873          4.4936 
        1.52787         10.9197         4.45191 
          1.534         10.8556         4.41081 
        1.54013         10.8192         4.37026 
        1.54627          10.726         4.33016 
        1.55241         10.6861         4.29056 
        1.55855         10.6383         4.25151 
        1.56467         10.5607         4.21306 
         1.5708         10.5285         4.17498 
        1.57695         10.4371         4.13731 
        1.58308         10.3914          4.1002 
        1.58922         10.3577         4.06352 
        1.59535         10.3091         4.02731 
         1.6015         10.2381         3.99149 
        1.60764         10.1807         3.95613 
        1.61376         10.1383         3.92129 
        1.61989         10.0898         3.88685 
        1.62604         10.0227         3.85275 
        1.63218         9.99749         3.81908 
        1.63831         9.95165          3.7859 
        1.64444          9.9043         3.75309 
        1.65059         9.80276         3.72061 
        1.65673         9.77689         3.68854 
        1.66285         9.70007         3.65695 
        1.66898         9.68041         3.62571 
        1.67512         9.63258         3.59478 
        1.68127         9.58621         3.56419 
         1.6874         9.54096         3.53403 
        1.69353         9.48832         3.50423 
        1.69967         9.43824         3.47471 
        1.70581         9.38092         3.44554 
        1.71193         9.35702         3.41682 
        1.71806         9.32386         3.38837 
        1.72421         9.24936         3.36018 
        1.73035         9.22709         3.33235 
        1.73649         9.18529         3.30485 
        1.74262         9.11052         3.27768 
        1.74876         9.10325          3.2508 
        1.75489         9.07331         3.22427 
        1.76101         8.99795         3.19806 
        1.76715         8.96299          3.1721 
        1.77329         8.92773          3.1464 
        1.77943          8.8585         3.12097 
        1.78557         8.85362         3.09586 
        1.79171         8.78338         3.07103 
        1.79785         8.75577         3.04647 
        1.80399         8.70479         3.02218 
        1.81012         8.68087         2.99819 
        1.81625         8.62096         2.97447 
        1.82239         8.59675         2.95098 
        1.82853         8.56315         2.92775 
        1.83466         8.53013         2.90479 
        1.84078         8.48159         2.88211 
        1.84692          8.4643         2.85964 
        1.85306         8.40118         2.83737 
         1.8592         8.35889         2.81539 
        1.86533         8.33731         2.79364 
        1.87147         8.29989         2.77211 
        1.87761         8.25652         2.75079 
        1.88375         8.22427         2.72972 
        1.88988         8.17926          2.7089 
        1.89601         8.16535         2.68828 
        1.90215         8.13141         2.66787 
        1.90829         8.08765         2.64768 
        1.91442         8.05666         2.62769 
        1.92056         8.00651         2.60793 
         1.9267         7.98386         2.58836 
        1.93284         7.94817         2.56897 
        1.93897         7.91393         2.54982 
        1.94509         7.85763         2.53091 
        1.95123         7.83369         2.51214 
        1.95737         7.79676         2.49356 
        1.96349         7.77156          2.4752 
        1.96964         7.75252         2.45698 
        1.97578         7.70803         2.43894 
        1.98192         7.68205         2.42112 
        1.98805          7.6548         2.40347 
        1.99419         7.62736           2.386 
        2.00033         7.60019         2.36869 
        2.00647         7.56282         2.35156 
         2.0126         7.53756         2.33463 
        2.01874         7.48499         2.31785 
        2.02488         7.47032         2.30121 
        2.03101         7.42762         2.28477 
        2.03714         7.39986          2.2685 
        2.04328         7.36802         2.25238 
        2.04941         7.32788         2.23643 
        2.05554         7.30683         2.22064 
        2.06167         7.28699         2.20499 
        2.06781          7.2587         2.18948 
        2.07396         7.24075         2.17411 
        2.08009         7.20209          2.1589 
        2.08622         7.15991         2.14386 
        2.09237         7.16511         2.12894 
        2.09851         7.11407         2.11416 
        2.10464         7.08484         2.09954 
        2.11077         7.05252         2.08508 
        2.11691         7.04061         2.07072 
        2.12305         7.01133          2.0565 
        2.12918         6.99778         2.04244 
        2.13531         6.95347         2.02852 
        2.14145         6.93278          2.0147 
         2.1476         6.89755         2.00098 
        2.15372            6.88         1.98747 
        2.15985         6.85419         1.97407 
        2.16599          6.8227         1.96075 
        2.17213         6.80288         1.94757 
        2.17827          6.7786         1.93452 
         2.1844         6.74978          1.9216 
        2.19054         6.73644         1.90879 
        2.19666         6.69975         1.89612 
         2.2028         6.67264         1.88355 
        2.20893         6.65838         1.87109 
        2.21508         6.62007         1.85873 
        2.22122         6.59934         1.84648 
        2.22736         6.57412         1.83436 
        2.23349         6.56908         1.82236 
        2.23962         6.52672         1.81046 
        2.24577         6.50052         1.79865 
         2.2519         6.49797         1.78697 
        2.25802         6.45524         1.77541 
        2.26417         6.43135         1.76392 
        2.27031         6.40872         1.75252 
        2.27644         6.39223         1.74125 
        2.28257         6.36485         1.73009 
        2.28872         6.34977           1.719 
        2.29486         6.32243         1.70802 
        2.30099          6.3016         1.69715 
        2.30712         6.27665         1.68637 
        2.31326         6.24798         1.67567 
         2.3194         6.23802         1.66506 
        2.32553         6.19845         1.65457 
        2.33166         6.19058         1.64417 
         2.3378         6.17053         1.63385 
        2.34394         6.15035         1.62362 
        2.35007         6.12288         1.61348 
        2.35619         6.11247         1.60345 
        2.36233         6.09567         1.59347 
        2.36848         6.05843         1.58357 
        2.37462         6.04468         1.57376 
        2.38075         6.03147         1.56406 
        2.38689         5.99213         1.55442 
        2.39303         5.98631         1.54487 
        2.39916         5.96203         1.53541 
        2.40529          5.9416         1.52603 
        2.41143         5.92846         1.51672 
        2.41757          5.9051         1.50748 
         2.4237         5.88666         1.49834 
        2.42983         5.83989         1.48927 
        2.43598         5.85108         1.48026 
        2.44211         5.81807         1.47134 
        2.44823         5.80413         1.46251 
        2.45437         5.77642         1.45373 
        2.46052           5.761         1.44501 
        2.46665         5.74794         1.43638 
        2.47279         5.73041         1.42783 
        2.47892         5.71125         1.41934 
        2.48507         5.69682         1.41091 
         2.4912         5.66231         1.40256 
