# k  (h/Mpc)    Pcb(k)  (Mpc/h)^3    Pcb_linear(k)  (Mpc/h)^3
     0.00783031         12609.5         12649.7 
       0.013688         16644.3         17093.3 
       0.019231         18396.6         18719.3 
      0.0249154         18610.6         18703.7 
      0.0312784         17232.9         17583.8 
      0.0375637         15582.8         16073.6 
      0.0433917         14415.4         14725.6 
      0.0492413         13140.6         13595.3 
      0.0555754         12257.9           12642 
      0.0619321         11125.2         11882.2 
       0.067871         10656.1         11240.8 
      0.0738098         10092.6         10580.7 
      0.0800417          9360.2         9827.21 
      0.0862327         8560.61         9031.35 
      0.0921407         7864.42          8276.3 
      0.0982031         7282.62          7563.4 
       0.104506         6598.44         6934.34 
       0.110769          6147.8         6438.99 
       0.116806         5910.93            6071 
       0.122832         5564.88         5778.98 
       0.129052         5293.92         5515.82 
       0.135211         5149.98         5257.51 
       0.141259         4811.76         4985.48 
       0.147318         4487.67         4691.91 
       0.153489         4272.72         4383.29 
       0.159709         4128.92          4082.7 
       0.165845         3787.16         3815.37 
       0.171974         3694.62         3588.79 
       0.178125         3596.81         3403.68 
       0.184229         3326.22         3254.96 
        0.19034         3290.32         3128.81 
       0.196428         3211.76         3012.46 
       0.202534         3044.82         2894.42 
       0.208729         2982.18         2767.61 
       0.214876         2872.84         2634.98 
       0.220989         2748.57         2501.08 
       0.227147         2682.33         2370.98 
        0.23329         2585.11         2252.12 
       0.239377         2575.12         2148.77 
       0.245482         2469.81         2059.92 
       0.251667         2381.76         1982.65 
       0.257832         2349.17         1914.25 
       0.263955         2259.48         1850.29 
       0.270079         2219.58         1786.71 
        0.27624         2127.85         1721.28 
       0.282372         2113.77         1654.64 
        0.28843         2072.87         1588.79 
       0.294538         1992.25         1524.43 
       0.300721         1964.14         1463.46 
        0.30691         1916.06         1407.88 
       0.313033         1855.78         1358.55 
       0.319153         1841.88         1314.15 
       0.325316         1820.26         1273.11 
        0.33145         1788.24         1234.41 
       0.337538         1738.99         1196.93 
       0.343633         1703.63         1159.58 
       0.349808         1680.47         1121.85 
       0.355968         1644.28         1084.61 
       0.362074         1609.24         1048.79 
       0.368217         1603.95         1014.44 
       0.374374         1578.44         982.177 
       0.380519         1533.26         952.282 
       0.386598         1533.26         924.767 
       0.392688         1494.35         898.923 
        0.39888          1471.4         873.885 
       0.405048          1445.8         849.755 
       0.411186         1434.72         826.284 
       0.417313          1438.7         803.237 
       0.423458         1395.82         780.599 
       0.429607         1361.12         758.592 
       0.435692            1354          737.61 
       0.441815         1330.04         717.453 
       0.447964          1321.5         698.254 
       0.454126         1303.17         679.993 
       0.460267         1290.39         662.669 
       0.466387         1272.47         646.138 
        0.47254          1247.5         630.084 
       0.478662         1238.59          614.55 
       0.484765         1229.09         599.458 
       0.490885         1213.92         584.714 
       0.497035         1195.74         570.295 
       0.503198         1195.29         556.304 
       0.509342         1173.58         542.862 
       0.515458         1151.59         530.005 
       0.521598         1154.37           517.6 
       0.527764         1126.24         505.615 
       0.533884         1116.56         494.152 
           0.54          1108.5         483.078 
       0.546137         1098.31         472.295 
       0.552299         1087.84         461.756 
       0.558452         1081.35         451.517 
       0.564573         1073.81         441.616 
       0.570708         1062.43         431.981 
       0.576825         1042.89         422.666 
       0.582926         1040.31         413.664 
       0.589034         1031.15         404.937 
       0.595184         1018.33         396.433 
       0.601379         1002.27         388.143 
       0.607522         993.273         380.171 
       0.613639         991.059         372.456 
       0.619772          979.04         364.929 
       0.625918         972.501         357.584 
       0.632068         962.775         350.431 
       0.638161         949.387         343.537 
         0.6443         942.579         336.782 
       0.650464         937.527          330.19 
       0.656582         931.242         323.827 
       0.662703         916.481         317.636 
       0.668861         909.081         311.578 
       0.675024         903.333         305.679 
       0.681124         890.364         299.997 
       0.687237         891.421         294.451 
       0.693381         874.481         289.022 
       0.699536         875.893         283.721 
       0.705665         865.895         278.575 
       0.711789         861.634         273.561 
       0.717957         852.878         268.636 
        0.72409         845.506          263.86 
       0.730186         840.441         259.232 
       0.736317         832.699         254.693 
       0.742472         821.387         250.249 
       0.748622         818.032         245.918 
        0.75476          810.21         241.702 
       0.760888         804.892         237.593 
       0.767043          802.25         233.565 
       0.773185         797.755         229.639 
       0.779291         787.481         225.827 
       0.785407         781.626         222.096 
       0.791564         775.157         218.427 
       0.797719         764.968         214.843 
       0.803834         764.305         211.364 
       0.809972         756.482          207.95 
       0.816124         752.198         204.605 
       0.822261         747.167         201.344 
       0.828378         743.598         198.166 
       0.834502         732.054         195.055 
       0.840667         730.565         191.991 
       0.846816         725.858         189.003 
       0.852925         720.427         186.099 
       0.859047         714.684          183.25 
       0.865192         709.912         180.452 
       0.871341         703.443         177.712 
       0.877463         701.975         175.042 
       0.883569         693.951         172.434 
       0.889708         686.383         169.866 
       0.895864         680.864         167.345 
       0.902008         679.512         164.881 
       0.908149         673.008         162.469 
       0.914301         670.422         160.102 
       0.920448         663.121         157.785 
       0.926574         659.363         155.523 
       0.932687         656.134          153.31 
       0.938823         649.086         151.133 
       0.944975         644.388         148.994 
       0.951105         640.822         146.904 
       0.957225         631.759         144.859 
       0.963368         633.124         142.846 
       0.969511         624.555         140.872 
       0.975621         622.529         138.946 
       0.981748         617.443         137.052 
       0.987916         614.803         135.182 
        0.99406         608.974         133.353 
        1.00019         603.774         131.563 
        1.00632         599.372         129.808 
        1.01246         596.297         128.082 
        1.01859          590.94         126.391 
        1.02471         589.247         124.733 
        1.03085         582.533           123.1 
        1.03698         582.077         121.499 
        1.04314         574.615         119.921 
        1.04929         573.198         118.374 
        1.05541         566.139         116.862 
        1.06154         564.312         115.372 
        1.06769         559.816         113.906 
        1.07382         554.704         112.471 
        1.07993         554.283         111.065 
        1.08607         549.033         109.676 
        1.09222         545.317         108.311 
        1.09836         539.784          106.97 
        1.10449         535.448         105.654 
        1.11063         533.119         104.359 
        1.11677         528.396         103.087 
         1.1229         525.276         101.838 
        1.12903         520.617         100.609 
        1.13518         518.851         99.3993 
        1.14131         515.893         98.2105 
        1.14745         510.073         97.0421 
        1.15359          507.63         95.8927 
        1.15973         504.739         94.7617 
        1.16584         501.816         93.6541 
        1.17197         498.334         92.5629 
        1.17811         492.619          91.486 
        1.18424         490.242         90.4295 
        1.19038          487.99         89.3868 
        1.19652         482.946         88.3611 
        1.20267         481.445         87.3517 
        1.20881         478.306         86.3585 
        1.21495         472.653         85.3824 
        1.22108         472.235         84.4217 
         1.2272         466.572         83.4782 
        1.23334         465.494         82.5471 
        1.23949         460.284         81.6281 
        1.24562         460.119         80.7259 
        1.25174         455.726         79.8387 
        1.25789         452.929         78.9624 
        1.26402         450.068         78.1009 
        1.27014         447.004         77.2545 
        1.27628         442.918         76.4182 
        1.28244         440.839         75.5928 
        1.28858         438.199         74.7808 
        1.29471         436.407         73.9827 
        1.30084         432.721          73.197 
        1.30697         428.973         72.4217 
        1.31312         426.468         71.6566 
        1.31925         423.077         70.9051 
        1.32537         421.209         70.1652 
        1.33151         417.466         69.4333 
        1.33765         415.182         68.7124 
        1.34378         411.787         68.0033 
        1.34992         408.749         67.3038 
        1.35606         405.918         66.6127 
         1.3622         404.663         65.9326 
        1.36833         402.504         65.2638 
        1.37445         399.733         64.6047 
        1.38059         395.586         63.9527 
        1.38675          393.62         63.3083 
        1.39288         391.329         62.6754 
        1.39901         388.806         62.0516 
        1.40515         386.681         61.4349 
         1.4113         384.056         60.8269 
        1.41742         380.156         60.2296 
        1.42355         379.592         59.6392 
         1.4297           377.4          59.055 
        1.43585         372.137          58.479 
        1.44198         372.181         57.9129 
        1.44809          369.37         57.3555 
        1.45423          366.29         56.8034 
        1.46036         364.329         56.2596 
        1.46649         362.313         55.7229 
        1.47263         358.922         55.1927 
        1.47877          357.94         54.6698 
        1.48491         354.115         54.1528 
        1.49104          351.86         53.6437 
        1.49718         349.568         53.1408 
        1.50333         347.503         52.6436 
        1.50947         346.415         52.1538 
         1.5156         342.343         51.6711 
        1.52172         340.814         51.1945 
        1.52787         338.724          50.723 
          1.534         337.169          50.258 
        1.54013         334.577         49.7994 
        1.54627         332.267         49.3458 
        1.55241         330.688         48.8978 
        1.55855         327.985          48.456 
        1.56467         325.979          48.021 
         1.5708         324.123         47.5901 
        1.57695         321.847         47.1639 
        1.58308         320.629          46.744 
        1.58922         318.266         46.3289 
        1.59535          314.98         45.9191 
         1.6015         313.941         45.5137 
        1.60764         311.884         45.1134 
        1.61376         309.915         44.7191 
        1.61989          308.28         44.3292 
        1.62604         305.654         43.9431 
        1.63218         303.925         43.5619 
        1.63831          302.56         43.1862 
        1.64444         300.027         42.8148 
        1.65059         298.831         42.4469 
        1.65673         296.116         42.0837 
        1.66285         294.527         41.7259 
        1.66898         293.261         41.3721 
        1.67512          290.19         41.0218 
        1.68127         288.668         40.6753 
         1.6874         287.234         40.3336 
        1.69353         286.425          39.996 
        1.69967          284.26         39.6615 
        1.70581         281.703         39.3311 
        1.71193          280.49         39.0056 
        1.71806         278.401         38.6832 
        1.72421         276.875         38.3638 
        1.73035         274.677         38.0484 
        1.73649         273.025         37.7367 
        1.74262         271.778         37.4287 
        1.74876         269.579          37.124 
        1.75489         268.323         36.8233 
        1.76101          266.66         36.5261 
        1.76715         264.805         36.2317 
        1.77329         262.614         35.9403 
        1.77943         260.974          35.652 
        1.78557         260.194         35.3673 
        1.79171         258.271         35.0856 
        1.79785         256.165         34.8071 
        1.80399         255.335         34.5316 
        1.81012         253.314         34.2595 
        1.81625         252.054         33.9904 
        1.82239         250.199         33.7239 
        1.82853         249.239         33.4604 
        1.83466         247.178            33.2 
        1.84078         245.793         32.9426 
        1.84692         244.547         32.6876 
        1.85306         242.661          32.435 
         1.8592         241.657         32.1855 
        1.86533          239.55         31.9387 
        1.87147         238.875         31.6943 
        1.87761         237.024         31.4523 
        1.88375         235.382         31.2132 
        1.88988         234.087         30.9769 
        1.89601          232.76         30.7428 
        1.90215         231.192         30.5111 
        1.90829         229.771         30.2818 
        1.91442          228.69         30.0549 
        1.92056         227.171         29.8306 
         1.9267         226.145         29.6083 
        1.93284         224.882         29.3882 
        1.93897          222.89         29.1707 
        1.94509         221.945          28.956 
        1.95123         220.263         28.7428 
        1.95737         219.347         28.5317 
        1.96349         217.867         28.3233 
        1.96964          216.77         28.1163 
        1.97578         215.721         27.9114 
        1.98192         214.346         27.7089 
        1.98805         212.969         27.5084 
        1.99419         211.488         27.3099 
        2.00033         210.806         27.1132 
        2.00647         209.378         26.9186 
         2.0126         207.724         26.7262 
        2.01874         206.668         26.5355 
        2.02488         205.079         26.3464 
        2.03101         204.111         26.1595 
        2.03714         203.187         25.9747 
        2.04328         201.999         25.7914 
        2.04941         200.436           25.61 
        2.05554         199.718         25.4306 
        2.06167         197.982         25.2526 
        2.06781         197.118         25.0763 
        2.07396         195.484         24.9015 
        2.08009         194.578         24.7286 
        2.08622         193.755         24.5576 
        2.09237          192.33         24.3879 
        2.09851         191.494         24.2198 
        2.10464         190.547         24.0536 
        2.11077          189.17         23.8891 
        2.11691         188.057         23.7258 
        2.12305         186.697          23.564 
        2.12918         186.058         23.4042 
        2.13531         184.624         23.2458 
        2.14145         183.694         23.0885 
         2.1476         182.606         22.9325 
        2.15372         181.553         22.7788 
        2.15985         180.803         22.6263 
        2.16599         179.638         22.4747 
        2.17213         178.514         22.3248 
        2.17827         177.563         22.1762 
         2.1844         176.618         22.0292 
        2.19054         175.222         21.8834 
        2.19666         174.148         21.7392 
         2.2028         173.818         21.5961 
        2.20893         172.532         21.4543 
        2.21508         171.261         21.3136 
        2.22122         170.381         21.1742 
        2.22736         169.458         21.0362 
        2.23349         168.407         20.8996 
        2.23962          167.78         20.7641 
        2.24577         166.545         20.6296 
         2.2519         165.503         20.4966 
        2.25802         164.823          20.365 
        2.26417         163.839         20.2341 
        2.27031         162.848         20.1043 
        2.27644         162.048         19.9761 
        2.28257         161.328         19.8489 
        2.28872         160.148         19.7226 
        2.29486         159.481         19.5975 
        2.30099         158.354         19.4737 
        2.30712         157.652         19.3509 
        2.31326         156.439          19.229 
         2.3194         155.913         19.1082 
        2.32553         154.967         18.9887 
        2.33166         154.445         18.8702 
         2.3378         153.406         18.7526 
        2.34394         152.193          18.636 
        2.35007         151.626         18.5205 
        2.35619         150.396         18.4062 
        2.36233         149.845         18.2925 
        2.36848         149.186         18.1796 
        2.37462         148.466         18.0679 
        2.38075         147.515         17.9572 
        2.38689         146.416         17.8474 
        2.39303         145.912         17.7385 
        2.39916          144.87         17.6307 
        2.40529         144.204         17.5237 
        2.41143         143.431         17.4176 
        2.41757         142.241         17.3123 
         2.4237         142.044         17.2081 
        2.42983         141.186         17.1048 
        2.43598         140.113          17.002 
        2.44211         139.589         16.9003 
        2.44823         138.738         16.7996 
        2.45437         138.151         16.6994 
        2.46052         137.153            16.6 
        2.46665         136.382         16.5016 
        2.47279         135.787         16.4041 
        2.47892         135.205         16.3072 
        2.48507         134.484         16.2111 
         2.4912          133.66         16.1159 
