# k  (h/Mpc)    P(k)  (Mpc/h)^3    P_linear(k)  (Mpc/h)^3
     0.00783031         2852.86          2881.2 
       0.013688         3429.44         3481.17 
       0.019231          3405.6         3429.82 
      0.0249154         3066.99         3062.65 
      0.0312784         2530.92         2533.61 
      0.0375637         2052.06         2059.03 
      0.0433917         1732.73         1727.38 
      0.0492413         1502.43         1503.96 
      0.0555754         1364.68          1357.3 
      0.0619321         1252.84          1266.8 
       0.067871         1193.86         1196.36 
      0.0738098         1113.91         1114.86 
      0.0800417         1010.28         1007.81 
      0.0862327         885.713         886.136 
      0.0921407         772.048         770.367 
      0.0982031         674.024         666.628 
       0.104506         586.172         584.397 
       0.110769         533.545         530.042 
       0.116806         506.939         498.746 
       0.122832         483.573         480.195 
       0.129052         469.551         465.114 
       0.135211         453.215         446.542 
       0.141259         424.286         420.867 
       0.147318         389.144         388.118 
       0.153489         355.152         351.209 
       0.159709         323.137         315.415 
       0.165845         289.615         285.563 
       0.171974         273.633         263.176 
       0.178125         258.084          248.04 
       0.184229         245.435         238.551 
        0.19034         240.701         231.988 
       0.196428         233.796         225.735 
       0.202534         221.518         217.767 
       0.208729         214.289         207.094 
       0.214876         203.116         194.321 
       0.220989         187.048         180.709 
       0.227147         177.724         167.593 
        0.23329         167.358         156.312 
       0.239377         159.946         147.493 
       0.245482         152.071         140.947 
       0.251667         145.817         136.107 
       0.257832         144.002         132.237 
       0.263955         137.514         128.494 
       0.270079          132.75         124.254 
        0.27624         127.077         119.232 
       0.282372         122.101         113.604 
        0.28843         118.864         107.799 
       0.294538         112.611         102.143 
       0.300721         106.837         97.0139 
        0.30691         104.073         92.6741 
       0.313033         99.6551         89.1811 
       0.319153         97.8403          86.307 
       0.325316         94.0405           83.79 
        0.33145          91.116         81.3853 
       0.337538         88.4394         78.9119 
       0.343633         85.9387         76.2461 
       0.349808         82.8609         73.3867 
       0.355968         80.1231         70.4686 
       0.362074         78.2281         67.6538 
       0.368217         75.6832         65.0252 
       0.374374         73.6469         62.6592 
       0.380519         70.5158         60.5905 
       0.386598         68.6181         58.7776 
       0.392688         66.5876         57.1261 
        0.39888         65.4204         55.5316 
       0.405048         63.8963         53.9518 
       0.411186         62.2507         52.3589 
       0.417313         60.4479         50.7419 
       0.423458         58.6788         49.1154 
       0.429607         57.5281         47.5284 
       0.435692         56.4831         46.0341 
       0.441815         54.3193         44.6277 
       0.447964         52.6391         43.3287 
       0.454126          51.705          42.129 
       0.460267         51.1743         41.0097 
       0.466387         49.7507         39.9469 
        0.47254          49.047         38.9099 
       0.478662         47.4062         37.8905 
       0.484765         46.4525         36.8812 
       0.490885         45.0977         35.8848 
       0.497035         44.4558         34.9077 
       0.503198         43.4475         33.9622 
       0.509342          42.235         33.0616 
       0.515458         41.6625          32.214 
       0.521598         40.6516         31.4096 
       0.527764         40.0707         30.6403 
       0.533884         39.2948         29.9073 
           0.54         38.4534          29.199 
       0.546137          37.335         28.5075 
       0.552299          36.658         27.8283 
       0.558452          35.876         27.1633 
       0.564573         35.5764         26.5177 
       0.570708         34.6091         25.8904 
       0.576825         34.1707         25.2879 
       0.582926         33.5852         24.7103 
       0.589034         32.8979         24.1537 
       0.595184         32.4898         23.6138 
       0.601379         31.6196         23.0895 
       0.607522         31.0772         22.5867 
       0.613639         30.6428          22.101 
       0.619772         30.0785          21.627 
       0.625918         29.5296         21.1632 
       0.632068         29.2481         20.7106 
       0.638161         28.6517          20.274 
         0.6443          28.232          19.847 
       0.650464         27.5307          19.432 
       0.656582         27.3643         19.0336 
       0.662703         26.9956         18.6475 
       0.668861         26.3026         18.2708 
       0.675024         25.9847         17.9044 
       0.681124         25.8356         17.5516 
       0.687237         25.2988         17.2071 
       0.693381         24.7883         16.8701 
       0.699536         24.6544         16.5413 
       0.705665         24.1887         16.2227 
       0.711789         23.7932         15.9129 
       0.717957          23.317         15.6092 
        0.72409         23.1005         15.3153 
       0.730186         22.9868         15.0309 
       0.736317         22.5001         14.7523 
       0.742472         22.2283         14.4798 
       0.748622         21.8917         14.2146 
        0.75476          21.364         13.9567 
       0.760888         21.3093         13.7056 
       0.767043         20.9228         13.4598 
       0.773185         20.6868         13.2207 
       0.779291          20.455         12.9887 
       0.785407         20.1445         12.7621 
       0.791564         20.0199         12.5395 
       0.797719         19.5691         12.3224 
       0.803834         19.4945         12.1119 
       0.809972         19.1185         11.9056 
       0.816124         18.9248         11.7038 
       0.822261         18.7066         11.5071 
       0.828378         18.5179         11.3157 
       0.834502         18.3205         11.1284 
       0.840667          18.119         10.9442 
       0.846816         17.7304         10.7648 
       0.852925         17.6808         10.5905 
       0.859047         17.4764         10.4197 
       0.865192          17.229         10.2522 
       0.871341         17.0133         10.0883 
       0.877463         16.8153         9.92877 
       0.883569         16.7156         9.77313 
       0.889708         16.4507         9.62006 
       0.895864         16.2407         9.46992 
       0.902008         16.0702         9.32333 
       0.908149         15.8552         9.17996 
       0.914301          15.767         9.03941 
       0.920448         15.5446         8.90196 
       0.926574         15.4391         8.76788 
       0.932687         15.2167         8.63687 
       0.938823         15.0153         8.50808 
       0.944975         14.9261         8.38165 
       0.951105         14.7645         8.25827 
       0.957225         14.6594          8.1376 
       0.963368         14.4345         8.01896 
       0.969511         14.2914          7.9027 
       0.975621         14.1673         7.78939 
       0.981748         13.9882         7.67804 
       0.987916          13.899         7.56818 
        0.99406         13.7186          7.4609 
        1.00019         13.6308         7.35593 
        1.00632         13.5236          7.2531 
        1.01246         13.3667          7.1521 
        1.01859         13.2252         7.05321 
        1.02471         13.0846         6.95633 
        1.03085         13.0224         6.86094 
        1.03698         12.9098         6.76757 
        1.04314         12.7401         6.67555 
        1.04929           12.59         6.58548 
        1.05541         12.5278         6.49744 
        1.06154         12.4142         6.41081 
        1.06769         12.3093         6.32564 
        1.07382         12.1414         6.24231 
        1.07993         12.0447         6.16068 
        1.08607         11.9787         6.08019 
        1.09222         11.8341         6.00106 
        1.09836         11.7585         5.92345 
        1.10449         11.6394         5.84731 
        1.11063         11.5776         5.77243 
        1.11677         11.5014          5.6989 
         1.1229         11.3836         5.62679 
        1.12903         11.2852         5.55588 
        1.13518         11.1601         5.48613 
        1.14131         11.0937         5.41763 
        1.14745         10.9362         5.35035 
        1.15359          10.846          5.2842 
        1.15973          10.772         5.21915 
        1.16584         10.6779          5.1555 
        1.17197         10.5794         5.09282 
        1.17811           10.51         5.03101 
        1.18424         10.4368          4.9704 
        1.19038         10.3837         4.91063 
        1.19652         10.2718         4.85187 
        1.20267         10.2161         4.79407 
        1.20881         10.0872         4.73724 
        1.21495         10.0247         4.68143 
        1.22108         9.96301         4.62653 
         1.2272            9.88         4.57265 
        1.23334         9.83419         4.51951 
        1.23949         9.73464         4.46709 
        1.24562         9.65366         4.41566 
        1.25174         9.60618         4.36512 
        1.25789         9.49709         4.31523 
        1.26402         9.45668         4.26621 
        1.27014         9.40915         4.21807 
        1.27628         9.29047         4.17054 
        1.28244         9.27938         4.12366 
        1.28858          9.1816         4.07757 
        1.29471         9.07578         4.03229 
        1.30084         9.01761         3.98774 
        1.30697         8.99924          3.9438 
        1.31312         8.91128         3.90047 
        1.31925         8.86314         3.85792 
        1.32537         8.79061         3.81606 
        1.33151          8.7276         3.77467 
        1.33765         8.66688         3.73392 
        1.34378         8.64918         3.69386 
        1.34992         8.55951         3.65436 
        1.35606         8.47947         3.61536 
         1.3622         8.41907           3.577 
        1.36833         8.39202         3.53929 
        1.37445         8.33089         3.50215 
        1.38059         8.26356         3.46543 
        1.38675         8.22143         3.42915 
        1.39288         8.14926         3.39354 
        1.39901          8.0904         3.35846 
        1.40515         8.04386         3.32379 
         1.4113         7.98607         3.28963 
        1.41742         7.95499         3.25608 
        1.42355         7.87862         3.22294 
         1.4297         7.83434         3.19017 
        1.43585         7.79901         3.15786 
        1.44198          7.7563         3.12613 
        1.44809         7.69608          3.0949 
        1.45423         7.63964         3.06398 
        1.46036         7.59716         3.03354 
        1.46649         7.54798         3.00351 
        1.47263         7.50973         2.97386 
        1.47877         7.45457         2.94463 
        1.48491         7.42965         2.91575 
        1.49104         7.36475         2.88732 
        1.49718         7.33492         2.85924 
        1.50333         7.28382          2.8315 
        1.50947         7.23589         2.80419 
         1.5156         7.20561         2.77728 
        1.52172         7.15068         2.75072 
        1.52787         7.12839         2.72446 
          1.534         7.07221         2.69858 
        1.54013         7.04621         2.67306 
        1.54627         6.99094         2.64783 
        1.55241         6.93435         2.62292 
        1.55855          6.9217         2.59837 
        1.56467         6.88972          2.5742 
         1.5708         6.83489         2.55027 
        1.57695         6.78803         2.52662 
        1.58308          6.7478         2.50332 
        1.58922         6.72405         2.48029 
        1.59535         6.69031         2.45757 
         1.6015         6.62041          2.4351 
        1.60764         6.59437         2.41293 
        1.61376         6.57331         2.39109 
        1.61989         6.51741         2.36951 
        1.62604          6.5022         2.34815 
        1.63218         6.46674         2.32706 
        1.63831         6.42554         2.30629 
        1.64444         6.37302         2.28576 
        1.65059         6.34635         2.26543 
        1.65673         6.32862         2.24537 
        1.66285         6.28793         2.22562 
        1.66898         6.26521         2.20609 
        1.67512         6.22765         2.18677 
        1.68127         6.17014         2.16765 
         1.6874         6.15551         2.14881 
        1.69353         6.10783         2.13021 
        1.69967         6.09182         2.11178 
        1.70581         6.05094         2.09358 
        1.71193         6.02385         2.07567 
        1.71806         5.98978         2.05793 
        1.72421         5.95612         2.04036 
        1.73035         5.93757         2.02301 
        1.73649         5.90791         2.00588 
        1.74262         5.85473         1.98895 
        1.74876          5.8533         1.97221 
        1.75489         5.82052          1.9557 
        1.76101         5.76742         1.93939 
        1.76715         5.76519         1.92324 
        1.77329         5.72745         1.90725 
        1.77943         5.68425         1.89144 
        1.78557         5.68446         1.87583 
        1.79171         5.64715          1.8604 
        1.79785         5.62772         1.84514 
        1.80399          5.5817         1.83005 
        1.81012         5.56434         1.81516 
        1.81625         5.52733         1.80044 
        1.82239         5.50982         1.78585 
        1.82853         5.46977         1.77144 
        1.83466         5.43372         1.75721 
        1.84078         5.42109         1.74314 
        1.84692         5.39706         1.72921 
        1.85306         5.37186         1.71541 
         1.8592         5.35379         1.70178 
        1.86533         5.32897         1.68832 
        1.87147         5.30587         1.67498 
        1.87761          5.2804         1.66178 
        1.88375         5.24974         1.64874 
        1.88988          5.2273         1.63585 
        1.89601          5.2019          1.6231 
        1.90215         5.17233         1.61047 
        1.90829          5.1597         1.59798 
        1.91442         5.12958         1.58563 
        1.92056         5.12159         1.57341 
         1.9267          5.0819         1.56132 
        1.93284         5.07169         1.54934 
        1.93897         5.03721         1.53751 
        1.94509         4.99712         1.52584 
        1.95123         4.99936         1.51425 
        1.95737          4.9779         1.50278 
        1.96349         4.94437         1.49145 
        1.96964          4.9187         1.48021 
        1.97578         4.90374         1.46908 
        1.98192         4.87977         1.45809 
        1.98805         4.86304         1.44721 
        1.99419         4.84467         1.43644 
        2.00033         4.81121         1.42578 
        2.00647         4.80256         1.41523 
         2.0126         4.78255          1.4048 
        2.01874         4.75509         1.39446 
        2.02488         4.74427         1.38422 
        2.03101         4.71094          1.3741 
        2.03714         4.68807         1.36409 
        2.04328         4.67547         1.35417 
        2.04941         4.65049         1.34436 
        2.05554         4.63772         1.33465 
        2.06167         4.62537         1.32503 
        2.06781         4.59605         1.31549 
        2.07396         4.57553         1.30604 
        2.08009         4.55514          1.2967 
        2.08622         4.54918         1.28746 
        2.09237         4.52975          1.2783 
        2.09851         4.49983         1.26922 
        2.10464         4.48814         1.26024 
        2.11077         4.46865         1.25137 
        2.11691         4.45235         1.24256 
        2.12305         4.43007         1.23383 
        2.12918          4.4167         1.22521 
        2.13531         4.39664         1.21667 
        2.14145         4.37749         1.20819 
         2.1476         4.35982         1.19979 
        2.15372         4.33884         1.19151 
        2.15985         4.33073         1.18329 
        2.16599         4.31246         1.17513 
        2.17213         4.30749         1.16706 
        2.17827         4.27062         1.15907 
         2.1844         4.26162         1.15115 
        2.19054         4.24902         1.14331 
        2.19666         4.22925         1.13556 
         2.2028         4.20134         1.12787 
        2.20893         4.20194         1.12024 
        2.21508         4.17724         1.11268 
        2.22122         4.15155         1.10519 
        2.22736         4.13779         1.09778 
        2.23349         4.12332         1.09044 
        2.23962         4.11406         1.08316 
        2.24577         4.09017         1.07595 
         2.2519         4.09338         1.06881 
        2.25802         4.04691         1.06175 
        2.26417         4.04539         1.05473 
        2.27031         4.03122         1.04777 
        2.27644         4.01659         1.04089 
        2.28257         3.99968         1.03407 
        2.28872         3.98411         1.02731 
        2.29486         3.96861          1.0206 
        2.30099         3.95826         1.01397 
        2.30712         3.93886         1.00739 
        2.31326         3.92915         1.00087 
         2.3194         3.90719        0.994401 
        2.32553         3.89592        0.988004 
        2.33166         3.88291        0.981665 
         2.3378         3.87187        0.975374 
        2.34394         3.84881        0.969136 
        2.35007         3.83854        0.962962 
        2.35619         3.83282        0.956849 
        2.36233         3.80842        0.950775 
        2.36848         3.79915        0.944741 
        2.37462         3.78706        0.938772 
        2.38075         3.77538        0.932861 
        2.38689         3.76428        0.926996 
        2.39303         3.74328        0.921183 
        2.39916         3.73602        0.915425 
        2.40529         3.71552        0.909718 
        2.41143         3.71146        0.904055 
        2.41757         3.69683        0.898438 
         2.4237         3.68287        0.892879 
        2.42983         3.66967        0.887368 
        2.43598            3.66        0.881889 
        2.44211         3.64081        0.876466 
        2.44823         3.62801        0.871101 
        2.45437         3.61441        0.865765 
        2.46052         3.60825        0.860471 
        2.46665         3.59225         0.85523 
        2.47279         3.57692        0.850035 
        2.47892         3.56776        0.844879 
        2.48507         3.55704        0.839762 
         2.4912          3.5412        0.834697 
