# k  (h/Mpc)    P(k)  (Mpc/h)^3    P_linear(k)  (Mpc/h)^3
     0.00783031         4781.27         4848.85 
       0.013688         5877.63         5865.61 
       0.019231          5899.2         5896.04 
      0.0249154         5392.73         5454.33 
      0.0312784         4738.27         4758.21 
      0.0375637         4104.61         4096.53 
      0.0433917         3574.57         3600.67 
      0.0492413         3224.34          3229.5 
      0.0555754         2898.02         2937.76 
      0.0619321         2722.33         2707.74 
       0.067871          2480.9         2507.42 
      0.0738098         2273.39         2298.59 
      0.0800417         2033.97         2067.96 
      0.0862327         1826.02         1841.02 
      0.0921407         1644.83         1644.15 
      0.0982031         1469.52         1475.49 
       0.104506         1360.46         1340.63 
       0.110769         1258.67          1242.5 
       0.116806         1177.24         1170.95 
       0.122832         1122.54         1109.91 
       0.129052         1046.35         1047.28 
       0.135211         981.989         980.003 
       0.141259         922.831         908.947 
       0.147318         857.739         836.879 
       0.153489         784.256         768.171 
       0.159709         731.635         708.356 
       0.165845         693.924         660.585 
       0.171974         650.121         623.219 
       0.178125         620.664          593.31 
       0.184229         596.083         567.567 
        0.19034          558.61         542.533 
       0.196428         542.832         516.375 
       0.202534         521.562         488.519 
       0.208729         490.678          459.53 
       0.214876         460.598         431.647 
       0.220989         442.688         406.303 
       0.227147         416.386         384.099 
        0.23329         398.513         365.392 
       0.239377          387.09         349.694 
       0.245482          363.44         335.834 
       0.251667         357.481         322.687 
       0.257832         344.597         309.706 
       0.263955         331.233         296.591 
       0.270079         318.091         283.307 
        0.27624         310.846         270.151 
       0.282372         297.737         257.697 
        0.28843          286.24         246.376 
       0.294538         273.811         236.105 
       0.300721         269.597         226.823 
        0.30691         257.174         218.436 
       0.313033         250.477         210.729 
       0.319153         239.952         203.352 
       0.325316         234.519         196.065 
        0.33145         226.186         188.903 
       0.337538         222.081         181.918 
       0.343633         214.264         175.154 
       0.349808         207.438         168.646 
       0.355968         203.173         162.569 
       0.362074         197.257         156.986 
       0.368217         191.748         151.765 
       0.374374         185.786         146.866 
       0.380519         181.917         142.221 
       0.386598         177.071         137.795 
       0.392688         174.131         133.493 
        0.39888         169.409         129.232 
       0.405048         165.381         125.119 
       0.411186         161.596          121.18 
       0.417313         157.628         117.422 
       0.423458         154.152         113.843 
       0.429607         150.306         110.451 
       0.435692         145.494         107.264 
       0.441815         144.275         104.205 
       0.447964         141.761          101.26 
       0.454126         135.526         98.4132 
       0.460267         133.921         95.6679 
       0.466387         131.617         93.0212 
        0.47254         129.041         90.4483 
       0.478662         127.467         87.9799 
       0.484765         123.828         85.6146 
       0.490885         121.644         83.3401 
       0.497035         120.052         81.1472 
       0.503198           116.7         79.0374 
       0.509342         114.418         77.0144 
       0.515458         112.725          75.073 
       0.521598         111.144         73.1893 
       0.527764         109.329         71.3577 
       0.533884         107.482         69.5981 
           0.54         105.475         67.8975 
       0.546137         104.442         66.2478 
       0.552299         102.789         64.6474 
       0.558452         100.348         63.1045 
       0.564573         98.5255         61.6221 
       0.570708         97.2675         60.1869 
       0.576825         95.7429         58.8033 
       0.582926         93.8953         57.4674 
       0.589034         92.1136         56.1707 
       0.595184         91.0364         54.9046 
       0.601379         89.9231         53.6684 
       0.607522           87.69         52.4799 
       0.613639         87.5008         51.3325 
       0.619772          85.445         50.2172 
       0.625918         84.6637         49.1333 
       0.632068         83.6078         48.0814 
       0.638161         82.4882         47.0701 
         0.6443         81.2992         46.0813 
       0.650464         80.2147         45.1176 
       0.656582         79.2536         44.1886 
       0.662703         77.7046         43.2856 
       0.668861         76.8592         42.4026 
       0.675024         75.8929         41.5435 
       0.681124         74.8395         40.7169 
       0.687237         73.5219         39.9112 
       0.693381         72.8434         39.1237 
       0.699536         71.7197         38.3563 
       0.705665         72.0333         37.6131 
       0.711789         70.0474         36.8906 
       0.717957         69.5329         36.1822 
        0.72409         68.5564         35.4966 
       0.730186         67.4364         34.8329 
       0.736317         67.2274         34.1827 
       0.742472         66.2742         33.5467 
       0.748622          65.675         32.9276 
        0.75476         64.8963         32.3255 
       0.760888         63.9447         31.7394 
       0.767043         63.3067         31.1656 
       0.773185         62.5142         30.6073 
       0.779291         62.1369         30.0659 
       0.785407         61.5362         29.5369 
       0.791564          60.655         29.0175 
       0.797719         59.7213         28.5108 
       0.803834         59.5378         28.0195 
       0.809972         58.5322         27.5382 
       0.816124         57.9072         27.0671 
       0.822261         57.4972         26.6084 
       0.828378         57.0495         26.1617 
       0.834502         56.3841         25.7249 
       0.840667         55.8805         25.2954 
       0.846816         55.1264         24.8769 
       0.852925         54.6585         24.4705 
       0.859047         53.9324         24.0724 
       0.865192         53.6324         23.6819 
       0.871341         53.3499         23.2998 
       0.877463         52.3131         22.9279 
       0.883569         51.9822         22.5651 
       0.889708         51.6866         22.2084 
       0.895864          51.181         21.8584 
       0.902008         50.7293         21.5168 
       0.908149         50.3071         21.1827 
       0.914301         49.9566         20.8551 
       0.920448         49.3474         20.5349 
       0.926574         48.9558         20.2225 
       0.932687         48.5638         19.9173 
       0.938823         47.8346         19.6173 
       0.944975         47.7177         19.3229 
       0.951105          47.233         19.0355 
       0.957225         46.6501         18.7545 
       0.963368         46.5891         18.4783 
       0.969511         46.1872         18.2077 
       0.975621         45.7951         17.9439 
       0.981748         45.2434         17.6847 
       0.987916         44.9953          17.429 
        0.99406         44.7044         17.1794 
        1.00019         44.1336         16.9352 
        1.00632         43.9357         16.6959 
        1.01246         43.5938         16.4609 
        1.01859         43.0154         16.2309 
        1.02471         43.0695         16.0055 
        1.03085         42.6155         15.7837 
        1.03698         42.1159         15.5665 
        1.04314         41.7491         15.3525 
        1.04929         41.5499         15.1431 
        1.05541         41.0938         14.9384 
        1.06154         41.0212          14.737 
        1.06769         40.6317          14.539 
        1.07382         40.3621         14.3453 
        1.07993         40.2048         14.1556 
        1.08607         39.7066         13.9685 
        1.09222         39.5773         13.7846 
        1.09836           39.22         13.6043 
        1.10449         38.9419         13.4274 
        1.11063         38.4627         13.2535 
        1.11677         38.3027         13.0827 
         1.1229         38.1713         12.9152 
        1.12903          37.628         12.7505 
        1.13518         37.5839         12.5886 
        1.14131         37.4498         12.4295 
        1.14745         36.9824         12.2733 
        1.15359         36.9178         12.1198 
        1.15973         36.4778         11.9688 
        1.16584         36.2024         11.8211 
        1.17197         36.1654         11.6757 
        1.17811         35.7858         11.5323 
        1.18424         35.4672         11.3917 
        1.19038         35.4223          11.253 
        1.19652         35.2151         11.1167 
        1.20267         34.9514         10.9827 
        1.20881         34.6734         10.8509 
        1.21495         34.4337         10.7215 
        1.22108         34.2251         10.5943 
         1.2272         33.8538         10.4694 
        1.23334         33.7661         10.3462 
        1.23949          33.618         10.2247 
        1.24562         33.3969         10.1055 
        1.25174           33.24         9.98844 
        1.25789         32.9886         9.87284 
        1.26402         32.7999         9.75928 
        1.27014         32.4748         9.64778 
        1.27628         32.3461          9.5377 
        1.28244          32.147         9.42912 
        1.28858         32.0301         9.32238 
        1.29471         31.8542         9.21754 
        1.30084          31.655          9.1144 
        1.30697         31.3984         9.01268 
        1.31312         31.1325         8.91236 
        1.31925         31.0482         8.81389 
        1.32537         30.9039         8.71701 
        1.33151         30.6699         8.62123 
        1.33765         30.6177         8.52695 
        1.34378         30.4315         8.43427 
        1.34992         30.0385          8.3429 
        1.35606         29.9365         8.25268 
         1.3622         29.7718         8.16397 
        1.36833         29.6082         8.07677 
        1.37445         29.6035         7.99089 
        1.38059         29.3903         7.90599 
        1.38675          29.098         7.82213 
        1.39288         29.0375         7.73982 
        1.39901         28.7848         7.65873 
        1.40515         28.6772         7.57862 
         1.4113         28.5538         7.49969 
        1.41742         28.2588         7.42218 
        1.42355         28.2257         7.34562 
         1.4297         28.0426         7.26992 
        1.43585          27.998         7.19531 
        1.44198         27.7178         7.12204 
        1.44809         27.6042         7.04992 
        1.45423         27.5078         6.97854 
        1.46036         27.4077         6.90828 
        1.46649          27.192         6.83895 
        1.47263         27.0461         6.77053 
        1.47877          26.948         6.70307 
        1.48491         26.7917         6.63643 
        1.49104         26.7121         6.57083 
        1.49718         26.4605         6.50607 
        1.50333         26.4143         6.44207 
        1.50947         26.2912         6.37907 
         1.5156         26.0937         6.31701 
        1.52172         25.9125         6.25577 
        1.52787         25.9318         6.19521 
          1.534         25.6971         6.13554 
        1.54013         25.5162         6.07671 
        1.54627         25.4809         6.01854 
        1.55241         25.3066         5.96113 
        1.55855         25.1692         5.90454 
        1.56467         25.0593         5.84885 
         1.5708         24.9884         5.79372 
        1.57695         24.7301         5.73921 
        1.58308         24.7906         5.68554 
        1.58922         24.5993         5.63251 
        1.59535         24.4402         5.58017 
         1.6015         24.3389         5.52843 
        1.60764          24.284         5.47737 
        1.61376         24.1069         5.42709 
        1.61989         23.9228         5.37741 
        1.62604         23.9095         5.32823 
        1.63218         23.7364          5.2797 
        1.63831         23.6887         5.23188 
        1.64444         23.5306         5.18464 
        1.65059         23.3975         5.13787 
        1.65673         23.3143         5.09173 
        1.66285         23.1993         5.04628 
        1.66898         23.1072         5.00137 
        1.67512         23.0337         4.95692 
        1.68127          22.856         4.91297 
         1.6874         22.7665         4.86965 
        1.69353         22.7045         4.82688 
        1.69967         22.5312         4.78452 
        1.70581         22.4477         4.74269 
        1.71193          22.341         4.70151 
        1.71806         22.2469         4.66074 
        1.72421          22.135         4.62036 
        1.73035         22.0526         4.58052 
        1.73649         21.9481         4.54115 
        1.74262         21.8711         4.50227 
        1.74876         21.7783         4.46382 
        1.75489         21.6544          4.4259 
        1.76101         21.5749         4.38843 
        1.76715         21.4864         4.35134 
        1.77329         21.4115         4.31464 
        1.77943         21.2762         4.27834 
        1.78557         21.2024         4.24251 
        1.79171         21.1301         4.20709 
        1.79785         20.9862         4.17206 
        1.80399         20.8962         4.13744 
        1.81012         20.8725         4.10326 
        1.81625         20.7511         4.06948 
        1.82239         20.7197         4.03603 
        1.82853         20.5291         4.00297 
        1.83466         20.4285         3.97032 
        1.84078         20.3039         3.93806 
        1.84692         20.3095         3.90611 
        1.85306           20.18         3.87447 
         1.8592         20.1002         3.84323 
        1.86533         20.0173         3.81235 
        1.87147          19.926         3.78178 
        1.87761         19.9042         3.75153 
        1.88375         19.7681         3.72164 
        1.88988         19.7228         3.69211 
        1.89601         19.5833         3.66288 
        1.90215         19.5191         3.63395 
        1.90829         19.4745         3.60535 
        1.91442         19.3719         3.57704 
        1.92056         19.2964         3.54907 
         1.9267         19.2166         3.52137 
        1.93284         19.1058         3.49394 
        1.93897         19.0571         3.46686 
        1.94509         18.9743         3.44013 
        1.95123          18.861         3.41361 
        1.95737         18.8086         3.38734 
        1.96349         18.7287         3.36143 
        1.96964         18.6379          3.3357 
        1.97578         18.5934         3.31024 
        1.98192         18.4595         3.28509 
        1.98805         18.4347          3.2602 
        1.99419         18.3414         3.23557 
        2.00033         18.2469         3.21118 
        2.00647         18.1852         3.18704 
         2.0126         18.0786          3.1632 
        2.01874         18.0185         3.13956 
        2.02488         17.9903         3.11614 
        2.03101         17.9279           3.093 
        2.03714         17.8364         3.07012 
        2.04328         17.7361         3.04744 
        2.04941         17.6582         3.02502 
        2.05554         17.6522         3.00283 
        2.06167         17.5666         2.98083 
        2.06781         17.4937         2.95906 
        2.07396         17.4226         2.93747 
        2.08009         17.3576         2.91613 
        2.08622         17.2653         2.89502 
        2.09237         17.2072         2.87409 
        2.09851         17.1294         2.85335 
        2.10464         17.0729         2.83286 
        2.11077         16.9706         2.81259 
        2.11691         16.9559         2.79248 
        2.12305         16.8528         2.77256 
        2.12918         16.7913         2.75288 
        2.13531         16.7456         2.73339 
        2.14145         16.6522         2.71404 
         2.1476         16.5992         2.69486 
        2.15372         16.5477         2.67596 
        2.15985         16.4431         2.65722 
        2.16599         16.4127         2.63861 
        2.17213          16.356         2.62019 
        2.17827         16.2928         2.60196 
         2.1844         16.2192         2.58391 
        2.19054         16.1499         2.56603 
        2.19666         16.1164         2.54835 
         2.2028         16.0642         2.53081 
        2.20893         15.9572         2.51343 
        2.21508         15.9109         2.49619 
        2.22122         15.8253         2.47911 
        2.22736         15.7825         2.46223 
        2.23349          15.712          2.4455 
        2.23962         15.6507         2.42892 
        2.24577         15.5763         2.41248 
         2.2519         15.5666         2.39622 
        2.25802         15.5136         2.38013 
        2.26417         15.4539         2.36414 
        2.27031         15.3749         2.34829 
        2.27644         15.3192         2.33262 
        2.28257         15.2524          2.3171 
        2.28872         15.1903          2.3017 
        2.29486         15.1559         2.28643 
        2.30099         15.0905         2.27133 
        2.30712         15.0599         2.25637 
        2.31326         14.9926         2.24151 
         2.3194         14.9238         2.22679 
        2.32553         14.8691         2.21223 
        2.33166         14.7761         2.19781 
         2.3378         14.7434          2.1835 
        2.34394           14.69          2.1693 
        2.35007         14.6235         2.15526 
        2.35619          14.558         2.14135 
        2.36233         14.5226         2.12754 
        2.36848         14.4878         2.11382 
        2.37462         14.4669         2.10024 
        2.38075         14.3741          2.0868 
        2.38689         14.3417         2.07347 
        2.39303         14.2719         2.06025 
        2.39916          14.223         2.04716 
        2.40529         14.1675         2.03419 
        2.41143         14.1187         2.02132 
        2.41757         14.0771         2.00856 
         2.4237         14.0104         1.99593 
        2.42983         13.9667         1.98341 
        2.43598          13.917         1.97096 
        2.44211         13.8506         1.95864 
        2.44823         13.7989         1.94645 
        2.45437         13.7816         1.93433 
        2.46052         13.7233         1.92231 
        2.46665         13.6604         1.91041 
        2.47279         13.6023         1.89861 
        2.47892         13.5763          1.8869 
        2.48507         13.5399         1.87529 
         2.4912         13.4816         1.86379 
