# k  (h/Mpc)    P(k)  (Mpc/h)^3    P_linear(k)  (Mpc/h)^3
     0.00783031          6972.6         7070.25 
       0.013688         8741.16         8711.02 
       0.019231         8701.38         8691.83 
      0.0249154         7743.99         7848.76 
      0.0312784         6563.21          6594.4 
      0.0375637         5496.22         5478.01 
      0.0433917         4677.75         4713.77 
      0.0492413         4203.59         4207.79 
      0.0555754         3803.51         3867.24 
      0.0619321         3640.74         3621.92 
       0.067871         3339.15          3387.7 
      0.0738098         3058.66         3103.27 
      0.0800417         2699.58         2754.79 
      0.0862327         2377.93         2398.87 
      0.0921407         2105.28         2095.55 
      0.0982031         1853.44         1851.76 
       0.104506         1718.48         1678.59 
       0.110769          1605.1         1573.44 
       0.116806         1524.69         1509.52 
       0.122832         1473.43         1454.73 
       0.129052         1380.63         1385.05 
       0.135211         1294.24         1293.17 
       0.141259         1208.33          1185.2 
       0.147318         1109.68         1072.61 
       0.153489          1001.5         968.462 
       0.159709         930.895         884.847 
       0.165845         885.953         826.372 
       0.171974         837.864         788.088 
       0.178125         807.598         761.905 
       0.184229         782.121         738.951 
        0.19034         735.543         711.677 
       0.196428         716.065         676.802 
       0.202534         685.217         635.026 
       0.208729         640.936         589.873 
       0.214876         599.302         547.461 
       0.220989         574.004           511.6 
       0.227147         542.297         483.562 
        0.23329         521.087         463.054 
       0.239377          510.02         447.809 
       0.245482         479.424         434.575 
       0.251667          474.47         420.512 
       0.257832         457.722         404.236 
       0.263955         439.833         385.657 
       0.270079         421.201         365.716 
        0.27624         411.989         345.961 
       0.282372         394.283         328.092 
        0.28843         380.496         313.127 
       0.294538         363.243         300.819 
       0.300721         359.768          290.67 
        0.30691         343.783         281.833 
       0.313033          336.24         273.407 
       0.319153         323.541         264.553 
       0.325316          315.34         254.952 
        0.33145         304.448         244.859 
       0.337538         299.394         234.795 
       0.343633         288.821         225.175 
       0.349808         279.256          216.35 
       0.355968         274.834         208.604 
       0.362074         267.906          201.93 
       0.368217         260.694         195.934 
       0.374374          251.72         190.303 
       0.380519         247.923          184.78 
       0.386598          241.46         179.199 
       0.392688         238.182         173.492 
        0.39888         231.794         167.664 
       0.405048         226.167         161.985 
       0.411186         221.235         156.644 
       0.417313          216.59         151.718 
       0.423458         212.062          147.19 
       0.429607         207.286         143.043 
       0.435692         201.029         139.204 
       0.441815         199.542         135.483 
       0.447964         195.898         131.816 
       0.454126         187.754         128.174 
       0.460267         185.637          124.56 
       0.466387         183.153         121.022 
        0.47254         179.133         117.589 
       0.478662         177.759         114.339 
       0.484765          172.39         111.274 
       0.490885         169.773          108.38 
       0.497035         167.517         105.636 
       0.503198         163.074          103.01 
       0.509342         160.705          100.47 
       0.515458         158.443         97.9964 
       0.521598         155.979         95.5659 
       0.527764         153.702         93.1814 
       0.533884         151.378          90.875 
           0.54         148.784         88.6429 
       0.546137         147.605         86.4884 
       0.552299         145.009          84.422 
       0.558452         142.439         82.4517 
       0.564573         140.009         80.5678 
       0.570708         137.742         78.7416 
       0.576825         136.035          76.971 
       0.582926          133.58          75.252 
       0.589034         131.637         73.5769 
       0.595184         130.071         71.9367 
       0.601379         128.576         70.3314 
       0.607522         125.697         68.7866 
       0.613639         125.281          67.296 
       0.619772          122.52         65.8502 
       0.625918         121.198         64.4507 
       0.632068         119.864         63.0975 
       0.638161         118.662         61.7988 
         0.6443         117.057         60.5283 
       0.650464         115.769         59.2872 
       0.656582         114.159          58.086 
       0.662703         112.379         56.9145 
       0.668861         110.937         55.7669 
       0.675024         109.719         54.6497 
       0.681124         108.721         53.5755 
       0.687237         106.739         52.5306 
       0.693381         105.438         51.5112 
       0.699536          104.48          50.519 
       0.705665         104.686         49.5583 
       0.711789          101.98          48.624 
       0.717957         101.512         47.7072 
        0.72409         100.035         46.8183 
       0.730186         98.3996         45.9567 
       0.736317         98.1178         45.1117 
       0.742472         97.1765         44.2847 
       0.748622         96.1798         43.4791 
        0.75476         95.2091         42.6957 
       0.760888         93.8843         41.9333 
       0.767043         93.1462         41.1871 
       0.773185         92.0909         40.4612 
       0.779291         91.1674         39.7574 
       0.785407         90.4936         39.0697 
       0.791564         89.5508         38.3942 
       0.797719         88.1586         37.7352 
       0.803834         87.8009          37.096 
       0.809972         86.4098         36.4693 
       0.816124          86.002         35.8559 
       0.822261         85.2693         35.2583 
       0.828378          84.536         34.6762 
       0.834502         83.8073         34.1068 
       0.840667          82.915         33.5467 
       0.846816         81.9158         33.0009 
       0.852925         81.2958         32.4707 
       0.859047         80.2716         31.9513 
       0.865192         79.8957         31.4417 
       0.871341         79.3287          30.943 
       0.877463         78.1483         30.4575 
       0.883569         77.6841         29.9838 
       0.889708         77.2062         29.5178 
       0.895864         76.5646         29.0607 
       0.902008         75.8617         28.6143 
       0.908149         75.3828         28.1777 
       0.914301          74.622         27.7495 
       0.920448         74.0872         27.3308 
       0.926574         73.4201         26.9222 
       0.932687         73.1615         26.5229 
       0.938823         72.0002         26.1304 
       0.944975         71.6093          25.745 
       0.951105         71.0223         25.3688 
       0.957225         70.1635         25.0009 
       0.963368         70.0091         24.6391 
       0.969511         69.5792         24.2845 
       0.975621         69.1472         23.9388 
       0.981748         68.4178          23.599 
       0.987916         67.9009         23.2638 
        0.99406         67.4939         22.9363 
        1.00019         66.7846         22.6159 
        1.00632         66.4755          22.302 
        1.01246         65.9137         21.9936 
        1.01859         65.0423         21.6915 
        1.02471         65.2102         21.3956 
        1.03085           64.49         21.1042 
        1.03698         64.0136          20.819 
        1.04314         63.4217         20.5378 
        1.04929          63.065         20.2625 
        1.05541         62.4431         19.9935 
        1.06154         62.3878         19.7286 
        1.06769         61.8428         19.4683 
        1.07382         61.5618         19.2135 
        1.07993         61.1949         18.9639 
        1.08607         60.6329         18.7178 
        1.09222          60.334         18.4758 
        1.09836         59.8928         18.2384 
        1.10449         59.4901         18.0056 
        1.11063         58.9685         17.7765 
        1.11677         58.6337         17.5516 
         1.1229         58.2368          17.331 
        1.12903         57.4902          17.114 
        1.13518         57.7396         16.9005 
        1.14131         57.3405         16.6909 
        1.14745         56.5893          16.485 
        1.15359         56.5162         16.2825 
        1.15973         55.9517         16.0834 
        1.16584         55.6404         15.8885 
        1.17197         55.3345         15.6967 
        1.17811         55.0788         15.5074 
        1.18424         54.5147         15.3218 
        1.19038         54.2795         15.1387 
        1.19652         54.1087         14.9587 
        1.20267         53.6464         14.7817 
        1.20881          53.355         14.6075 
        1.21495         52.9079         14.4365 
        1.22108         52.6619         14.2683 
         1.2272         52.1466         14.1031 
        1.23334         51.9689         13.9402 
        1.23949         51.8883         13.7795 
        1.24562         51.4121         13.6218 
        1.25174         51.2237         13.4669 
        1.25789         50.9495         13.3139 
        1.26402         50.5205         13.1635 
        1.27014         50.0753         13.0159 
        1.27628         49.9405         12.8701 
        1.28244         49.5742         12.7263 
        1.28858         49.3984         12.5848 
        1.29471         49.2083         12.4459 
        1.30084         48.9149         12.3092 
        1.30697         48.5506         12.1744 
        1.31312         48.1886         12.0414 
        1.31925         48.1045         11.9108 
        1.32537         47.8513         11.7823 
        1.33151         47.3952         11.6553 
        1.33765         47.3329         11.5302 
        1.34378          47.021         11.4072 
        1.34992         46.6402         11.2859 
        1.35606         46.3953         11.1662 
         1.3622         46.1334         11.0484 
        1.36833         45.9102         10.9326 
        1.37445         45.8063         10.8185 
        1.38059         45.4938         10.7058 
        1.38675         45.1647         10.5943 
        1.39288         45.0361         10.4849 
        1.39901         44.7267         10.3772 
        1.40515          44.506         10.2707 
         1.4113         44.3584         10.1657 
        1.41742         44.0327         10.0626 
        1.42355          43.796         9.96078 
         1.4297         43.5831         9.86005 
        1.43585         43.4366         9.76077 
        1.44198         43.1263         9.66324 
        1.44809         42.9794         9.56724 
        1.45423         42.7802         9.47219 
        1.46036         42.5886         9.37862 
        1.46649         42.3018         9.28628 
        1.47263         42.0722         9.19512 
        1.47877         41.9557         9.10524 
        1.48491         41.8438         9.01641 
        1.49104         41.4961         8.92897 
        1.49718         41.0989         8.84263 
        1.50333         41.0673          8.7573 
        1.50947         40.9085         8.67328 
         1.5156         40.6325         8.59049 
        1.52172         40.4455         8.50878 
        1.52787         40.4081         8.42799 
          1.534         40.1027         8.34834 
        1.54013         39.8615         8.26982 
        1.54627         39.7505         8.19217 
        1.55241         39.4651          8.1155 
        1.55855          39.291         8.03994 
        1.56467         38.9622         7.96555 
         1.5708         39.0156          7.8919 
        1.57695         38.6866         7.81907 
        1.58308         38.5984         7.74734 
        1.58922          38.522         7.67646 
        1.59535         38.2638          7.6065 
         1.6015         37.9714         7.53732 
        1.60764         37.8317         7.46903 
        1.61376         37.6638         7.40178 
        1.61989         37.3743         7.33532 
        1.62604         37.3338         7.26952 
        1.63218          37.174         7.20458 
        1.63831         36.9747         7.14058 
        1.64444         36.8152         7.07735 
        1.65059         36.5478         7.01473 
        1.65673          36.374         6.95294 
        1.66285         36.2522         6.89208 
        1.66898         36.0467         6.83192 
        1.67512         35.9222         6.77238 
        1.68127           35.69         6.71349 
         1.6874         35.5996         6.65543 
        1.69353         35.3957         6.59811 
        1.69967         35.2336         6.54132 
        1.70581         35.1553         6.48523 
        1.71193         34.9736         6.43002 
        1.71806         34.7251         6.37533 
        1.72421         34.5598         6.32117 
        1.73035         34.3927         6.26771 
        1.73649         34.2431         6.21488 
        1.74262         34.1097          6.1627 
        1.74876         34.0919         6.11109 
        1.75489         33.8425         6.06018 
        1.76101         33.6599         6.00987 
        1.76715         33.5414         5.96007 
        1.77329         33.4035         5.91077 
        1.77943         33.2651         5.86201 
        1.78557          33.077         5.81387 
        1.79171         32.9274         5.76627 
        1.79785         32.7681          5.7192 
        1.80399          32.668         5.67267 
        1.81012         32.5533         5.62671 
        1.81625         32.3364         5.58129 
        1.82239         32.2584         5.53631 
        1.82853         32.0145         5.49184 
        1.83466         31.9416         5.44791 
        1.84078         31.6954         5.40451 
        1.84692         31.6292         5.36151 
        1.85306         31.4668         5.31893 
         1.8592          31.332         5.27688 
        1.86533         31.1741         5.23531 
        1.87147         31.0798         5.19415 
        1.87761         31.0116         5.15341 
        1.88375         30.8494         5.11315 
        1.88988         30.7475         5.07338 
        1.89601         30.5396           5.034 
        1.90215         30.4649         4.99501 
        1.90829         30.3967         4.95646 
        1.91442         30.1696         4.91832 
        1.92056         30.1105         4.88061 
         1.9267         29.8962         4.84326 
        1.93284         29.7408         4.80628 
        1.93897         29.6961         4.76976 
        1.94509         29.5319         4.73369 
        1.95123         29.4143         4.69792 
        1.95737         29.2544         4.66248 
        1.96349         29.1575         4.62751 
        1.96964         29.0016         4.59279 
        1.97578         28.9417         4.55842 
        1.98192         28.7592         4.52447 
        1.98805         28.6845         4.49087 
        1.99419         28.5221          4.4576 
        2.00033         28.3692         4.42466 
        2.00647          28.288         4.39206 
         2.0126         28.1641         4.35984 
        2.01874         28.0806          4.3279 
        2.02488         28.0222         4.29626 
        2.03101         27.8023         4.26499 
        2.03714         27.7044         4.23406 
        2.04328         27.5646         4.20341 
        2.04941         27.4982         4.17308 
        2.05554           27.37         4.14308 
        2.06167         27.2546         4.11333 
        2.06781         27.1417         4.08388 
        2.07396           27.05         4.05467 
        2.08009         26.9697          4.0258 
        2.08622         26.7944         3.99724 
        2.09237         26.6909         3.96891 
        2.09851         26.5942         3.94084 
        2.10464         26.5382          3.9131 
        2.11077         26.3346         3.88566 
        2.11691         26.2728         3.85842 
        2.12305         26.1774         3.83144 
        2.12918         26.1341         3.80478 
        2.13531         25.9803         3.77838 
        2.14145         25.9311         3.75217 
         2.1476         25.7455         3.72618 
        2.15372         25.6374         3.70056 
        2.15985         25.5214         3.67516 
        2.16599         25.4792         3.64993 
        2.17213         25.3974         3.62496 
        2.17827         25.1849         3.60024 
         2.1844         25.0907         3.57576 
        2.19054         25.0056         3.55151 
        2.19666         24.9272         3.52752 
         2.2028         24.8445         3.50373 
        2.20893         24.7573         3.48014 
        2.21508         24.6433         3.45675 
        2.22122          24.465         3.43357 
        2.22736         24.4694         3.41065 
        2.23349          24.333         3.38794 
        2.23962         24.2276         3.36543 
        2.24577         24.1073         3.34311 
         2.2519          24.064         3.32102 
        2.25802         23.9294         3.29916 
        2.26417          23.877         3.27744 
        2.27031         23.7788          3.2559 
        2.27644         23.6655         3.23462 
        2.28257         23.5605         3.21353 
        2.28872         23.4463         3.19258 
        2.29486         23.4085         3.17183 
        2.30099         23.2885         3.15131 
        2.30712         23.2361         3.13095 
        2.31326         23.1625         3.11075 
         2.3194         23.0324         3.09073 
        2.32553         22.9248         3.07093 
        2.33166         22.8109         3.05131 
         2.3378         22.7287         3.03183 
        2.34394         22.6565         3.01252 
        2.35007         22.5617         2.99341 
        2.35619         22.4465         2.97448 
        2.36233         22.4219         2.95567 
        2.36848         22.2623         2.93699 
        2.37462         22.1906         2.91851 
        2.38075         22.1223         2.90021 
        2.38689         22.0684         2.88205 
        2.39303         21.9277         2.86405 
        2.39916         21.8439         2.84622 
        2.40529         21.7549         2.82855 
        2.41143         21.6934         2.81101 
        2.41757         21.6104         2.79361 
         2.4237         21.5044          2.7764 
        2.42983         21.4248         2.75933 
        2.43598           21.37         2.74236 
        2.44211         21.2601         2.72556 
        2.44823         21.1561         2.70895 
        2.45437         21.0963         2.69242 
        2.46052         21.0324         2.67602 
        2.46665         20.9626         2.65978 
        2.47279         20.8403         2.64369 
        2.47892         20.7911         2.62772 
        2.48507         20.7046         2.61186 
         2.4912         20.6562         2.59617 
