# k  (h/Mpc)    P(k)  (Mpc/h)^3    P_linear(k)  (Mpc/h)^3
     0.00783031         15109.6         15193.3 
       0.013688         19493.5         20087.5 
       0.019231         21291.2         21719.4 
      0.0249154           21358         21479.5 
      0.0312784         19552.1         19985.4 
      0.0375637         17500.8           18089 
      0.0433917         16058.9         16426.1 
      0.0492413         14527.7         15044.2 
      0.0555754         13462.3         13892.4 
      0.0619321         12146.2         12996.3 
       0.067871         11612.8         12264.9 
      0.0738098         11003.9         11531.2 
      0.0800417         10192.6         10701.2 
      0.0862327         9310.22         9820.29 
      0.0921407         8545.78         8975.13 
      0.0982031          7897.4         8166.79 
       0.104506         7123.17         7444.84 
       0.110769         6616.02         6872.37 
       0.116806         6340.52         6449.24 
       0.122832         5968.27         6121.49 
       0.129052         5662.63         5838.18 
       0.135211         5521.05            5570 
       0.141259          5157.6         5290.42 
       0.147318         4822.46         4985.08 
       0.153489         4589.72         4656.68 
       0.159709          4441.4         4328.48 
       0.165845         4072.45         4029.66 
       0.171974         3961.99         3772.03 
       0.178125         3856.83         3560.43 
       0.184229         3560.39         3392.77 
        0.19034         3524.22         3255.67 
       0.196428         3442.91         3135.09 
       0.202534         3270.05         3016.73 
       0.208729         3200.96         2890.15 
       0.214876         3081.95         2755.37 
       0.220989         2958.98         2615.41 
       0.227147         2883.12         2475.36 
        0.23329         2776.07         2344.18 
       0.239377         2768.01         2228.24 
       0.245482         2656.26         2128.34 
       0.251667         2561.59         2042.92 
       0.257832          2521.8         1969.85 
       0.263955         2429.67         1904.19 
       0.270079         2389.39         1840.73 
        0.27624         2291.18         1775.73 
       0.282372         2278.83         1708.62 
        0.28843         2227.12         1640.68 
       0.294538         2146.69         1572.52 
       0.300721         2120.02         1506.49 
        0.30691         2062.33         1445.44 
       0.313033         2001.46         1391.22 
       0.319153         1987.59         1343.03 
       0.325316          1963.3         1299.59 
        0.33145         1926.04         1259.77 
       0.337538         1875.94         1222.04 
       0.343633         1839.27         1184.69 
       0.349808          1817.2         1146.73 
       0.355968         1774.56         1108.65 
       0.362074          1741.5          1071.3 
       0.368217         1734.74         1034.88 
       0.374374         1704.87         1000.26 
       0.380519         1658.03         968.141 
       0.386598         1660.27         938.785 
       0.392688         1614.96         911.628 
        0.39888          1596.5         885.803 
       0.405048         1565.16         861.281 
       0.411186         1551.59         837.611 
       0.417313         1554.03         814.357 
       0.423458         1510.85         791.302 
       0.429607         1475.15         768.639 
       0.435692         1466.71         746.786 
       0.441815         1440.33         725.605 
       0.447964         1433.98         705.378 
       0.454126         1414.74         686.214 
       0.460267         1399.65          668.16 
       0.466387         1379.89         651.116 
        0.47254         1353.81         634.732 
       0.478662         1343.83         618.977 
       0.484765         1332.69          603.68 
       0.490885         1316.96         588.702 
       0.497035         1295.64         573.978 
       0.503198         1297.13         559.586 
       0.509342         1271.55          545.68 
       0.515458         1248.79         532.351 
       0.521598         1255.37         519.506 
       0.527764          1223.6         507.131 
       0.533884         1212.07         495.354 
           0.54         1204.22         484.044 
       0.546137         1192.69         473.082 
       0.552299          1180.5         462.395 
       0.558452         1173.96             452 
       0.564573         1168.57         441.926 
       0.570708         1153.66           432.1 
       0.576825         1133.92         422.575 
       0.582926         1130.47         413.354 
       0.589034         1121.72         404.407 
       0.595184          1106.6         395.697 
       0.601379         1090.42         387.229 
       0.607522         1081.29         379.111 
       0.613639         1077.69         371.277 
       0.619772         1062.96         363.647 
       0.625918         1058.81         356.203 
       0.632068         1047.51         348.951 
       0.638161         1032.08         341.956 
         0.6443         1024.43         335.096 
       0.650464         1019.36         328.398 
       0.656582         1013.81         321.931 
       0.662703          997.16          315.64 
       0.668861         988.372         309.487 
       0.675024         982.497         303.502 
       0.681124         967.705         297.745 
       0.687237         968.726         292.134 
       0.693381          949.02         286.646 
       0.699536         952.592         281.291 
       0.705665         939.919         276.094 
       0.711789         935.775         271.029 
       0.717957         926.588         266.052 
        0.72409         918.644         261.225 
       0.730186         914.012         256.548 
       0.736317         905.454         251.961 
       0.742472         892.718         247.473 
       0.748622         890.616         243.103 
        0.75476         879.334         238.851 
       0.760888         874.588         234.711 
       0.767043         871.334         230.654 
       0.773185         865.639         226.703 
       0.779291         855.448         222.866 
       0.785407         848.262         219.113 
       0.791564         842.342         215.421 
       0.797719         830.193         211.816 
       0.803834         829.349         208.317 
       0.809972          820.34         204.885 
       0.816124         816.808         201.523 
       0.822261         810.001         198.247 
       0.828378          807.41         195.055 
       0.834502         793.608         191.932 
       0.840667         792.808         188.858 
       0.846816         787.998         185.861 
       0.852925         779.858         182.948 
       0.859047         774.063         180.093 
       0.865192         768.819          177.29 
       0.871341         763.275         174.545 
       0.877463         761.865         171.871 
       0.883569         753.781         169.261 
       0.889708         744.196         166.691 
       0.895864         738.897         164.169 
       0.902008         735.875         161.704 
       0.908149          728.87         159.292 
       0.914301         725.731         156.926 
       0.920448         719.491          154.61 
       0.926574         714.126          152.35 
       0.932687         709.112          150.14 
       0.938823         702.626         147.966 
       0.944975         698.247         145.831 
       0.951105         694.225         143.746 
       0.957225         685.036         141.705 
       0.963368         685.037         139.698 
       0.969511         677.704         137.729 
       0.975621         674.133          135.81 
       0.981748          668.14         133.922 
       0.987916         665.316         132.059 
        0.99406         659.425         130.238 
        1.00019         653.841         128.456 
        1.00632         648.213         126.709 
        1.01246         644.949         124.992 
        1.01859         640.219         123.309 
        1.02471         638.159          121.66 
        1.03085         630.291         120.036 
        1.03698         629.058         118.445 
        1.04314         621.618         116.876 
        1.04929         619.494          115.34 
        1.05541         611.622         113.837 
        1.06154         609.398         112.358 
        1.06769         605.563         110.903 
        1.07382         600.297         109.479 
        1.07993         599.314         108.083 
        1.08607         593.783         106.706 
        1.09222         590.033         105.352 
        1.09836         583.349         104.023 
        1.10449         577.884         102.718 
        1.11063         575.843         101.435 
        1.11677         571.133         100.174 
         1.1229         567.673         98.9374 
        1.12903         561.115         97.7204 
        1.13518         561.114         96.5229 
        1.14131         556.499         95.3463 
        1.14745         550.907         94.1902 
        1.15359         548.244         93.0531 
        1.15973         545.073         91.9344 
        1.16584          541.61         90.8393 
        1.17197         537.536         89.7606 
        1.17811         531.151         88.6962 
        1.18424         528.863         87.6522 
        1.19038         525.963         86.6222 
        1.19652         521.412         85.6091 
        1.20267          518.18         84.6124 
        1.20881         514.046         83.6319 
        1.21495         509.256         82.6685 
        1.22108          509.32         81.7204 
         1.2272         503.287         80.7896 
        1.23334          501.25         79.8712 
        1.23949         496.197          78.965 
        1.24562          494.62         78.0755 
        1.25174         490.731          77.201 
        1.25789         488.086         76.3374 
        1.26402         484.374         75.4886 
        1.27014         481.522         74.6548 
        1.27628         476.909         73.8312 
        1.28244          474.26         73.0185 
        1.28858         470.279         72.2192 
        1.29471         468.218         71.4337 
        1.30084         464.991         70.6606 
        1.30697         461.175         69.8979 
        1.31312         458.657         69.1454 
        1.31925         455.204         68.4064 
        1.32537           453.2          67.679 
        1.33151         448.665         66.9596 
        1.33765         445.271         66.2512 
        1.34378         443.892         65.5544 
        1.34992         439.401         64.8673 
        1.35606         436.735         64.1885 
         1.3622         434.517         63.5207 
        1.36833         432.531         62.8641 
        1.37445         428.955         62.2172 
        1.38059         424.992         61.5774 
        1.38675         422.302         60.9451 
        1.39288         419.554         60.3243 
        1.39901         417.297         59.7124 
        1.40515         415.076         59.1077 
         1.4113         412.458         58.5117 
        1.41742         408.998         57.9261 
        1.42355         407.354         57.3475 
         1.4297         405.064         56.7752 
        1.43585         400.975         56.2109 
        1.44198         399.062         55.6564 
        1.44809         396.068         55.1105 
        1.45423         392.429           54.57 
        1.46036         391.104         54.0377 
        1.46649         388.482         53.5124 
        1.47263         385.325         52.9936 
        1.47877         384.192          52.482 
        1.48491           379.9         51.9763 
        1.49104         377.734         51.4785 
        1.49718         374.875         50.9867 
        1.50333         373.021         50.5007 
        1.50947         370.811          50.022 
         1.5156         367.124         49.5502 
        1.52172          365.64         49.0845 
        1.52787         362.992         48.6239 
          1.534          361.64         48.1698 
        1.54013         358.694          47.722 
        1.54627         355.871          47.279 
        1.55241          354.88         46.8417 
        1.55855         351.215         46.4105 
        1.56467         349.495          45.986 
         1.5708         347.374         45.5656 
        1.57695         344.697         45.1498 
        1.58308         343.156         44.7402 
        1.58922         340.535         44.3354 
        1.59535         337.667         43.9359 
         1.6015         336.618         43.5406 
        1.60764         333.951         43.1505 
        1.61376         331.778         42.7662 
        1.61989         329.872         42.3864 
        1.62604         328.014         42.0103 
        1.63218         325.226          41.639 
        1.63831         323.838          41.273 
        1.64444          321.82         40.9114 
        1.65059         319.197         40.5532 
        1.65673         317.282         40.1998 
        1.66285          315.54         39.8515 
        1.66898         313.122         39.5073 
        1.67512         310.499         39.1665 
        1.68127         308.982         38.8294 
         1.6874         307.392         38.4971 
        1.69353         306.936         38.1688 
        1.69967           303.7         37.8436 
        1.70581         301.188         37.5224 
        1.71193         299.553         37.2061 
        1.71806         298.319         36.8928 
        1.72421         296.176         36.5825 
        1.73035         294.562         36.2761 
        1.73649         292.633         35.9733 
        1.74262         290.507         35.6742 
        1.74876          288.42         35.3783 
        1.75489         286.941         35.0864 
        1.76101         285.084         34.7979 
        1.76715         283.086         34.5122 
        1.77329         281.316         34.2294 
        1.77943           279.3         33.9497 
        1.78557         278.143         33.6735 
        1.79171         276.218         33.4004 
        1.79785          273.21         33.1302 
        1.80399         272.999         32.8631 
        1.81012          271.03         32.5993 
        1.81625          269.69         32.3385 
        1.82239         267.532         32.0801 
        1.82853         265.796         31.8248 
        1.83466         264.142         31.5725 
        1.84078         262.333         31.3231 
        1.84692         261.008         31.0761 
        1.85306         259.311         30.8315 
         1.8592         258.049         30.5899 
        1.86533         256.217          30.351 
        1.87147         255.281         30.1144 
        1.87761         253.246         29.8802 
        1.88375         251.443         29.6488 
        1.88988         250.485           29.42 
        1.89601         248.311         29.1936 
        1.90215         247.223         28.9694 
        1.90829         245.125         28.7477 
        1.91442         243.997         28.5283 
        1.92056         242.483         28.3113 
         1.9267         241.738         28.0965 
        1.93284          240.07         27.8837 
        1.93897         238.082         27.6735 
        1.94509         236.476          27.466 
        1.95123         235.242           27.26 
        1.95737         233.937         27.0561 
        1.96349           232.4         26.8547 
        1.96964         231.277         26.6548 
        1.97578         230.054         26.4569 
        1.98192         228.899         26.2614 
        1.98805         227.308         26.0678 
        1.99419         225.947         25.8762 
        2.00033         225.101         25.6865 
        2.00647         223.115         25.4986 
         2.0126         221.942          25.313 
        2.01874         220.581          25.129 
        2.02488         218.937         24.9466 
        2.03101         217.575         24.7664 
        2.03714         216.852         24.5881 
        2.04328         215.648         24.4114 
        2.04941         214.182         24.2366 
        2.05554         213.301         24.0636 
        2.06167         211.408          23.892 
        2.06781         210.489         23.7222 
        2.07396         208.673         23.5537 
        2.08009         207.941         23.3871 
        2.08622         206.792         23.2224 
        2.09237         205.306          23.059 
        2.09851         204.327          22.897 
        2.10464         203.261         22.7369 
        2.11077          201.96         22.5786 
        2.11691         200.668         22.4214 
        2.12305         199.404         22.2657 
        2.12918         198.682         22.1118 
        2.13531         197.098         21.9594 
        2.14145         195.899         21.8081 
         2.1476         194.947          21.658 
        2.15372         193.935         21.5101 
        2.15985         192.927         21.3635 
        2.16599         191.646         21.2177 
        2.17213         190.359         21.0735 
        2.17827         189.802         20.9307 
         2.1844         188.449         20.7893 
        2.19054         186.947         20.6492 
        2.19666         186.029         20.5106 
         2.2028         185.348         20.3732 
        2.20893         184.337         20.2369 
        2.21508         182.987         20.1017 
        2.22122         182.056         19.9677 
        2.22736         181.213         19.8352 
        2.23349         179.893          19.704 
        2.23962         178.895         19.5739 
        2.24577         177.664         19.4448 
         2.2519         176.815         19.3171 
        2.25802         175.498         19.1908 
        2.26417         174.925         19.0652 
        2.27031         174.064         18.9406 
        2.27644         172.937         18.8175 
        2.28257         172.208         18.6955 
        2.28872         170.941         18.5744 
        2.29486         170.008         18.4544 
        2.30099          168.86         18.3356 
        2.30712          168.36         18.2179 
        2.31326         167.195          18.101 
         2.3194         166.432         17.9852 
        2.32553           165.4         17.8706 
        2.33166         164.527         17.7571 
         2.3378         163.401         17.6443 
        2.34394         162.633         17.5326 
        2.35007         161.635         17.4219 
        2.35619         160.695         17.3124 
        2.36233         160.237         17.2035 
        2.36848         159.132         17.0954 
        2.37462         158.198         16.9884 
        2.38075         157.254         16.8824 
        2.38689         156.141         16.7772 
        2.39303         155.937          16.673 
        2.39916         154.476         16.5698 
        2.40529         153.924         16.4674 
        2.41143          153.07         16.3658 
        2.41757         151.816         16.2651 
         2.4237         151.505         16.1653 
        2.42983         150.263         16.0665 
        2.43598         149.341         15.9682 
        2.44211         148.909         15.8708 
        2.44823         148.187         15.7746 
        2.45437         147.483         15.6788 
        2.46052         146.247         15.5838 
        2.46665         145.624         15.4897 
        2.47279         144.776         15.3964 
        2.47892         144.169         15.3038 
        2.48507         143.558          15.212 
         2.4912         142.475          15.121 
