# k  (h/Mpc)    Pcb(k)  (Mpc/h)^3    Pcb_linear(k)  (Mpc/h)^3
     0.00783031         15538.4         15762.9 
       0.013688         19904.1         19721.2 
       0.019231         20244.1         20219.8 
      0.0249154         18476.6         18902.3 
      0.0312784         16283.2         16503.5 
      0.0375637         14052.4         14086.2 
      0.0433917         11974.6         12227.5 
      0.0492413         10742.1         10844.4 
      0.0555754         9484.56         9819.16 
      0.0619321         9093.82         9107.79 
       0.067871         8277.62         8556.67 
      0.0738098         7721.49         7988.45 
      0.0800417         6976.56         7310.91 
      0.0862327         6357.51         6567.99 
      0.0921407         5787.98          5853.7 
      0.0982031         5122.17         5186.63 
       0.104506         4737.81         4619.39 
       0.110769          4328.2         4202.79 
       0.116806         4044.82         3925.11 
       0.122832         3849.73         3732.95 
       0.129052         3594.71          3576.8 
       0.135211         3439.16         3421.29 
       0.141259         3314.44          3241.1 
       0.147318         3135.11         3027.24 
       0.153489          2873.7         2787.47 
       0.159709         2705.12         2546.71 
       0.165845         2582.36         2332.96 
       0.171974         2421.36          2157.9 
       0.178125          2294.1         2024.82 
       0.184229         2189.14         1929.24 
        0.19034         2075.76         1857.84 
       0.196428         2040.98         1796.56 
       0.202534         1969.91         1732.43 
       0.208729         1886.39         1656.86 
       0.214876         1811.08         1570.18 
       0.220989         1748.21         1476.76 
       0.227147         1670.65         1382.81 
        0.23329         1600.97         1296.66 
       0.239377         1572.92         1223.76 
       0.245482         1474.32         1164.67 
       0.251667         1465.97         1117.61 
       0.257832         1408.59         1079.64 
       0.263955         1364.01         1045.98 
       0.270079         1318.44         1012.16 
        0.27624          1304.6         975.284 
       0.282372         1250.41         935.039 
        0.28843         1242.18         893.017 
       0.294538         1180.61         850.517 
       0.300721         1173.25         809.888 
        0.30691         1127.13         773.431 
       0.313033         1104.75          742.38 
       0.319153         1085.66         715.999 
       0.325316         1050.35         693.055 
        0.33145         1027.22         672.265 
       0.337538         1009.25          652.25 
       0.343633         986.803         631.765 
       0.349808         953.929         610.227 
       0.355968         947.307         588.074 
       0.362074         937.682         566.162 
       0.368217           908.4         544.898 
       0.374374         874.335         525.035 
       0.380519         875.312         507.068 
       0.386598         850.928         491.073 
       0.392688         848.089         476.606 
        0.39888         823.197         462.987 
       0.405048         812.814         450.002 
       0.411186         801.303         437.297 
       0.417313         784.497         424.567 
       0.423458         770.986         411.759 
       0.429607         760.867         399.073 
       0.435692         744.924         386.835 
       0.441815         738.654         375.073 
       0.447964         723.215         363.996 
       0.454126         715.984         353.649 
       0.460267         698.827         344.033 
       0.466387         690.669         335.036 
        0.47254         685.293         326.395 
       0.478662         678.998          318.04 
       0.484765         658.874         309.867 
       0.490885         654.707         301.806 
       0.497035         641.098          293.83 
       0.503198         636.936         286.023 
       0.509342         630.429         278.506 
       0.515458         626.442         271.351 
       0.521598         610.782         264.503 
       0.527764         599.895         257.954 
       0.533884         598.084          251.76 
           0.54         591.546         245.832 
       0.546137         587.067         240.083 
       0.552299         578.356         234.458 
       0.558452         574.324         228.968 
       0.564573         566.681         223.637 
       0.570708         560.242         218.434 
       0.576825         545.193         213.393 
       0.582926         547.148         208.523 
       0.589034          541.78         203.813 
       0.595184         536.974          199.25 
       0.601379          529.11         194.832 
       0.607522         521.702         190.608 
       0.613639         521.598         186.535 
       0.619772         510.228         182.564 
       0.625918         507.578         178.686 
       0.632068         500.527         174.906 
       0.638161         498.676         171.261 
         0.6443         489.879         167.689 
       0.650464         487.628         164.205 
       0.656582         483.841         160.846 
       0.662703         481.964         157.583 
       0.668861         473.722         154.397 
       0.675024         469.938         151.304 
       0.681124         466.493         148.333 
       0.687237         462.535         145.441 
       0.693381         456.303         142.615 
       0.699536         449.543         139.859 
       0.705665         448.763         137.184 
       0.711789         446.224         134.577 
       0.717957         442.118         132.017 
        0.72409         439.457         129.536 
       0.730186         433.215         127.133 
       0.736317         430.269          124.78 
       0.742472         427.958          122.48 
       0.748622         423.261         120.244 
        0.75476         417.508         118.071 
       0.760888         413.445         115.957 
       0.767043         413.965         113.887 
       0.773185         409.384         111.872 
       0.779291         404.562         109.917 
       0.785407         402.355         108.004 
       0.791564         397.561         106.125 
       0.797719         395.403         104.291 
       0.803834         391.228         102.511 
       0.809972         390.271         100.767 
       0.816124         389.182         99.0596 
       0.822261         383.652         97.3973 
       0.828378         381.603         95.7788 
       0.834502         377.389         94.1964 
       0.840667         374.504         92.6401 
       0.846816         372.897         91.1238 
       0.852925          370.09         89.6514 
       0.859047          368.17         88.2088 
       0.865192         363.671         86.7933 
       0.871341         360.755         85.4082 
       0.877463         360.183         84.0596 
       0.883569         357.054         82.7436 
       0.889708         354.198         81.4491 
       0.895864          352.28         80.1792 
       0.902008         349.275         78.9391 
       0.908149         345.867          77.726 
       0.914301         343.241         76.5367 
       0.920448          341.36         75.3735 
       0.926574         336.699         74.2386 
       0.932687         336.818         73.1297 
       0.938823          333.15         72.0396 
       0.944975         332.977         70.9694 
       0.951105         329.308         69.9249 
       0.957225         327.177         68.9033 
       0.963368         323.325         67.8988 
       0.969511         322.223         66.9144 
       0.975621         319.996          65.955 
       0.981748         318.638          65.012 
       0.987916         316.678         64.0816 
        0.99406         311.619          63.173 
        1.00019          310.78         62.2839 
        1.00632         309.322         61.4128 
        1.01246          306.61         60.5572 
        1.01859         307.117         59.7193 
        1.02471         302.138         58.8984 
        1.03085         300.748         58.0902 
        1.03698          299.61          57.299 
        1.04314         296.676         56.5192 
        1.04929         294.192         55.7558 
        1.05541          294.92         55.0097 
        1.06154         289.778         54.2754 
        1.06769         289.212         53.5534 
        1.07382         287.071         52.8471 
        1.07993         285.337         52.1551 
        1.08607          284.44         51.4727 
        1.09222         281.587         50.8019 
        1.09836         279.718         50.1439 
        1.10449          277.24         49.4983 
        1.11063         274.608         48.8635 
        1.11677         274.557         48.2401 
         1.1229         272.409         47.6287 
        1.12903          270.68         47.0273 
        1.13518         268.406         46.4359 
        1.14131         266.779         45.8551 
        1.14745          265.86         45.2845 
        1.15359         263.747         44.7236 
        1.15973         261.917          44.172 
        1.16584         260.028         43.6322 
        1.17197         260.051         43.1006 
        1.17811          256.72         42.5764 
        1.18424         255.125         42.0624 
        1.19038         254.362         41.5555 
        1.19652         252.116         41.0571 
        1.20267         251.446          40.567 
        1.20881         249.462          40.085 
        1.21495         247.657         39.6116 
        1.22108         246.237         39.1459 
         1.2272         244.711         38.6889 
        1.23334         243.412         38.2381 
        1.23949         241.488         37.7935 
        1.24562         240.571         37.3572 
        1.25174         238.897         36.9285 
        1.25789         237.062         36.5052 
        1.26402         235.048         36.0894 
        1.27014         233.771          35.681 
        1.27628          232.53         35.2778 
        1.28244         232.276           34.88 
        1.28858          229.73         34.4889 
        1.29471         228.251         34.1048 
        1.30084         226.906         33.7268 
        1.30697         225.551          33.354 
        1.31312         223.365         32.9863 
        1.31925         222.651         32.6253 
        1.32537         221.852         32.2701 
        1.33151         219.707         31.9189 
        1.33765          218.14         31.5731 
        1.34378         217.466         31.2332 
        1.34992         216.214         30.8981 
        1.35606         215.936         30.5671 
         1.3622         213.624         30.2417 
        1.36833         211.793         29.9217 
        1.37445         211.037         29.6066 
        1.38059         209.206          29.295 
        1.38675         208.444         28.9872 
        1.39288         207.193         28.6851 
        1.39901          206.46         28.3874 
        1.40515         204.605         28.0932 
         1.4113         203.586         27.8034 
        1.41742         202.023         27.5188 
        1.42355         201.123         27.2376 
         1.4297         199.357         26.9595 
        1.43585          198.49         26.6855 
        1.44198         197.521         26.4163 
        1.44809         196.361         26.1513 
        1.45423         195.319          25.889 
        1.46036         194.019         25.6307 
        1.46649         192.599         25.3759 
        1.47263         191.494         25.1244 
        1.47877         190.248         24.8764 
        1.48491         188.624         24.6314 
        1.49104         188.155         24.3902 
        1.49718         186.466          24.152 
        1.50333         185.797         23.9167 
        1.50947         184.657          23.685 
         1.5156         183.133         23.4566 
        1.52172         182.526         23.2313 
        1.52787         180.787         23.0086 
          1.534         180.506          22.789 
        1.54013         179.032         22.5725 
        1.54627         177.986         22.3584 
        1.55241         176.806         22.1471 
        1.55855         175.714         21.9388 
        1.56467         174.558         21.7338 
         1.5708         173.903         21.5308 
        1.57695         172.936         21.3301 
        1.58308         171.902         21.1324 
        1.58922         170.621         20.9372 
        1.59535         169.323         20.7444 
         1.6015         168.769         20.5538 
        1.60764         167.643         20.3657 
        1.61376         166.695         20.1805 
        1.61989         165.853         19.9974 
        1.62604         164.675         19.8162 
        1.63218         163.869         19.6374 
        1.63831         162.662         19.4612 
        1.64444         161.955          19.287 
        1.65059          160.89         19.1146 
        1.65673         159.733         18.9445 
        1.66285         158.939          18.777 
        1.66898         157.892         18.6114 
        1.67512         157.595         18.4475 
        1.68127         155.903         18.2854 
         1.6874         155.114         18.1256 
        1.69353          154.31         17.9679 
        1.69967         153.179         17.8116 
        1.70581         152.527         17.6573 
        1.71193         151.473         17.5054 
        1.71806         150.844          17.355 
        1.72421         149.839          17.206 
        1.73035         149.304         17.0589 
        1.73649         148.346         16.9136 
        1.74262         147.304         16.7701 
        1.74876         146.406         16.6282 
        1.75489         145.653         16.4882 
        1.76101         144.444         16.3499 
        1.76715         144.142          16.213 
        1.77329         143.275         16.0774 
        1.77943         142.428         15.9434 
        1.78557         141.704         15.8111 
        1.79171         140.866         15.6803 
        1.79785         139.929         15.5509 
        1.80399         139.071          15.423 
        1.81012         138.291         15.2967 
        1.81625         137.773         15.1719 
        1.82239         136.826         15.0483 
        1.82853         136.203         14.9262 
        1.83466         135.198         14.8055 
        1.84078          134.65         14.6863 
        1.84692         133.367         14.5682 
        1.85306         133.236         14.4512 
         1.8592         132.244         14.3357 
        1.86533         131.468         14.2216 
        1.87147         130.453         14.1086 
        1.87761         129.812         13.9967 
        1.88375         128.909         13.8862 
        1.88988         128.198          13.777 
        1.89601         127.734         13.6689 
        1.90215         126.833         13.5619 
        1.90829         126.212         13.4561 
        1.91442         125.557         13.3514 
        1.92056         124.768         13.2479 
         1.9267         124.215         13.1454 
        1.93284          123.32         13.0439 
        1.93897         122.695         12.9437 
        1.94509         122.119         12.8448 
        1.95123         121.542         12.7466 
        1.95737         120.826         12.6495 
        1.96349         120.165         12.5535 
        1.96964         119.129         12.4583 
        1.97578         118.437          12.364 
        1.98192          118.09         12.2709 
        1.98805          117.28         12.1788 
        1.99419         116.711         12.0876 
        2.00033         115.958         11.9972 
        2.00647         115.486         11.9079 
         2.0126         114.469         11.8196 
        2.01874         113.966          11.732 
        2.02488         113.634         11.6453 
        2.03101         112.561         11.5596 
        2.03714         112.153         11.4748 
        2.04328         111.412         11.3908 
        2.04941         110.911         11.3077 
        2.05554         110.149         11.2255 
        2.06167         109.819          11.144 
        2.06781         109.023         11.0633 
        2.07396         108.424         10.9832 
        2.08009         107.894         10.9042 
        2.08622         107.151         10.8259 
        2.09237         106.624         10.7483 
        2.09851          106.07         10.6715 
        2.10464         105.647         10.5955 
        2.11077         104.977         10.5203 
        2.11691         104.499         10.4457 
        2.12305         103.685         10.3719 
        2.12918         103.065         10.2989 
        2.13531         102.588         10.2266 
        2.14145          101.91         10.1549 
         2.1476         101.204         10.0837 
        2.15372         100.969         10.0136 
        2.15985         100.464         9.94411 
        2.16599         99.6805         9.87506 
        2.17213         99.2303         9.80674 
        2.17827         98.7348         9.73908 
         2.1844         97.9306         9.67212 
        2.19054         97.6551         9.60576 
        2.19666         97.1684         9.54013 
         2.2028         96.4718         9.47504 
        2.20893         96.1166         9.41054 
        2.21508         95.4837         9.34656 
        2.22122         94.9809         9.28315 
        2.22736          94.488         9.22047 
        2.23349         94.0355         9.15838 
        2.23962         93.4634         9.09683 
        2.24577         92.9856         9.03579 
         2.2519         92.6862         8.97539 
        2.25802         91.7761         8.91565 
        2.26417         91.4824         8.85628 
        2.27031         90.9399          8.7974 
        2.27644         90.4525         8.73922 
        2.28257         89.8706         8.68158 
        2.28872         89.6021         8.62434 
        2.29486         88.9274         8.56763 
        2.30099         88.4818         8.51155 
        2.30712         88.0838         8.45594 
        2.31326         87.4909         8.40074 
         2.3194         87.0192         8.34606 
        2.32553         86.6761         8.29196 
        2.33166          86.182         8.23836 
         2.3378         85.7226         8.18516 
        2.34394         85.2915         8.13241 
        2.35007         84.7659         8.08021 
        2.35619         84.4553         8.02852 
        2.36233         83.8881         7.97717 
        2.36848         83.3685         7.92615 
        2.37462         83.0202         7.87569 
        2.38075         82.5186         7.82572 
        2.38689         82.1135         7.77614 
        2.39303         81.5102           7.727 
        2.39916         81.2992         7.67834 
        2.40529         80.9457         7.63009 
        2.41143         80.3113         7.58223 
        2.41757          79.995         7.53476 
         2.4237            79.6         7.48778 
        2.42983         79.0469          7.4412 
        2.43598         78.6026          7.3949 
        2.44211            78.5         7.34907 
        2.44823         77.9324         7.30372 
        2.45437         77.2806         7.25864 
        2.46052         76.9564          7.2139 
        2.46665         76.7063         7.16961 
        2.47279         76.1753         7.12572 
        2.47892         75.8551         7.08216 
        2.48507         75.4125         7.03892 
         2.4912         75.0912         6.99612 
