# k  (h/Mpc)    P(k)  (Mpc/h)^3    P_linear(k)  (Mpc/h)^3
     0.00783031          3589.2         3620.36 
       0.013688         4384.03         4454.76 
       0.019231         4444.89         4480.22 
      0.0249154         4101.73          4096.4 
      0.0312784          3478.4         3486.91 
      0.0375637         2896.22         2912.13 
      0.0433917         2497.69          2493.5 
      0.0492413            2192         2198.29 
      0.0555754         1998.76         1991.48 
      0.0619321         1826.61         1852.81 
       0.067871         1733.93         1741.68 
      0.0738098         1615.53         1619.18 
      0.0800417         1469.14         1467.34 
      0.0862327         1298.27         1300.77 
      0.0921407         1145.34          1144.5 
      0.0982031         1014.55         1004.31 
       0.104506         892.672         891.414 
       0.110769         818.246         813.985 
       0.116806         778.812         765.991 
       0.122832          738.68         733.945 
       0.129052         712.316         705.874 
       0.135211         684.821         673.689 
       0.141259         639.135         633.367 
       0.147318         586.668         585.134 
       0.153489          539.42         532.688 
       0.159709         496.535         482.658 
       0.165845         448.194         440.985 
       0.171974         427.527         409.256 
       0.178125         405.143         386.917 
       0.184229         383.681         371.728 
        0.19034         375.498         360.051 
       0.196428         363.503         348.568 
       0.202534         342.487         334.819 
       0.208729         331.679         317.724 
       0.214876         315.121         298.338 
       0.220989         290.757         278.366 
       0.227147         278.688         259.482 
        0.23329         264.233         243.329 
       0.239377         254.272         230.581 
       0.245482         241.772         220.838 
       0.251667         231.996         213.235 
       0.257832         229.213          206.76 
       0.263955         217.924         200.342 
       0.270079         210.079         193.219 
        0.27624         200.866         185.104 
       0.282372         193.583         176.352 
        0.28843         189.625         167.567 
       0.294538         179.826         159.173 
       0.300721         171.346         151.619 
        0.30691         167.649         145.216 
       0.313033         160.523         139.967 
       0.319153         157.758         135.518 
       0.325316         152.054         131.483 
        0.33145          147.45          127.55 
       0.337538         142.863         123.495 
       0.343633         138.582         119.203 
       0.349808          133.89         114.683 
       0.355968         129.884         110.171 
       0.362074         126.919          105.88 
       0.368217         123.432         101.912 
       0.374374         120.246         98.3469 
       0.380519         115.126         95.1997 
       0.386598         112.427         92.4065 
       0.392688         109.178          89.808 
        0.39888         107.246         87.2621 
       0.405048         104.789         84.7298 
       0.411186          102.48         82.1757 
       0.417313          99.671          79.613 
       0.423458         96.9693         77.0649 
       0.429607         95.0165            74.6 
       0.435692         93.3952         72.3005 
       0.441815         90.1627         70.1455 
       0.447964         87.4541         68.1442 
       0.454126         85.8708         66.2869 
       0.460267         85.1211         64.5405 
       0.466387         82.9167         62.8632 
        0.47254         81.8741          61.215 
       0.478662         79.0401         59.5983 
       0.484765         77.6775         58.0009 
       0.490885         75.6172          56.428 
       0.497035         74.8542         54.8956 
       0.503198         73.0728         53.4244 
       0.509342         71.1554         52.0267 
       0.515458         70.2428         50.7071 
       0.521598         68.5106         49.4532 
       0.527764         67.6613         48.2519 
       0.533884         66.7712         47.1024 
           0.54          65.119         45.9843 
       0.546137         63.3748         44.8888 
       0.552299         62.3051         43.8148 
       0.558452         61.0739          42.768 
       0.564573         60.7296         41.7537 
       0.570708         58.9445         40.7688 
       0.576825         58.3318         39.8229 
       0.582926         57.5121         38.9183 
       0.589034         56.4008         38.0485 
       0.595184         55.6683         37.2042 
       0.601379         54.2236         36.3812 
       0.607522          53.359         35.5885 
       0.613639         52.7834         34.8208 
       0.619772         51.7833         34.0718 
       0.625918         51.0086         33.3413 
       0.632068         50.4466         32.6298 
       0.638161         49.4592          31.944 
         0.6443         48.9263          31.273 
       0.650464         47.7859         30.6198 
       0.656582          47.544         29.9921 
       0.662703         46.9101         29.3844 
       0.668861         45.7679         28.7919 
       0.675024         45.4498         28.2161 
       0.681124         44.9687         27.6617 
       0.687237         44.0555         27.1201 
       0.693381         43.4453         26.5892 
       0.699536         43.1091         26.0707 
       0.705665         42.3796         25.5678 
       0.711789         41.7264         25.0787 
       0.717957         41.0281         24.5995 
        0.72409         40.6294         24.1363 
       0.730186         40.4107         23.6886 
       0.736317         39.6322         23.2503 
       0.742472         39.1631         22.8219 
       0.748622         38.5918         22.4048 
        0.75476         37.8543         21.9989 
       0.760888         37.7961         21.6035 
       0.767043         37.0784          21.216 
       0.773185         36.6897         20.8387 
       0.779291         36.2304         20.4726 
       0.785407         35.7249         20.1149 
       0.791564         35.6582         19.7635 
       0.797719         34.9412         19.4209 
       0.803834         34.7235         19.0888 
       0.809972          34.177         18.7634 
       0.816124         33.8422         18.4451 
       0.822261         33.4384         18.1352 
       0.828378          33.198         17.8334 
       0.834502         32.8225         17.5382 
       0.840667         32.5091         17.2479 
       0.846816         31.9108          16.965 
       0.852925         31.7789         16.6902 
       0.859047         31.5579          16.421 
       0.865192         31.0609         16.1568 
       0.871341         30.6889         15.8983 
       0.877463         30.4005         15.6466 
       0.883569         30.2567         15.4011 
       0.889708         29.8543         15.1596 
       0.895864         29.4952         14.9227 
       0.902008          29.197         14.6914 
       0.908149         28.8922         14.4652 
       0.914301          28.705         14.2434 
       0.920448         28.3758         14.0265 
       0.926574         28.0567          13.815 
       0.932687         27.7788         13.6082 
       0.938823         27.4327         13.4051 
       0.944975          27.235         13.2056 
       0.951105         27.0162         13.0109 
       0.957225         26.8183         12.8205 
       0.963368         26.4721         12.6333 
       0.969511          26.246         12.4499 
       0.975621         26.0356         12.2711 
       0.981748         25.7297         12.0954 
       0.987916         25.5793          11.922 
        0.99406         25.2449         11.7527 
        1.00019         25.1092         11.5871 
        1.00632         24.9082         11.4248 
        1.01246         24.6725         11.2655 
        1.01859         24.4226         11.1094 
        1.02471         24.2157         10.9565 
        1.03085         24.1062          10.806 
        1.03698         23.9236         10.6586 
        1.04314         23.6551         10.5134 
        1.04929         23.3871         10.3712 
        1.05541         23.3085         10.2323 
        1.06154         23.1347         10.0955 
        1.06769         22.8317          9.9611 
        1.07382         22.6681         9.82958 
        1.07993         22.4753         9.70075 
        1.08607         22.3362          9.5737 
        1.09222         22.1362         9.44881 
        1.09836         21.9314         9.32631 
        1.10449         21.8353         9.20614 
        1.11063         21.6535         9.08796 
        1.11677          21.583          8.9719 
         1.1229         21.3474         8.85809 
        1.12903         21.1633         8.74616 
        1.13518         21.0411         8.63608 
        1.14131         20.8915         8.52797 
        1.14745         20.6374         8.42178 
        1.15359         20.4566         8.31739 
        1.15973         20.3462         8.21474 
        1.16584         20.1799         8.11429 
        1.17197         19.9702         8.01539 
        1.17811         19.8899         7.91783 
        1.18424          19.703          7.8222 
        1.19038         19.6389         7.72787 
        1.19652         19.4285         7.63515 
        1.20267          19.352         7.54396 
        1.20881          19.156         7.45428 
        1.21495         19.0507         7.36621 
        1.22108         18.9856         7.27958 
         1.2272         18.8315         7.19456 
        1.23334         18.7127         7.11071 
        1.23949         18.5534           7.028 
        1.24562         18.3675         6.94684 
        1.25174         18.3209         6.86709 
        1.25789         18.2011         6.78835 
        1.26402          18.092           6.711 
        1.27014         17.9888         6.63504 
        1.27628         17.7968         6.56003 
        1.28244         17.7951         6.48605 
        1.28858         17.5924         6.41331 
        1.29471         17.4284         6.34185 
        1.30084         17.3303         6.27155 
        1.30697         17.2636         6.20222 
        1.31312          17.124         6.13384 
        1.31925         17.0329         6.06671 
        1.32537         16.8913         6.00065 
        1.33151         16.7883         5.93535 
        1.33765         16.7402         5.87106 
        1.34378         16.6414         5.80785 
        1.34992         16.5191         5.74553 
        1.35606          16.361           5.684 
         1.3622          16.262         5.62348 
        1.36833         16.2303         5.56399 
        1.37445         16.1184         5.50539 
        1.38059         16.0156         5.44746 
        1.38675         15.9193         5.39023 
        1.39288         15.7922         5.33405 
        1.39901         15.7081          5.2787 
        1.40515         15.6325         5.22401 
         1.4113         15.5339         5.17013 
        1.41742          15.463         5.11721 
        1.42355         15.3336         5.06494 
         1.4297         15.2513         5.01324 
        1.43585         15.1768         4.96229 
        1.44198         15.1277         4.91224 
        1.44809         15.0196         4.86298 
        1.45423         14.9243         4.81422 
        1.46036          14.832         4.76621 
        1.46649         14.7454         4.71885 
        1.47263         14.6815         4.67209 
        1.47877         14.5936         4.62599 
        1.48491           14.52         4.58044 
        1.49104         14.4276          4.5356 
        1.49718         14.3655         4.49134 
        1.50333          14.299         4.44759 
        1.50947         14.2218         4.40452 
         1.5156          14.142         4.36208 
        1.52172         14.0404         4.32021 
        1.52787         14.0119          4.2788 
          1.534         13.9251         4.23799 
        1.54013          13.858         4.19775 
        1.54627         13.7467         4.15797 
        1.55241         13.6555         4.11869 
        1.55855         13.6126         4.07998 
        1.56467         13.5761         4.04187 
         1.5708         13.5003         4.00415 
        1.57695           13.42         3.96685 
        1.58308         13.3284         3.93011 
        1.58922         13.2756         3.89381 
        1.59535         13.2117         3.85798 
         1.6015         13.0924         3.82256 
        1.60764         13.0547          3.7876 
        1.61376         13.0185         3.75317 
        1.61989         12.9122         3.71915 
        1.62604         12.8852         3.68547 
        1.63218         12.8221         3.65224 
        1.63831         12.7242         3.61949 
        1.64444         12.6545         3.58713 
        1.65059         12.5974         3.55509 
        1.65673          12.564         3.52348 
        1.66285         12.4639         3.49234 
        1.66898         12.4528         3.46157 
        1.67512         12.4039         3.43111 
        1.68127         12.2984         3.40099 
         1.6874         12.2757          3.3713 
        1.69353         12.1534         3.34198 
        1.69967         12.1256         3.31294 
        1.70581         12.0794         3.28426 
        1.71193         12.0047         3.25604 
        1.71806         11.9628         3.22808 
        1.72421          11.902          3.2004 
        1.73035         11.8504         3.17307 
        1.73649         11.8126         3.14607 
        1.74262         11.7036         3.11941 
        1.74876         11.6916         3.09304 
        1.75489         11.6442         3.06703 
        1.76101         11.5506         3.04132 
        1.76715         11.5351         3.01588 
        1.77329          11.462          2.9907 
        1.77943         11.3972         2.96579 
        1.78557         11.3877          2.9412 
        1.79171         11.3064         2.91689 
        1.79785         11.2712         2.89285 
        1.80399         11.2004         2.86909 
        1.81012         11.1655         2.84563 
        1.81625         11.0994         2.82244 
        1.82239         11.0519         2.79947 
        1.82853         10.9941         2.77677 
        1.83466          10.928         2.75434 
        1.84078         10.9055         2.73219 
        1.84692         10.8913         2.71024 
        1.85306         10.8304         2.68851 
         1.8592         10.7808         2.66705 
        1.86533         10.7088         2.64584 
        1.87147         10.6691         2.62483 
        1.87761         10.6315         2.60405 
        1.88375         10.5945         2.58351 
        1.88988         10.5202         2.56322 
        1.89601         10.5011         2.54314 
        1.90215         10.4347         2.52325 
        1.90829         10.3845         2.50359 
        1.91442         10.3393         2.48414 
        1.92056         10.3412         2.46491 
         1.9267         10.2782         2.44586 
        1.93284         10.2576         2.42701 
        1.93897          10.177         2.40839 
        1.94509         10.1387            2.39 
        1.95123         10.1054         2.37176 
        1.95737         10.0745          2.3537 
        1.96349         9.99715         2.33588 
        1.96964         9.96904         2.31818 
        1.97578         9.94613         2.30067 
        1.98192         9.90376         2.28337 
        1.98805         9.85018         2.26624 
        1.99419          9.8169         2.24929 
        2.00033         9.77793         2.23251 
        2.00647         9.73019          2.2159 
         2.0126          9.7038         2.19949 
        2.01874          9.6407         2.18323 
        2.02488         9.60647         2.16711 
        2.03101         9.59402         2.15118 
        2.03714         9.53526         2.13543 
        2.04328         9.48151         2.11982 
        2.04941         9.44555         2.10438 
        2.05554         9.42924         2.08911 
        2.06167         9.40017         2.07396 
        2.06781         9.35283         2.05897 
        2.07396         9.32791          2.0441 
        2.08009         9.24723          2.0294 
        2.08622         9.25774         2.01487 
        2.09237         9.21994         2.00045 
        2.09851         9.15896         1.98616 
        2.10464         9.14721         1.97205 
        2.11077         9.07831         1.95808 
        2.11691         9.07235         1.94422 
        2.12305         9.02242         1.93049 
        2.12918          8.9686         1.91693 
        2.13531         8.95618          1.9035 
        2.14145         8.91416         1.89017 
         2.1476         8.89109         1.87695 
        2.15372         8.85855         1.86392 
        2.15985         8.81749           1.851 
        2.16599         8.79128         1.83817 
        2.17213         8.78255         1.82548 
        2.17827           8.725          1.8129 
         2.1844         8.70168         1.80046 
        2.19054         8.67185         1.78813 
        2.19666          8.6388         1.77593 
         2.2028         8.60697         1.76384 
        2.20893          8.5634         1.75185 
        2.21508         8.54262         1.73996 
        2.22122         8.48752         1.72818 
        2.22736         8.46565         1.71653 
        2.23349         8.43408         1.70499 
        2.23962         8.41575         1.69355 
        2.24577          8.3948         1.68221 
         2.2519         8.36898         1.67098 
        2.25802         8.29058         1.65988 
        2.26417          8.2958         1.64885 
        2.27031         8.26614          1.6379 
        2.27644         8.24181         1.62709 
        2.28257         8.17605         1.61638 
        2.28872         8.16517         1.60574 
        2.29486         8.14027          1.5952 
        2.30099         8.12136         1.58478 
        2.30712         8.06402         1.57444 
        2.31326         8.03927         1.56418 
         2.3194         8.01535         1.55402 
        2.32553         7.99037         1.54397 
        2.33166         7.95369         1.53401 
         2.3378         7.93666         1.52412 
        2.34394         7.90284         1.51432 
        2.35007         7.88079         1.50461 
        2.35619         7.85118         1.49501 
        2.36233         7.80953         1.48546 
        2.36848         7.79048         1.47598 
        2.37462         7.76363         1.46661 
        2.38075         7.73994         1.45732 
        2.38689         7.72474          1.4481 
        2.39303         7.67626         1.43897 
        2.39916         7.66571         1.42993 
        2.40529         7.63866         1.42096 
        2.41143         7.60346         1.41206 
        2.41757         7.56975         1.40324 
         2.4237         7.56054         1.39451 
        2.42983         7.53282         1.38585 
        2.43598         7.50298         1.37724 
        2.44211         7.47844         1.36872 
        2.44823         7.44833          1.3603 
        2.45437         7.42177         1.35192 
        2.46052         7.41667          1.3436 
        2.46665         7.38404         1.33537 
        2.47279         7.35384         1.32721 
        2.47892         7.31902         1.31911 
        2.48507         7.29997         1.31108 
         2.4912         7.28121         1.30312 
