# k  (h/Mpc)    P(k)  (Mpc/h)^3    P_linear(k)  (Mpc/h)^3
     0.00783031         8964.46         9027.82 
       0.013688         10865.3         11103.7 
       0.019231         11031.6         11164.6 
      0.0249154         10226.7         10206.7 
      0.0312784         8634.18         8687.23 
      0.0375637         7171.87         7254.74 
      0.0433917         6203.37         6211.56 
      0.0492413         5434.49         5475.98 
      0.0555754         4962.72         4960.68 
      0.0619321         4498.05         4615.17 
       0.067871         4283.95         4338.28 
      0.0738098         4002.74          4033.1 
      0.0800417         3641.25         3654.86 
      0.0862327         3217.61         3239.93 
      0.0921407         2850.77         2850.68 
      0.0982031         2541.15         2501.47 
       0.104506         2233.76         2220.27 
       0.110769         2054.59         2027.41 
       0.116806         1964.11         1907.86 
       0.122832         1857.71         1828.04 
       0.129052         1783.45         1758.12 
       0.135211         1726.39         1677.95 
       0.141259         1604.32         1577.51 
       0.147318         1473.18         1457.38 
       0.153489         1363.54         1326.75 
       0.159709         1274.51         1202.14 
       0.165845         1150.34         1098.34 
       0.171974         1110.13         1019.32 
       0.178125         1060.22         963.677 
       0.184229         990.829         925.845 
        0.19034         974.423          896.76 
       0.196428         946.231         868.159 
       0.202534         886.155         833.914 
       0.208729         866.881         791.337 
       0.214876         825.186         743.053 
       0.220989         767.301         693.309 
       0.227147         742.304         646.275 
        0.23329         708.401         606.045 
       0.239377         693.356         574.293 
       0.245482         657.168         550.026 
       0.251667         632.473         531.089 
       0.257832         625.821         514.962 
       0.263955         593.287         498.977 
       0.270079         572.698         481.236 
        0.27624         548.608         461.026 
       0.282372          535.15         439.226 
        0.28843         528.865         417.347 
       0.294538         500.538          396.44 
       0.300721         483.884         377.626 
        0.30691         475.003         361.677 
       0.313033         453.481         348.604 
       0.319153         446.207         337.525 
       0.325316         437.163         327.473 
        0.33145         426.563         317.679 
       0.337538         411.298         307.579 
       0.343633         399.003         296.888 
       0.349808          388.26          285.63 
       0.355968         380.296         274.394 
       0.362074         368.131         263.707 
       0.368217         364.503         253.824 
       0.374374         356.342         244.944 
       0.380519         341.785         237.106 
       0.386598         337.349         230.149 
       0.392688         328.855         223.677 
        0.39888         320.825         217.336 
       0.405048         314.483         211.029 
       0.411186         312.425         204.668 
       0.417313         306.941         198.285 
       0.423458         298.417         191.939 
       0.429607         290.601           185.8 
       0.435692         285.806         180.072 
       0.441815         280.372         174.705 
       0.447964          273.36         169.721 
       0.454126         269.595         165.095 
       0.460267         265.789         160.745 
       0.466387         260.301         156.568 
        0.47254         257.028         152.463 
       0.478662         250.034         148.436 
       0.484765         246.963         144.458 
       0.490885         243.564          140.54 
       0.497035         239.819         136.724 
       0.503198         237.877         133.059 
       0.509342         231.618         129.578 
       0.515458         228.442         126.292 
       0.521598         223.549         123.169 
       0.527764         221.066         120.177 
       0.533884         220.083         117.314 
           0.54         215.477         114.529 
       0.546137         210.675           111.8 
       0.552299         209.122         109.126 
       0.558452         205.509         106.518 
       0.564573         204.252         103.992 
       0.570708         199.688         101.539 
       0.576825         196.886         99.1832 
       0.582926         194.895         96.9302 
       0.589034         191.989         94.7638 
       0.595184         190.498          92.661 
       0.601379         186.968         90.6114 
       0.607522         183.238          88.637 
       0.613639         182.114         86.7249 
       0.619772         180.358         84.8596 
       0.625918         178.659         83.0402 
       0.632068         174.787         81.2679 
       0.638161         173.524           79.56 
         0.6443         172.137         77.8887 
       0.650464         168.943         76.2619 
       0.656582         167.835         74.6987 
       0.662703         166.339         73.1851 
       0.668861         163.027         71.7093 
       0.675024         162.895         70.2751 
       0.681124         160.467         68.8944 
       0.687237         158.635         67.5456 
       0.693381          156.82         66.2233 
       0.699536         155.256         64.9319 
       0.705665         153.621         63.6794 
       0.711789         151.768         62.4611 
       0.717957         150.094         61.2676 
        0.72409          148.58          60.114 
       0.730186         148.679         58.9989 
       0.736317         146.272         57.9074 
       0.742472           144.2         56.8403 
       0.748622         142.097         55.8014 
        0.75476         142.633         54.7906 
       0.760888         140.919         53.8057 
       0.767043         138.505         52.8406 
       0.773185         137.193         51.9009 
       0.779291         135.618         50.9892 
       0.785407         134.769         50.0982 
       0.791564         133.703         49.2231 
       0.797719         131.776         48.3698 
       0.803834         131.854         47.5426 
       0.809972         130.666         46.7323 
       0.816124         128.644         45.9395 
       0.822261         127.615         45.1675 
       0.828378         127.359         44.4159 
       0.834502         125.575         43.6808 
       0.840667         125.078         42.9578 
       0.846816         123.648         42.2532 
       0.852925          122.44         41.5688 
       0.859047         121.505         40.8982 
       0.865192         120.724         40.2402 
       0.871341         119.432         39.5963 
       0.877463          118.44         38.9696 
       0.883569         118.362          38.358 
       0.889708         117.201         37.7565 
       0.895864         116.135         37.1665 
       0.902008         114.966         36.5904 
       0.908149         113.594          36.027 
       0.914301         113.494         35.4747 
       0.920448         113.149         34.9345 
       0.926574         111.024         34.4076 
       0.932687             111         33.8928 
       0.938823         110.174         33.3867 
       0.944975         109.088         32.8899 
       0.951105         108.106          32.405 
       0.957225         107.809         31.9308 
       0.963368         106.667         31.4646 
       0.969511          105.98         31.0077 
       0.975621         104.855         30.5624 
       0.981748         104.202         30.1248 
       0.987916         103.548          29.693 
        0.99406         103.149         29.2714 
        1.00019         102.053         28.8589 
        1.00632         101.312         28.4548 
        1.01246         100.772         28.0578 
        1.01859         100.255         27.6691 
        1.02471         99.5263         27.2883 
        1.03085         98.5779         26.9134 
        1.03698         97.9115         26.5464 
        1.04314         97.3373         26.1846 
        1.04929         96.9668         25.8306 
        1.05541         96.2241         25.4845 
        1.06154         95.5407          25.144 
        1.06769         94.8973         24.8092 
        1.07382         94.1639         24.4816 
        1.07993          93.757         24.1607 
        1.08607         93.0346         23.8443 
        1.09222         92.6046         23.5333 
        1.09836         91.7739         23.2281 
        1.10449         91.2775         22.9288 
        1.11063         90.7479         22.6345 
        1.11677         90.1292         22.3454 
         1.1229         89.4001          22.062 
        1.12903         89.0311         21.7832 
        1.13518         88.5131         21.5091 
        1.14131         87.9007         21.2398 
        1.14745         87.5221         20.9753 
        1.15359          86.446         20.7153 
        1.15973         86.3144         20.4597 
        1.16584         85.7543         20.2095 
        1.17197         85.2872         19.9631 
        1.17811         84.5939         19.7202 
        1.18424         84.0219          19.482 
        1.19038         83.8632         19.2471 
        1.19652         83.2787         19.0161 
        1.20267         82.7314          18.789 
        1.20881         82.2029         18.5657 
        1.21495         81.7311         18.3463 
        1.22108         81.4698         18.1305 
         1.2272         80.6642         17.9188 
        1.23334         80.5253         17.7099 
        1.23949         79.9434         17.5039 
        1.24562         79.2958         17.3018 
        1.25174         78.9812         17.1032 
        1.25789         78.6742         16.9071 
        1.26402         78.1692         16.7144 
        1.27014          77.763         16.5252 
        1.27628         77.1269         16.3384 
        1.28244         77.0571         16.1542 
        1.28858         76.3839          15.973 
        1.29471         75.9485          15.795 
        1.30084         75.3369         15.6199 
        1.30697         75.3215         15.4473 
        1.31312         74.7701          15.277 
        1.31925          74.252         15.1098 
        1.32537         73.9305         14.9452 
        1.33151         73.6848         14.7826 
        1.33765         73.1778         14.6225 
        1.34378         72.7663          14.465 
        1.34992         72.5466         14.3098 
        1.35606         72.0175         14.1566 
         1.3622         71.8104         14.0058 
        1.36833         71.2139         13.8577 
        1.37445         70.7306         13.7117 
        1.38059         70.5422         13.5675 
        1.38675         69.8753         13.4249 
        1.39288          69.781          13.285 
        1.39901         69.2037         13.1471 
        1.40515           68.96         13.0109 
         1.4113         68.6726         12.8767 
        1.41742         68.2005         12.7449 
        1.42355         68.0303         12.6147 
         1.4297         67.5648          12.486 
        1.43585         67.2019         12.3591 
        1.44198         66.8237         12.2344 
        1.44809         66.3607         12.1118 
        1.45423         66.2363         11.9903 
        1.46036         65.7604         11.8707 
        1.46649         65.4162         11.7528 
        1.47263         65.1281         11.6363 
        1.47877          64.865         11.5215 
        1.48491         64.4432         11.4081 
        1.49104         64.0042         11.2964 
        1.49718         63.7992         11.1861 
        1.50333         63.4992         11.0772 
        1.50947         63.2601         10.9699 
         1.5156         63.0191         10.8642 
        1.52172         62.4915         10.7599 
        1.52787         62.1495         10.6568 
          1.534         61.8503         10.5551 
        1.54013          61.752         10.4549 
        1.54627          61.171         10.3558 
        1.55241         60.9936          10.258 
        1.55855         60.6292         10.1616 
        1.56467         60.1187         10.0667 
         1.5708         60.0726         9.97273 
        1.57695         59.7225         9.87983 
        1.58308         59.4256         9.78833 
        1.58922          59.181         9.69792 
        1.59535         59.0578          9.6087 
         1.6015         58.8325         9.52047 
        1.60764         58.4331          9.4334 
        1.61376         58.1243         9.34766 
        1.61989         57.6553         9.26292 
        1.62604         57.5192         9.17905 
        1.63218         57.2182         9.09626 
        1.63831         57.0353          9.0147 
        1.64444         56.8201          8.9341 
        1.65059         56.3942          8.8543 
        1.65673         56.1203         8.77557 
        1.66285         55.8504         8.69802 
        1.66898         55.4699         8.62138 
        1.67512         55.2907         8.54552 
        1.68127         55.1475          8.4705 
         1.6874         54.7925         8.39655 
        1.69353         54.5166         8.32354 
        1.69967         54.3333         8.25122 
        1.70581         53.9759         8.17979 
        1.71193         53.7749         8.10948 
        1.71806         53.5073         8.03986 
        1.72421         53.3389         7.97091 
        1.73035         53.0487         7.90285 
        1.73649         52.7018         7.83561 
        1.74262         52.3367          7.7692 
        1.74876         52.3574         7.70352 
        1.75489         52.0001         7.63874 
        1.76101         51.7771         7.57472 
        1.76715         51.6008         7.51135 
        1.77329          51.177         7.44863 
        1.77943         51.1639          7.3866 
        1.78557         50.8577         7.32537 
        1.79171         50.5936         7.26482 
        1.79785         50.3722         7.20494 
        1.80399         50.1075         7.14576 
        1.81012         49.8913         7.08732 
        1.81625         49.6385         7.02956 
        1.82239         49.4009         6.97236 
        1.82853         49.1582         6.91582 
        1.83466          48.984         6.85996 
        1.84078          48.738         6.80479 
        1.84692         48.5796         6.75013 
        1.85306         48.2815           6.696 
         1.8592         48.0695         6.64256 
        1.86533         47.8521         6.58973 
        1.87147         47.6065         6.53741 
        1.87761         47.4221         6.48564 
        1.88375         47.1823          6.4345 
        1.88988         46.9542         6.38396 
        1.89601         46.7649         6.33394 
        1.90215         46.4727         6.28441 
        1.90829         46.3632         6.23544 
        1.91442         46.0698         6.18699 
        1.92056         45.9515          6.1391 
         1.9267         45.7583         6.09166 
        1.93284         45.5451          6.0447 
        1.93897         45.2738         5.99833 
        1.94509          45.016         5.95254 
        1.95123         44.8817         5.90711 
        1.95737         44.7106         5.86213 
        1.96349         44.5408         5.81773 
        1.96964         44.2424         5.77367 
        1.97578         44.0402         5.73004 
        1.98192         43.8052         5.68695 
        1.98805         43.5986          5.6443 
        1.99419         43.4694         5.60209 
        2.00033         43.3077         5.56029 
        2.00647         43.1002         5.51893 
         2.0126         42.8584         5.47806 
        2.01874         42.7621         5.43754 
        2.02488         42.4644          5.3974 
        2.03101         42.3912         5.35774 
        2.03714         42.1307         5.31851 
        2.04328         41.9747         5.27963 
        2.04941         41.7045         5.24118 
        2.05554         41.6133         5.20313 
        2.06167           41.46         5.16541 
        2.06781          41.184         5.12806 
        2.07396         40.9614         5.09103 
        2.08009         40.8108         5.05443 
        2.08622         40.6896         5.01823 
        2.09237         40.4507         4.98231 
        2.09851         40.2873         4.94674 
        2.10464         40.1315         4.91157 
        2.11077         39.9816         4.87679 
        2.11691         39.7126         4.84227 
        2.12305         39.4937         4.80809 
        2.12918         39.4013         4.77431 
        2.13531         39.1862         4.74086 
        2.14145          39.047         4.70765 
         2.1476         38.9442         4.67472 
        2.15372         38.8013         4.64228 
        2.15985         38.4993         4.61011 
        2.16599         38.3401         4.57815 
        2.17213         38.2126         4.54653 
        2.17827         38.0518         4.51521 
         2.1844         37.7922         4.48422 
        2.19054         37.7448         4.45351 
        2.19666         37.4988         4.42313 
         2.2028         37.2806         4.39301 
        2.20893         37.2064         4.36316 
        2.21508         37.0239         4.33354 
        2.22122         36.8871          4.3042 
        2.22736         36.6311         4.27519 
        2.23349         36.5653         4.24645 
        2.23962         36.3787         4.21796 
        2.24577         36.2002          4.1897 
         2.2519         36.0138         4.16175 
        2.25802         35.9086         4.13409 
        2.26417         35.7303         4.10661 
        2.27031         35.5636         4.07936 
        2.27644         35.5297         4.05243 
        2.28257         35.1988         4.02575 
        2.28872         35.2091         3.99925 
        2.29486          35.026           3.973 
        2.30099         34.8003         3.94704 
        2.30712         34.7217         3.92131 
        2.31326         34.5104         3.89575 
         2.3194           34.35         3.87044 
        2.32553         34.2481          3.8454 
        2.33166         34.0673         3.82059 
         2.3378         33.8873         3.79597 
        2.34394          33.768         3.77155 
        2.35007         33.6864         3.74739 
        2.35619         33.5357         3.72346 
        2.36233         33.2936         3.69969 
        2.36848         33.2656         3.67608 
        2.37462         33.0488         3.65272 
        2.38075         32.9368         3.62959 
        2.38689         32.8309         3.60664 
        2.39303         32.6936          3.5839 
        2.39916         32.4319         3.56137 
        2.40529         32.3701         3.53904 
        2.41143         32.2303         3.51688 
        2.41757         32.1553          3.4949 
         2.4237         31.9859         3.47315 
        2.42983         31.7841         3.45159 
        2.43598         31.6914         3.43016 
        2.44211         31.5475         3.40894 
        2.44823         31.3857         3.38795 
        2.45437         31.3154         3.36708 
        2.46052         31.1156         3.34637 
        2.46665         31.0199         3.32587 
        2.47279            30.8         3.30555 
        2.47892         30.7565         3.28538 
        2.48507         30.6529         3.26536 
         2.4912         30.4833         3.24555 
